,0,1,2,3,4,5,6,7,8,9,10,11,12,13,14,15,16,17,18,19,20,21,22,23,24,25,26,27,28,29,30,31,32,33,34,35,36,37,38,39,40,41,42,43,44,45,46,47,48,49,50,51,52,53,54,55,56,57,58,59,60,61,62,63,64,65,66,67,68,69,70,71,72,73,74,75,76,77,78,79,80,81,82,83,84,85,86,87,88,89,90,91,92,93,94,95,96,97,98,99,100,101,102,103,104,105,106,107,108,109,110,111,112,113,114,115,116,117,118,119,120,121,122,123,124,125,126,127,128,129,130,131,132,133,134,135,136,137,138,139,140,141,142,143,144,145,146,147,148,149,150,151,152,153,154,155,156,157,158,159,160,161,162,163,164,165,166,167,168,169,170,171,172,173,174,175,176,177,178,179,180,181,182,183,184,185,186,187,188,189,190,191,192,193,194,195,196,197,198,199,200,201,202,203,204,205,206,207,208,209,210,211,212,213,214,215,216,217,218,219,220,221,222,223,224,225,226,227,228,229,230,231,232,233,234,235,236,237,238,239,240,241,242,243,244,245,246,247,248,249,250,251,252,253,254,255,256,257,258,259,260,261,262,263,264,265,266,267,268,269,270,271,272,273,274,275,276,277,278,279,280,281,282,283,284,285,286,287,288,289,290,291,292,293,294,295,296,297,298,299,300,301,302,303,304,305,306,307,308,309,310,311,312,313,314,315,316,317,318,319,320,321,322,323,324,325,326,327,328,329,330,331,332,333,334,335,336,337,338,339,340,341,342,343,344,345,346,347,348,349,350,351,352,353,354,355,356,357,358,359,360,361,362,363,364,365,366,367,368,369,370,371,372,373,374,375,376,377,378,379,380,381,382,383,384,385,386,387,388,389,390,391,392,393,394,395,396,397,398,399,400,401,402,403,404,405,406,407,408,409,410,411,412,413,414,415,416,417,418,419,420,421,422,423,424,425,426,427,428,429,430,431,432,433,434,435,436,437,438,439,440,441,442,443,444,445,446,447,448,449,450,451,452,453,454,455,456,457,458,459,460,461,462,463,464,465,466,467,468,469,470,471,472,473,474,475,476,477,478,479,480,481,482,483,484,485,486,487,488,489,490,491,492,493,494,495,496,497,498,499,500,501,502,503,504,505,506,507,508,509,510,511,512,513,514,515,516,517,518,519,520,521,522,523,524,525,526,527,528,529,530,531,532,533,534,535,536,537,538,539,540,541,542,543,544,545,546,547,548,549,550,551,552,553,554,555,556,557,558,559,560,561,562,563,564,565,566,567,568,569,570,571,572,573,574,575,576,577,578,579,580,581,582,583,584,585,586,587,588,589,590,591,592,593,594,595,596,597,598,599,600,601,602,603,604,605,606,607,608,609,610,611,612,613,614,615,616,617,618,619,620,621,622,623,624,625,626,627,628,629,630,631,632,633,634,635,636,637,638,639,640,641,642,643,644,645,646,647,648,649,650,651,652,653,654,655,656,657,658,659,660,661,662,663,664,665,666,667,668,669,670,671,672,673,674,675,676,677,678,679,680,681,682,683,684,685,686,687,688,689,690,691,692,693,694,695,696,697,698,699,700,701,702,703,704,705,706,707,708,709,710,711,712,713,714,715,716,717,718,719,720,721,722,723,724,725,726,727,728,729,730,731,732,733,734,735,736,737,738,739,740,741,742,743,744,745,746,747,748,749,750,751,752,753,754,755,756,757,758,759,760,761,762,763,764,765,766,767,768,769,770,771,772,773,774,775,776,777,778,779,780,781,782,783,784,785,786,787,788,789,790,791,792,793,794,795,796,797,798,799,800,801,802,803,804,805,806,807,808,809,810,811,812,813,814,815,816,817,818,819,820,821,822,823,824,825,826,827,828,829,830,831,832,833,834,835,836,837,838,839,840,841,842,843,844,845,846,847,848,849,850,851,852,853,854,855,856,857,858,859,860,861,862,863,864,865,866,867,868,869,870,871,872,873,874,875,876,877,878,879,880,881,882,883,884,885,886,887,888,889,890,891,892,893,894,895,896,897,898,899,900,901,902,903,904,905,906,907,908,909,910,911,912,913,914,915,916,917,918,919,920,921,922,923,924,925,926,927,928,929,930,931,932,933,934,935,936,937,938,939,940,941,942,943,944,945,946,947,948,949,950,951,952,953,954,955,956,957,958,959,960,961,962,963,964,965,966,967,968,969,970,971,972,973,974,975,976,977,978,979,980,981,982,983,984,985,986,987,988,989,990,991,992,993,994,995,996,997,998,999,1000,1001,1002,1003,1004,1005,1006,1007,1008,1009,1010,1011,1012,1013,1014,1015,1016,1017
0,54298.562112987034,54298.562112987034,54298.562112987034,54298.562112987034,54298.562112987034,54298.562112987034,54298.562112987034,54298.562112987034,54298.562112987034,54298.562112987034,54298.562112987034,54298.562112987034,54298.562112987034,54298.562112987034,54298.562112987034,54298.562112987034,54298.562112987034,54298.562112987034,54298.562112987034,54298.562112987034,54298.562112987034,54298.562112987034,54298.562112987034,54298.562112987034,54298.562112987034,54298.562112987034,54298.562112987034,54298.562112987034,54298.562112987034,54298.562112987034,54298.562112987034,54298.562112987034,54298.562112987034,54298.562112987034,54298.562112987034,54298.562112987034,54298.562112987034,54298.562112987034,54298.562112987034,54298.562112987034,54298.562112987034,54298.562112987034,54298.562112987034,54298.562112987034,54298.562112987034,54298.562112987034,54298.562112987034,54298.562112987034,54298.562112987034,54298.562112987034,54298.562112987034,54298.562112987034,54298.562112987034,54298.562112987034,54298.562112987034,54298.562112987034,54298.562112987034,54298.562112987034,54298.562112987034,54298.562112987034,54298.562112987034,54298.562112987034,54298.562112987034,54298.562112987034,54298.562112987034,54298.562112987034,54298.562112987034,54298.562112987034,54298.562112987034,54298.562112987034,54298.562112987034,54298.562112987034,54298.562112987034,54298.562112987034,54298.562112987034,54298.562112987034,54298.562112987034,54298.562112987034,54298.562112987034,54298.562112987034,54298.562112987034,54298.562112987034,54298.562112987034,54298.562112987034,54298.562112987034,54298.562112987034,54298.562112987034,54298.562112987034,54298.562112987034,54298.562112987034,54298.562112987034,54298.562112987034,54298.562112987034,54298.562112987034,54298.562112987034,54298.562112987034,54298.562112987034,54298.562112987034,54298.562112987034,54298.562112987034,54298.562112987034,54298.562112987034,54298.562112987034,54298.562112987034,54298.562112987034,54298.562112987034,54298.562112987034,54298.562112987034,54298.562112987034,54298.562112987034,54298.562112987034,54298.562112987034,54298.562112987034,54298.562112987034,54298.562112987034,54298.562112987034,54298.562112987034,54298.562112987034,54298.562112987034,54298.562112987034,54298.562112987034,54298.562112987034,54298.562112987034,54298.562112987034,54298.562112987034,54298.562112987034,54298.562112987034,54298.562112987034,54298.562112987034,54298.562112987034,54298.562112987034,54298.562112987034,54298.562112987034,54298.562112987034,54298.562112987034,54298.562112987034,54298.562112987034,54298.562112987034,54298.562112987034,54298.562112987034,54298.562112987034,54298.562112987034,54298.562112987034,54298.562112987034,54298.562112987034,54298.562112987034,54298.562112987034,54298.562112987034,54298.562112987034,54298.562112987034,54298.562112987034,54298.562112987034,54298.562112987034,54298.562112987034,54298.562112987034,54298.562112987034,54298.562112987034,54298.562112987034,54298.562112987034,54298.562112987034,54298.562112987034,54298.562112987034,54298.562112987034,54298.562112987034,54298.562112987034,54298.562112987034,54298.562112987034,54298.562112987034,54298.562112987034,54298.562112987034,54298.562112987034,54298.562112987034,54298.562112987034,54298.562112987034,54298.562112987034,54298.562112987034,54298.562112987034,54298.562112987034,54298.562112987034,54298.562112987034,54298.562112987034,54298.562112987034,54298.562112987034,54298.562112987034,54298.562112987034,54298.562112987034,54298.562112987034,54298.562112987034,54298.562112987034,54298.562112987034,54298.562112987034,54298.562112987034,54298.562112987034,54298.562112987034,54298.562112987034,54298.562112987034,54298.562112987034,54298.562112987034,54298.562112987034,54298.562112987034,54298.562112987034,54298.562112987034,54298.562112987034,54298.562112987034,54298.562112987034,54298.562112987034,54298.562112987034,54298.562112987034,54298.562112987034,54298.562112987034,54298.562112987034,54298.562112987034,54298.562112987034,54298.562112987034,54298.562112987034,54298.562112987034,54298.562112987034,54298.562112987034,54298.562112987034,54298.562112987034,54298.562112987034,54298.562112987034,54298.562112987034,54298.562112987034,54298.562112987034,54298.562112987034,54298.562112987034,54298.562112987034,54298.562112987034,54298.562112987034,54298.562112987034,54298.562112987034,54298.562112987034,54298.562112987034,54298.562112987034,54298.562112987034,54298.562112987034,54298.562112987034,54298.562112987034,54298.562112987034,54298.562112987034,54298.562112987034,54298.562112987034,54298.562112987034,54298.562112987034,54298.562112987034,54298.562112987034,54298.562112987034,54298.562112987034,54298.562112987034,54298.562112987034,54298.562112987034,54298.562112987034,54298.562112987034,54298.562112987034,54298.562112987034,54298.562112987034,54298.562112987034,54298.562112987034,54298.562112987034,54298.562112987034,54298.562112987034,54298.562112987034,54298.562112987034,54298.562112987034,54298.562112987034,54298.562112987034,54298.562112987034,54298.562112987034,54298.562112987034,54298.562112987034,54298.562112987034,54298.562112987034,54298.562112987034,54298.562112987034,54298.562112987034,54298.562112987034,54298.562112987034,54298.562112987034,54298.562112987034,54298.562112987034,54298.562112987034,54298.562112987034,54298.562112987034,54298.562112987034,54298.562112987034,54298.562112987034,54298.562112987034,54298.562112987034,54298.562112987034,54298.562112987034,54298.562112987034,54298.562112987034,54298.562112987034,54298.562112987034,54298.562112987034,54298.562112987034,54298.562112987034,54298.562112987034,54298.562112987034,54298.562112987034,54298.562112987034,54298.562112987034,54298.562112987034,54298.562112987034,54298.562112987034,54298.562112987034,54298.562112987034,54298.562112987034,54298.562112987034,54298.562112987034,54298.562112987034,54298.562112987034,54298.562112987034,54298.562112987034,54298.562112987034,54298.562112987034,54298.562112987034,54298.562112987034,54298.562112987034,54298.562112987034,54298.562112987034,54298.562112987034,54298.562112987034,54298.562112987034,54298.562112987034,54298.562112987034,54298.562112987034,54298.562112987034,54298.562112987034,54298.562112987034,54298.562112987034,54298.562112987034,54298.562112987034,54298.562112987034,54298.562112987034,54298.562112987034,54298.562112987034,54298.562112987034,54298.562112987034,54298.562112987034,54298.562112987034,54298.562112987034,54298.562112987034,54298.562112987034,54298.562112987034,54298.562112987034,54298.562112987034,54298.562112987034,54298.562112987034,54298.562112987034,54298.562112987034,54298.562112987034,54298.562112987034,54298.562112987034,54298.562112987034,54298.562112987034,54298.562112987034,54298.562112987034,54298.562112987034,54298.562112987034,54298.562112987034,54298.562112987034,54298.562112987034,54298.562112987034,54298.562112987034,54298.562112987034,54298.562112987034,54298.562112987034,54298.562112987034,54298.562112987034,54298.562112987034,54298.562112987034,54298.562112987034,54298.562112987034,54298.562112987034,54298.562112987034,54298.562112987034,54298.562112987034,54298.562112987034,54298.562112987034,54298.562112987034,54298.562112987034,54298.562112987034,54298.562112987034,54298.562112987034,54298.562112987034,54298.562112987034,54298.562112987034,54298.562112987034,54298.562112987034,54298.562112987034,54298.562112987034,54298.562112987034,54298.562112987034,54298.562112987034,54298.562112987034,54298.562112987034,54298.562112987034,54298.562112987034,54298.562112987034,54298.562112987034,54298.562112987034,54298.562112987034,54298.562112987034,54298.562112987034,54298.562112987034,54298.562112987034,54298.562112987034,54298.562112987034,54298.562112987034,54298.562112987034,54298.562112987034,54298.562112987034,54298.562112987034,54298.562112987034,54298.562112987034,54298.562112987034,54298.562112987034,54298.562112987034,54298.562112987034,54298.562112987034,54298.562112987034,54298.562112987034,54298.562112987034,54298.562112987034,54298.562112987034,54298.562112987034,54298.562112987034,54298.562112987034,54298.562112987034,54298.562112987034,54298.562112987034,54298.562112987034,54298.562112987034,54298.562112987034,54298.562112987034,54298.562112987034,54298.562112987034,54298.562112987034,54298.562112987034,54298.562112987034,54298.562112987034,54298.562112987034,54298.562112987034,54298.562112987034,54298.562112987034,54298.562112987034,54298.562112987034,54298.562112987034,54298.562112987034,54298.562112987034,54298.562112987034,54298.56211298703,54298.56211298703,54298.56211298703,54298.56211298703,54298.56211298703,54298.56211298703,54298.56211298703,54298.56211298703,54298.56211298703,54298.56211298703,54298.56211298703,54298.56211298703,54298.56211298703,54298.56211298703,54298.56211298703,54298.56211298703,54298.56211298703,54298.56211298703,54298.56211298703,54298.56211298703,54298.56211298703,54298.56211298703,54298.56211298703,54298.56211298703,54298.56211298703,54298.56211298703,54298.56211298703,54298.56211298703,54298.56211298703,54298.56211298703,54298.56211298703,54298.56211298703,54298.56211298703,54298.56211298703,54298.56211298703,54298.56211298703,54298.56211298703,54298.56211298703,54298.56211298703,54298.56211298703,54298.56211298703,54298.56211298703,54298.56211298703,54298.56211298703,54298.56211298703,54298.56211298703,54298.56211298703,54298.56211298703,54298.56211298703,54298.56211298703,54298.56211298703,54298.56211298703,54298.56211298703,54298.56211298703,54298.56211298703,54298.56211298703,54298.56211298703,54298.56211298703,54298.56211298703,54298.56211298703,54298.56211298703,54298.56211298703,54298.56211298703,54298.56211298703,54298.56211298703,54298.56211298703,54298.56211298703,54298.56211298703,54298.56211298703,54298.56211298703,54298.56211298703,54298.56211298703,54298.56211298703,54298.56211298703,54298.56211298703,54298.56211298703,54298.56211298703,54298.56211298703,54298.56211298703,54298.56211298703,54298.56211298703,54298.56211298703,54298.56211298703,54298.56211298703,54298.56211298703,54298.56211298703,54298.56211298703,54298.56211298703,54298.56211298703,54298.56211298703,54298.56211298703,54298.56211298703,54298.56211298703,54298.56211298703,54298.56211298703,54298.56211298703,54298.56211298703,54298.56211298703,54298.56211298703,54298.56211298703,54298.56211298703,54298.56211298703,54298.56211298703,54298.56211298703,54298.56211298703,54298.56211298703,54298.56211298703,54298.56211298703,54298.56211298703,54298.56211298703,54298.56211298703,54298.56211298703,54298.56211298703,54298.56211298703,54298.56211298703,54298.56211298703,54298.56211298703,54298.56211298703,54298.56211298703,54298.56211298703,54298.56211298703,54298.56211298703,54298.56211298703,54298.56211298703,54298.56211298703,54298.56211298703,54298.56211298703,54298.56211298703,54298.56211298703,54298.56211298703,54298.562112987034,54298.562112987034,54298.562112987034,54298.562112987034,54298.562112987034,54298.562112987034,54298.562112987034,54298.562112987034,54298.562112987034,54298.562112987034,54298.562112987034,54298.562112987034,54298.562112987034,54298.562112987034,54298.562112987034,54298.562112987034,54298.562112987034,54298.562112987034,54298.562112987034,54298.562112987034,54298.562112987034,54298.562112987034,54298.562112987034,54298.562112987034,54298.562112987034,54298.562112987034,54298.562112987034,54298.562112987034,54298.562112987034,54298.562112987034,54298.562112987034,54298.562112987034,54298.562112987034,54298.562112987034,54298.562112987034,54298.562112987034,54298.562112987034,54298.562112987034,54298.562112987034,54298.562112987034,54298.562112987034,54298.562112987034,54298.562112987034,54298.562112987034,54298.562112987034,54298.562112987034,54298.562112987034,54298.562112987034,54298.562112987034,54298.562112987034,54298.562112987034,54298.562112987034,54298.562112987034,54298.562112987034,54298.562112987034,54298.562112987034,54298.562112987034,54298.562112987034,54298.562112987034,54298.562112987034,54298.562112987034,54298.562112987034,54298.562112987034,54298.562112987034,54298.562112987034,54298.562112987034,54298.562112987034,54298.562112987034,54298.562112987034,54298.562112987034,54298.562112987034,54298.562112987034,54298.562112987034,54298.562112987034,54298.562112987034,54298.562112987034,54298.562112987034,54298.562112987034,54298.562112987034,54298.562112987034,54298.562112987034,54298.562112987034,54298.562112987034,54298.562112987034,54298.562112987034,54298.562112987034,54298.562112987034,54298.562112987034,54298.562112987034,54298.562112987034,54298.562112987034,54298.562112987034,54298.562112987034,54298.562112987034,54298.562112987034,54298.562112987034,54298.562112987034,54298.562112987034,54298.562112987034,54298.562112987034,54298.562112987034,54298.562112987034,54298.562112987034,54298.562112987034,54298.562112987034,54298.562112987034,54298.562112987034,54298.562112987034,54298.562112987034,54298.562112987034,54298.562112987034,54298.562112987034,54298.562112987034,54298.562112987034,54298.562112987034,54298.562112987034,54298.562112987034,54298.562112987034,54298.562112987034,54298.562112987034,54298.562112987034,54298.562112987034,54298.562112987034,54298.562112987034,54298.562112987034,54298.562112987034,54298.562112987034,54298.562112987034,54298.562112987034,54298.562112987034,54298.562112987034,54298.562112987034,54298.562112987034,54298.562112987034,54298.562112987034,54298.562112987034,54298.562112987034,54298.562112987034,54298.562112987034,54298.562112987034,54298.562112987034,54298.562112987034,54298.562112987034,54298.562112987034,54298.562112987034,54298.562112987034,54298.562112987034,54298.562112987034,54298.562112987034,54298.562112987034,54298.562112987034,54298.562112987034,54298.562112987034,54298.562112987034,54298.562112987034,54298.562112987034,54298.562112987034,54298.562112987034,54298.562112987034,54298.562112987034,54298.562112987034,54298.562112987034,54298.562112987034,54298.562112987034,54298.562112987034,54298.562112987034,54298.562112987034,54298.562112987034,54298.562112987034,54298.562112987034,54298.562112987034,54298.562112987034,54298.562112987034,54298.562112987034,54298.562112987034,54298.562112987034,54298.562112987034,54298.562112987034,54298.562112987034,54298.562112987034,54298.562112987034,54298.562112987034,54298.562112987034,54298.562112987034,54298.562112987034,54298.562112987034,54298.562112987034,54298.562112987034,54298.562112987034,54298.562112987034,54298.562112987034,54298.562112987034,54298.562112987034,54298.562112987034,54298.562112987034,54298.562112987034,54298.562112987034,54298.562112987034,54298.562112987034,54298.562112987034,54298.562112987034,54298.562112987034,54298.562112987034,54298.562112987034,54298.562112987034,54298.562112987034,54298.562112987034,54298.562112987034,54298.562112987034,54298.562112987034,54298.562112987034,54298.562112987034,54298.562112987034,54298.562112987034,54298.562112987034,54298.562112987034,54298.562112987034,54298.562112987034,54298.562112987034,54298.562112987034,54298.562112987034,54298.562112987034,54298.562112987034,54298.562112987034,54298.562112987034,54298.562112987034,54298.562112987034,54298.562112987034,54298.562112987034,54298.562112987034,54298.562112987034,54298.562112987034,54298.562112987034,54298.562112987034,54298.562112987034,54298.562112987034,54298.562112987034,54298.562112987034,54298.562112987034,54298.562112987034,54298.562112987034,54298.562112987034,54298.562112987034,54298.562112987034,54298.562112987034,54298.562112987034,54298.562112987034,54298.562112987034,54298.562112987034,54298.562112987034,54298.562112987034,54298.562112987034,54298.562112987034,54298.562112987034,54298.562112987034,54298.562112987034,54298.562112987034,54298.562112987034,54298.562112987034,54298.562112987034,54298.562112987034,54298.562112987034,54298.562112987034,54298.562112987034,54298.562112987034,54298.562112987034,54298.562112987034,54298.562112987034,54298.562112987034,54298.562112987034,54298.562112987034,54298.562112987034,54298.562112987034,54298.562112987034,54298.562112987034,54298.562112987034,54298.562112987034,54298.562112987034,54298.562112987034,54298.562112987034,54298.562112987034,54298.562112987034,54298.562112987034,54298.562112987034,54298.562112987034,54298.562112987034,54298.562112987034,54298.562112987034,54298.562112987034,54298.562112987034,54298.562112987034,54298.562112987034,54298.562112987034,54298.562112987034,54298.562112987034,54298.562112987034,54298.562112987034,54298.562112987034,54298.562112987034,54298.562112987034,54298.562112987034,54298.562112987034,54298.562112987034,54298.562112987034,54298.562112987034,54298.562112987034,54298.562112987034,54298.562112987034,54298.562112987034,54298.562112987034,54298.562112987034,54298.562112987034,54298.562112987034,54298.562112987034,54298.562112987034,54298.562112987034,54298.562112987034,54298.562112987034,54298.562112987034,54298.562112987034,54298.562112987034,54298.562112987034,54298.562112987034,54298.562112987034,54298.562112987034,54298.562112987034,54298.562112987034,54298.562112987034,54298.562112987034,54298.562112987034,54298.562112987034,54298.562112987034,54298.562112987034,54298.562112987034,54298.562112987034,54298.562112987034,54298.562112987034,54298.562112987034,54298.562112987034,54298.562112987034,54298.562112987034,54298.562112987034,54298.562112987034,54298.562112987034,54298.562112987034,54298.562112987034,54298.562112987034,54298.562112987034,54298.562112987034,54298.562112987034,54298.562112987034,54298.562112987034,54298.562112987034,54298.562112987034,54298.562112987034,54298.562112987034,54298.562112987034,54298.562112987034,54298.562112987034,54298.562112987034,54298.562112987034,54298.562112987034,54298.562112987034,54298.562112987034,54298.562112987034,54298.562112987034,54298.562112987034,54298.562112987034,54298.562112987034,54298.562112987034,54298.562112987034,54298.562112987034,54298.562112987034,54298.562112987034,54298.562112987034,54298.562112987034,54298.562112987034,54298.562112987034,54298.562112987034,54298.562112987034,54298.562112987034,54298.562112987034,54298.562112987034,54298.562112987034,54298.562112987034,54298.562112987034,54298.562112987034,54298.562112987034,54298.562112987034,54298.562112987034,54298.562112987034,54298.562112987034,54298.562112987034,54298.562112987034,54298.562112987034,54298.562112987034,54298.562112987034,54298.562112987034,54298.562112987034,54298.562112987034,54298.562112987034,54298.562112987034,54298.562112987034,54298.562112987034,54298.562112987034,54298.562112987034,54298.562112987034,54298.562112987034,54298.562112987034,54298.562112987034,54298.562112987034,54298.562112987034,54298.562112987034,54298.562112987034,54298.562112987034,54298.562112987034,54298.562112987034,54298.562112987034,54298.562112987034,54298.562112987034,54298.562112987034,54298.562112987034,54298.562112987034,54298.562112987034,54298.562112987034,54298.562112987034,54298.562112987034,54298.562112987034,54298.562112987034,54298.562112987034,54298.562112987034,54298.562112987034,54298.562112987034,54298.562112987034,54298.562112987034
1,1589.2458303890655,1589.2458303890655,1589.2458303890653,1589.2458303890653,1589.245830389065,1589.245830389065,1589.2458303890648,1589.2458303890648,1589.2458303890646,1589.2458303890646,1589.2458303890644,1589.2458303890644,1589.2458303890642,1589.2458303890642,1589.245830389064,1589.245830389064,1589.2458303890637,1589.2458303890637,1589.2458303890635,1589.2458303890635,1589.2458303890633,1589.2458303890633,1589.245830389063,1589.245830389063,1589.2458303890628,1589.2458303890628,1589.2458303890626,1589.2458303890626,1589.2458303890623,1589.2458303890623,1589.2458303890621,1589.2458303890621,1589.245830389062,1589.245830389062,1589.2458303890617,1589.2458303890617,1589.2458303890614,1589.2458303890614,1589.2458303890612,1589.2458303890612,1589.245830389061,1589.245830389061,1589.2458303890608,1589.2458303890608,1589.2458303890608,1589.2458303890605,1589.2458303890605,1589.2458303890603,1589.2458303890603,1589.24583038906,1589.24583038906,1589.2458303890598,1589.2458303890598,1589.2458303890596,1589.2458303890596,1589.2458303890594,1589.2458303890594,1589.2458303890594,1589.2458303890592,1589.2458303890592,1589.245830389059,1589.245830389059,1589.2458303890587,1589.2458303890587,1589.2458303890585,1589.2458303890585,1589.2458303890585,1589.2458303890583,1589.2458303890583,1589.245830389058,1589.245830389058,1589.2458303890578,1589.2458303890578,1589.2458303890576,1589.2458303890576,1589.2458303890576,1589.2458303890573,1589.2458303890573,1589.2458303890571,1589.2458303890571,1589.245830389057,1589.245830389057,1589.245830389057,1589.2458303890567,1589.2458303890567,1589.2458303890564,1589.2458303890564,1589.2458303890562,1589.2458303890562,1589.2458303890562,1589.245830389056,1589.245830389056,1589.2458303890558,1589.2458303890558,1589.2458303890555,1589.2458303890555,1589.2458303890555,1589.2458303890553,1589.2458303890553,1589.245830389055,1589.245830389055,1589.245830389055,1589.2458303890548,1589.2458303890548,1589.2458303890546,1589.2458303890546,1589.2458303890546,1589.2458303890544,1589.2458303890544,1589.2458303890542,1589.2458303890542,1589.2458303890542,1589.245830389054,1589.245830389054,1589.2458303890537,1589.2458303890537,1589.2458303890537,1589.2458303890535,1589.2458303890535,1589.2458303890533,1589.2458303890533,1589.2458303890533,1589.245830389053,1589.245830389053,1589.2458303890528,1589.2458303890528,1589.2458303890528,1589.2458303890526,1589.2458303890526,1589.2458303890523,1589.2458303890523,1589.2458303890523,1589.2458303890521,1589.2458303890521,1589.2458303890521,1589.245830389052,1589.245830389052,1589.2458303890517,1589.2458303890517,1589.2458303890517,1589.2458303890514,1589.2458303890514,1589.2458303890512,1589.2458303890512,1589.2458303890512,1589.245830389051,1589.245830389051,1589.245830389051,1589.2458303890508,1589.2458303890508,1589.2458303890508,1589.2458303890505,1589.2458303890505,1589.2458303890503,1589.2458303890503,1589.2458303890503,1589.24583038905,1589.24583038905,1589.24583038905,1589.2458303890498,1589.2458303890498,1589.2458303890498,1589.2458303890496,1589.2458303890496,1589.2458303890494,1589.2458303890494,1589.2458303890494,1589.2458303890492,1589.2458303890492,1589.2458303890492,1589.245830389049,1589.245830389049,1589.245830389049,1589.2458303890487,1589.2458303890487,1589.2458303890487,1589.2458303890485,1589.2458303890485,1589.2458303890485,1589.2458303890483,1589.2458303890483,1589.245830389048,1589.245830389048,1589.245830389048,1589.2458303890478,1589.2458303890478,1589.2458303890478,1589.2458303890476,1589.2458303890476,1589.2458303890476,1589.2458303890473,1589.2458303890473,1589.2458303890473,1589.2458303890471,1589.2458303890471,1589.2458303890471,1589.245830389047,1589.245830389047,1589.245830389047,1589.2458303890467,1589.2458303890467,1589.2458303890467,1589.2458303890464,1589.2458303890464,1589.2458303890464,1589.2458303890462,1589.2458303890462,1589.2458303890462,1589.245830389046,1589.245830389046,1589.245830389046,1589.2458303890458,1589.2458303890458,1589.2458303890458,1589.2458303890455,1589.2458303890455,1589.2458303890455,1589.2458303890455,1589.2458303890453,1589.2458303890453,1589.2458303890453,1589.245830389045,1589.245830389045,1589.245830389045,1589.2458303890448,1589.2458303890448,1589.2458303890448,1589.2458303890446,1589.2458303890446,1589.2458303890446,1589.2458303890444,1589.2458303890444,1589.2458303890444,1589.2458303890442,1589.2458303890442,1589.2458303890442,1589.2458303890442,1589.245830389044,1589.245830389044,1589.245830389044,1589.2458303890437,1589.2458303890437,1589.2458303890437,1589.2458303890435,1589.2458303890435,1589.2458303890435,1589.2458303890432,1589.2458303890432,1589.2458303890432,1589.2458303890432,1589.245830389043,1589.245830389043,1589.245830389043,1589.2458303890428,1589.2458303890428,1589.2458303890428,1589.2458303890426,1589.2458303890426,1589.2458303890426,1589.2458303890426,1589.2458303890423,1589.2458303890423,1589.2458303890423,1589.245830389042,1589.245830389042,1589.245830389042,1589.245830389042,1589.2458303890419,1589.2458303890419,1589.2458303890419,1589.2458303890417,1589.2458303890417,1589.2458303890417,1589.2458303890417,1589.2458303890414,1589.2458303890414,1589.2458303890414,1589.2458303890412,1589.2458303890412,1589.2458303890412,1589.2458303890412,1589.245830389041,1589.245830389041,1589.245830389041,1589.2458303890407,1589.2458303890407,1589.2458303890407,1589.2458303890407,1589.2458303890405,1589.2458303890405,1589.2458303890405,1589.2458303890403,1589.2458303890403,1589.2458303890403,1589.2458303890403,1589.24583038904,1589.24583038904,1589.24583038904,1589.2458303890398,1589.2458303890398,1589.2458303890398,1589.2458303890398,1589.2458303890396,1589.2458303890396,1589.2458303890396,1589.2458303890396,1589.2458303890394,1589.2458303890394,1589.2458303890394,1589.2458303890394,1589.2458303890392,1589.2458303890392,1589.2458303890392,1589.245830389039,1589.245830389039,1589.245830389039,1589.245830389039,1589.2458303890387,1589.2458303890387,1589.2458303890387,1589.2458303890387,1589.2458303890385,1589.2458303890385,1589.2458303890385,1589.2458303890385,1589.2458303890382,1589.2458303890382,1589.2458303890382,1589.245830389038,1589.245830389038,1589.245830389038,1589.245830389038,1589.2458303890378,1589.2458303890378,1589.2458303890378,1589.2458303890378,1589.2458303890376,1589.2458303890376,1589.2458303890376,1589.2458303890376,1589.2458303890373,1589.2458303890373,1589.2458303890373,1589.2458303890373,1589.245830389037,1589.245830389037,1589.245830389037,1589.245830389037,1589.2458303890369,1589.2458303890369,1589.2458303890369,1589.2458303890369,1589.2458303890367,1589.2458303890367,1589.2458303890367,1589.2458303890367,1589.2458303890364,1589.2458303890364,1589.2458303890364,1589.2458303890364,1589.2458303890362,1589.2458303890362,1589.2458303890362,1589.2458303890362,1589.245830389036,1589.245830389036,1589.245830389036,1589.245830389036,1589.2458303890357,1589.2458303890357,1589.2458303890357,1589.2458303890357,1589.2458303890355,1589.2458303890355,1589.2458303890355,1589.2458303890355,1589.2458303890355,1589.2458303890353,1589.2458303890353,1589.2458303890353,1589.2458303890353,1589.245830389035,1589.245830389035,1589.245830389035,1589.245830389035,1589.2458303890348,1589.2458303890348,1589.2458303890348,1589.2458303890348,1589.2458303890346,1589.2458303890346,1589.2458303890346,1589.2458303890346,1589.2458303890346,1589.2458303890344,1589.2458303890344,1589.2458303890344,1589.2458303890344,1589.2458303890342,1589.2458303890342,1589.2458303890342,1589.2458303890342,1589.245830389034,1589.245830389034,1589.245830389034,1589.245830389034,1589.245830389034,1589.2458303890337,1589.2458303890337,1589.2458303890337,1589.2458303890337,1589.2458303890335,1589.2458303890335,1589.2458303890335,1589.2458303890335,1589.2458303890335,1589.2458303890332,1589.2458303890332,1589.2458303890332,1589.2458303890332,1589.245830389033,1589.245830389033,1589.245830389033,1589.245830389033,1589.245830389033,1589.2458303890328,1589.2458303890328,1589.2458303890328,1589.2458303890328,1589.2458303890326,1589.2458303890326,1589.2458303890326,1589.2458303890326,1589.2458303890326,1589.2458303890323,1589.2458303890323,1589.2458303890323,1589.2458303890323,1589.245830389032,1589.245830389032,1589.245830389032,1589.245830389032,1589.245830389032,1589.2458303890319,1589.2458303890319,1589.2458303890319,1589.2458303890319,1589.2458303890319,1589.2458303890317,1589.2458303890317,1589.2458303890317,1589.2458303890317,1589.2458303890317,1589.2458303890314,1589.2458303890314,1589.2458303890314,1589.2458303890314,1589.2458303890312,1589.2458303890312,1589.2458303890312,1589.2458303890312,1589.2458303890312,1589.245830389031,1589.245830389031,1589.245830389031,1589.245830389031,1589.245830389031,1589.2458303890307,1589.2458303890307,1589.2458303890307,1589.2458303890307,1589.2458303890307,1589.2458303890305,1589.2458303890305,1589.2458303890305,1589.2458303890305,1589.2458303890305,1589.2458303890303,1589.2458303890303,1589.2458303890303,1589.2458303890303,1589.2458303890303,1589.24583038903,1589.24583038903,1589.24583038903,1589.24583038903,1589.24583038903,1589.2458303890298,1589.2458303890298,1589.2458303890298,1589.2458303890298,1589.2458303890298,1589.2458303890296,1589.2458303890296,1589.2458303890296,1589.2458303890296,1589.2458303890296,1589.2458303890294,1589.2458303890294,1589.2458303890294,1589.2458303890294,1589.2458303890294,1589.2458303890292,1589.2458303890292,1589.2458303890292,1589.2458303890292,1589.2458303890292,1589.245830389029,1589.245830389029,1589.245830389029,1589.245830389029,1589.245830389029,1589.2458303890287,1589.2458303890287,1589.2458303890287,1589.2458303890287,1589.2458303890287,1589.2458303890287,1589.2458303890285,1589.2458303890285,1589.2458303890285,1589.2458303890285,1589.2458303890285,1589.2458303890282,1589.2458303890282,1589.2458303890282,1589.2458303890282,1589.2458303890282,1589.245830389028,1589.245830389028,1589.245830389028,1589.245830389028,1589.245830389028,1589.245830389028,1589.2458303890278,1589.2458303890278,1589.2458303890278,1589.245830389028,1589.245830389028,1589.2458303890282,1589.2458303890282,1589.2458303890285,1589.2458303890287,1589.2458303890287,1589.245830389029,1589.245830389029,1589.2458303890292,1589.2458303890292,1589.2458303890294,1589.2458303890296,1589.2458303890296,1589.2458303890298,1589.2458303890298,1589.24583038903,1589.2458303890303,1589.2458303890303,1589.2458303890305,1589.2458303890305,1589.2458303890307,1589.2458303890307,1589.245830389031,1589.2458303890312,1589.2458303890312,1589.2458303890314,1589.2458303890314,1589.2458303890317,1589.2458303890317,1589.2458303890319,1589.2458303890319,1589.245830389032,1589.2458303890323,1589.2458303890323,1589.2458303890326,1589.2458303890326,1589.2458303890328,1589.2458303890328,1589.245830389033,1589.2458303890332,1589.2458303890332,1589.2458303890335,1589.2458303890335,1589.2458303890337,1589.2458303890337,1589.245830389034,1589.245830389034,1589.2458303890342,1589.2458303890344,1589.2458303890344,1589.2458303890346,1589.2458303890346,1589.2458303890348,1589.2458303890348,1589.245830389035,1589.245830389035,1589.2458303890353,1589.2458303890353,1589.2458303890355,1589.2458303890357,1589.2458303890357,1589.245830389036,1589.245830389036,1589.2458303890362,1589.2458303890362,1589.2458303890364,1589.2458303890364,1589.2458303890367,1589.2458303890367,1589.2458303890369,1589.2458303890369,1589.245830389037,1589.245830389037,1589.2458303890373,1589.2458303890376,1589.2458303890376,1589.2458303890378,1589.2458303890378,1589.245830389038,1589.245830389038,1589.2458303890382,1589.2458303890382,1589.2458303890385,1589.2458303890385,1589.2458303890387,1589.2458303890387,1589.245830389039,1589.245830389039,1589.2458303890392,1589.2458303890392,1589.2458303890394,1589.2458303890394,1589.2458303890396,1589.2458303890396,1589.2458303890398,1589.2458303890398,1589.24583038904,1589.2458303890403,1589.2458303890403,1589.2458303890405,1589.2458303890405,1589.2458303890407,1589.2458303890407,1589.245830389041,1589.245830389041,1589.2458303890412,1589.2458303890412,1589.2458303890414,1589.2458303890414,1589.2458303890417,1589.2458303890417,1589.2458303890419,1589.2458303890419,1589.245830389042,1589.245830389042,1589.2458303890423,1589.2458303890423,1589.2458303890426,1589.2458303890426,1589.2458303890428,1589.2458303890428,1589.245830389043,1589.245830389043,1589.2458303890432,1589.2458303890432,1589.2458303890435,1589.2458303890435,1589.2458303890437,1589.2458303890437,1589.245830389044,1589.245830389044,1589.2458303890442,1589.2458303890442,1589.2458303890444,1589.2458303890444,1589.2458303890444,1589.2458303890446,1589.2458303890446,1589.2458303890448,1589.2458303890448,1589.245830389045,1589.245830389045,1589.2458303890453,1589.2458303890453,1589.2458303890455,1589.2458303890455,1589.2458303890458,1589.2458303890458,1589.245830389046,1589.245830389046,1589.2458303890462,1589.2458303890462,1589.2458303890464,1589.2458303890464,1589.2458303890467,1589.2458303890467,1589.245830389047,1589.245830389047,1589.245830389047,1589.2458303890471,1589.2458303890471,1589.2458303890473,1589.2458303890473,1589.2458303890476,1589.2458303890476,1589.2458303890478,1589.2458303890478,1589.245830389048,1589.245830389048,1589.2458303890483,1589.2458303890483,1589.2458303890485,1589.2458303890485,1589.2458303890485,1589.2458303890487,1589.2458303890487,1589.245830389049,1589.245830389049,1589.2458303890492,1589.2458303890492,1589.2458303890494,1589.2458303890494,1589.2458303890496,1589.2458303890496,1589.2458303890498,1589.2458303890498,1589.2458303890498,1589.24583038905,1589.24583038905,1589.2458303890503,1589.2458303890503,1589.2458303890505,1589.2458303890505,1589.2458303890508,1589.2458303890508,1589.2458303890508,1589.245830389051,1589.245830389051,1589.2458303890512,1589.2458303890512,1589.2458303890514,1589.2458303890514,1589.2458303890517,1589.2458303890517,1589.2458303890517,1589.245830389052,1589.245830389052,1589.2458303890521,1589.2458303890521,1589.2458303890523,1589.2458303890523,1589.2458303890526,1589.2458303890526,1589.2458303890526,1589.2458303890528,1589.2458303890528,1589.245830389053,1589.245830389053,1589.2458303890533,1589.2458303890533,1589.2458303890535,1589.2458303890535,1589.2458303890535,1589.2458303890537,1589.2458303890537,1589.245830389054,1589.245830389054,1589.2458303890542,1589.2458303890542,1589.2458303890542,1589.2458303890544,1589.2458303890544,1589.2458303890546,1589.2458303890546,1589.2458303890548,1589.2458303890548,1589.2458303890548,1589.245830389055,1589.245830389055,1589.2458303890553,1589.2458303890553,1589.2458303890553,1589.2458303890555,1589.2458303890555,1589.2458303890558,1589.2458303890558,1589.245830389056,1589.245830389056,1589.245830389056,1589.2458303890562,1589.2458303890562,1589.2458303890564,1589.2458303890564,1589.2458303890567,1589.2458303890567,1589.2458303890567,1589.245830389057,1589.245830389057,1589.2458303890571,1589.2458303890571,1589.2458303890571,1589.2458303890573,1589.2458303890573,1589.2458303890576,1589.2458303890576,1589.2458303890576,1589.2458303890578,1589.2458303890578,1589.245830389058,1589.245830389058,1589.2458303890583,1589.2458303890583,1589.2458303890583,1589.2458303890585,1589.2458303890585,1589.2458303890587,1589.2458303890587,1589.2458303890587,1589.245830389059,1589.245830389059,1589.2458303890592,1589.2458303890592,1589.2458303890592,1589.2458303890594,1589.2458303890594,1589.2458303890596,1589.2458303890596,1589.2458303890596,1589.2458303890598,1589.2458303890598,1589.24583038906,1589.24583038906,1589.24583038906,1589.2458303890603,1589.2458303890603,1589.2458303890605,1589.2458303890605,1589.2458303890605,1589.2458303890608,1589.2458303890608,1589.245830389061,1589.245830389061,1589.245830389061,1589.2458303890612,1589.2458303890612,1589.2458303890612,1589.2458303890614,1589.2458303890614,1589.2458303890617,1589.2458303890617,1589.2458303890617,1589.245830389062,1589.245830389062,1589.2458303890621,1589.2458303890621,1589.2458303890621,1589.2458303890623,1589.2458303890623,1589.2458303890623,1589.2458303890626,1589.2458303890626,1589.2458303890628,1589.2458303890628,1589.2458303890628,1589.245830389063,1589.245830389063,1589.2458303890633,1589.2458303890633,1589.2458303890633,1589.2458303890635,1589.2458303890635,1589.2458303890635,1589.2458303890637,1589.2458303890637,1589.245830389064,1589.245830389064,1589.245830389064,1589.2458303890642,1589.2458303890642,1589.2458303890642,1589.2458303890644,1589.2458303890644,1589.2458303890646,1589.2458303890646,1589.2458303890646,1589.2458303890648,1589.2458303890648,1589.2458303890648,1589.245830389065,1589.245830389065,1589.2458303890653,1589.2458303890653,1589.2458303890653,1589.2458303890655,1589.2458303890655,1589.2458303890655,1589.2458303890658,1589.2458303890658,1589.2458303890658,1589.245830389066,1589.245830389066,1589.2458303890662,1589.2458303890662,1589.2458303890662,1589.2458303890664,1589.2458303890664,1589.2458303890664,1589.2458303890667,1589.2458303890667,1589.2458303890667,1589.245830389067,1589.245830389067,1589.2458303890671,1589.2458303890671,1589.2458303890671,1589.2458303890674,1589.2458303890674,1589.2458303890674,1589.2458303890676,1589.2458303890676,1589.2458303890676,1589.2458303890678,1589.2458303890678,1589.2458303890678,1589.245830389068,1589.245830389068,1589.2458303890683,1589.2458303890683,1589.2458303890683,1589.2458303890685,1589.2458303890685,1589.2458303890685,1589.2458303890687,1589.2458303890687,1589.2458303890687,1589.245830389069,1589.245830389069,1589.245830389069,1589.2458303890692,1589.2458303890692,1589.2458303890692,1589.2458303890694,1589.2458303890694,1589.2458303890694,1589.2458303890696,1589.2458303890696,1589.2458303890699,1589.2458303890699,1589.2458303890699,1589.24583038907,1589.24583038907,1589.24583038907,1589.2458303890703,1589.2458303890703,1589.2458303890703,1589.2458303890705,1589.2458303890705,1589.2458303890705,1589.2458303890708,1589.2458303890708,1589.2458303890708,1589.245830389071,1589.245830389071,1589.245830389071,1589.2458303890712,1589.2458303890712,1589.2458303890712,1589.2458303890714,1589.2458303890714,1589.2458303890714,1589.2458303890717,1589.2458303890717,1589.2458303890717,1589.245830389072,1589.245830389072,1589.245830389072,1589.2458303890721,1589.2458303890721,1589.2458303890721,1589.2458303890724,1589.2458303890724,1589.2458303890724,1589.2458303890726,1589.2458303890726,1589.2458303890726,1589.2458303890728,1589.2458303890728,1589.2458303890728,1589.245830389073,1589.245830389073,1589.245830389073,1589.2458303890733,1589.2458303890733,1589.2458303890733,1589.2458303890735,1589.2458303890735,1589.2458303890735,1589.2458303890737,1589.2458303890737,1589.2458303890737,1589.245830389074,1589.245830389074,1589.245830389074,1589.2458303890742,1589.2458303890742,1589.2458303890742,1589.2458303890744,1589.2458303890744,1589.2458303890744,1589.2458303890746,1589.2458303890746,1589.2458303890746,1589.2458303890746,1589.2458303890749,1589.2458303890749,1589.2458303890749,1589.245830389075,1589.245830389075,1589.245830389075,1589.2458303890753
2,-0.03179952002583057,-0.03179952002583057,-0.03179952002583057,-0.03179952002583057,-0.03179952002583057,-0.03179952002583058,-0.03179952002583058,-0.03179952002583058,-0.03179952002583058,-0.03179952002583058,-0.031799520025830585,-0.031799520025830585,-0.031799520025830585,-0.031799520025830585,-0.031799520025830585,-0.03179952002583059,-0.03179952002583059,-0.03179952002583059,-0.03179952002583059,-0.03179952002583059,-0.0317995200258306,-0.0317995200258306,-0.0317995200258306,-0.0317995200258306,-0.0317995200258306,-0.0317995200258306,-0.031799520025830606,-0.031799520025830606,-0.031799520025830606,-0.031799520025830606,-0.031799520025830606,-0.03179952002583061,-0.03179952002583061,-0.03179952002583061,-0.03179952002583061,-0.03179952002583061,-0.03179952002583061,-0.03179952002583062,-0.03179952002583062,-0.03179952002583062,-0.03179952002583062,-0.03179952002583062,-0.03179952002583063,-0.03179952002583063,-0.03179952002583063,-0.03179952002583063,-0.03179952002583063,-0.03179952002583063,-0.031799520025830634,-0.031799520025830634,-0.031799520025830634,-0.031799520025830634,-0.031799520025830634,-0.031799520025830634,-0.03179952002583064,-0.03179952002583064,-0.03179952002583064,-0.03179952002583064,-0.03179952002583064,-0.03179952002583064,-0.03179952002583065,-0.03179952002583065,-0.03179952002583065,-0.03179952002583065,-0.03179952002583065,-0.031799520025830655,-0.031799520025830655,-0.031799520025830655,-0.031799520025830655,-0.031799520025830655,-0.031799520025830655,-0.03179952002583066,-0.03179952002583066,-0.03179952002583066,-0.03179952002583066,-0.03179952002583066,-0.03179952002583066,-0.03179952002583066,-0.03179952002583067,-0.03179952002583067,-0.03179952002583067,-0.03179952002583067,-0.03179952002583067,-0.03179952002583067,-0.031799520025830676,-0.031799520025830676,-0.031799520025830676,-0.031799520025830676,-0.031799520025830676,-0.031799520025830676,-0.03179952002583068,-0.03179952002583068,-0.03179952002583068,-0.03179952002583068,-0.03179952002583068,-0.03179952002583068,-0.03179952002583069,-0.03179952002583069,-0.03179952002583069,-0.03179952002583069,-0.03179952002583069,-0.03179952002583069,-0.03179952002583069,-0.031799520025830696,-0.031799520025830696,-0.031799520025830696,-0.031799520025830696,-0.031799520025830696,-0.031799520025830696,-0.0317995200258307,-0.0317995200258307,-0.0317995200258307,-0.0317995200258307,-0.0317995200258307,-0.0317995200258307,-0.0317995200258307,-0.03179952002583071,-0.03179952002583071,-0.03179952002583071,-0.03179952002583071,-0.03179952002583071,-0.03179952002583071,-0.03179952002583071,-0.03179952002583072,-0.03179952002583072,-0.03179952002583072,-0.03179952002583072,-0.03179952002583072,-0.03179952002583072,-0.031799520025830724,-0.031799520025830724,-0.031799520025830724,-0.031799520025830724,-0.031799520025830724,-0.031799520025830724,-0.031799520025830724,-0.03179952002583073,-0.03179952002583073,-0.03179952002583073,-0.03179952002583073,-0.03179952002583073,-0.03179952002583073,-0.03179952002583073,-0.03179952002583074,-0.03179952002583074,-0.03179952002583074,-0.03179952002583074,-0.03179952002583074,-0.03179952002583074,-0.03179952002583074,-0.03179952002583074,-0.031799520025830745,-0.031799520025830745,-0.031799520025830745,-0.031799520025830745,-0.031799520025830745,-0.031799520025830745,-0.031799520025830745,-0.03179952002583075,-0.03179952002583075,-0.03179952002583075,-0.03179952002583075,-0.03179952002583075,-0.03179952002583075,-0.03179952002583075,-0.03179952002583076,-0.03179952002583076,-0.03179952002583076,-0.03179952002583076,-0.03179952002583076,-0.03179952002583076,-0.03179952002583076,-0.03179952002583076,-0.031799520025830766,-0.031799520025830766,-0.031799520025830766,-0.031799520025830766,-0.031799520025830766,-0.031799520025830766,-0.031799520025830766,-0.03179952002583077,-0.03179952002583077,-0.03179952002583077,-0.03179952002583077,-0.03179952002583077,-0.03179952002583077,-0.03179952002583077,-0.03179952002583077,-0.03179952002583078,-0.03179952002583078,-0.03179952002583078,-0.03179952002583078,-0.03179952002583078,-0.03179952002583078,-0.03179952002583078,-0.03179952002583078,-0.03179952002583079,-0.03179952002583079,-0.03179952002583079,-0.03179952002583079,-0.03179952002583079,-0.03179952002583079,-0.03179952002583079,-0.03179952002583079,-0.031799520025830794,-0.031799520025830794,-0.031799520025830794,-0.031799520025830794,-0.031799520025830794,-0.031799520025830794,-0.031799520025830794,-0.031799520025830794,-0.0317995200258308,-0.0317995200258308,-0.0317995200258308,-0.0317995200258308,-0.0317995200258308,-0.0317995200258308,-0.0317995200258308,-0.0317995200258308,-0.03179952002583081,-0.03179952002583081,-0.03179952002583081,-0.03179952002583081,-0.0317995200258308,-0.0317995200258308,-0.0317995200258308,-0.031799520025830794,-0.031799520025830794,-0.031799520025830794,-0.03179952002583079,-0.03179952002583079,-0.03179952002583078,-0.03179952002583078,-0.03179952002583078,-0.03179952002583077,-0.03179952002583077,-0.03179952002583077,-0.031799520025830766,-0.031799520025830766,-0.03179952002583076,-0.03179952002583076,-0.03179952002583076,-0.03179952002583075,-0.03179952002583075,-0.03179952002583075,-0.031799520025830745,-0.031799520025830745,-0.03179952002583074,-0.03179952002583074,-0.03179952002583074,-0.03179952002583073,-0.03179952002583073,-0.03179952002583073,-0.031799520025830724,-0.031799520025830724,-0.03179952002583072,-0.03179952002583072,-0.03179952002583072,-0.03179952002583071,-0.03179952002583071,-0.03179952002583071,-0.0317995200258307,-0.0317995200258307,-0.0317995200258307,-0.031799520025830696,-0.031799520025830696,-0.03179952002583069,-0.03179952002583069,-0.03179952002583069,-0.03179952002583068,-0.03179952002583068,-0.03179952002583068,-0.031799520025830676,-0.031799520025830676,-0.031799520025830676,-0.03179952002583067,-0.03179952002583067,-0.03179952002583067,-0.03179952002583066,-0.03179952002583066,-0.03179952002583066,-0.031799520025830655,-0.031799520025830655,-0.03179952002583065,-0.03179952002583065,-0.03179952002583065,-0.03179952002583064,-0.03179952002583064,-0.03179952002583064,-0.031799520025830634,-0.031799520025830634,-0.031799520025830634,-0.03179952002583063,-0.03179952002583063,-0.03179952002583063,-0.03179952002583062,-0.03179952002583062,-0.03179952002583062,-0.03179952002583061,-0.03179952002583061,-0.03179952002583061,-0.031799520025830606,-0.031799520025830606,-0.031799520025830606,-0.0317995200258306,-0.0317995200258306,-0.0317995200258306,-0.03179952002583059,-0.03179952002583059,-0.03179952002583059,-0.031799520025830585,-0.031799520025830585,-0.031799520025830585,-0.03179952002583058,-0.03179952002583058,-0.03179952002583058,-0.03179952002583057,-0.03179952002583057,-0.03179952002583057,-0.031799520025830565,-0.031799520025830565,-0.031799520025830565,-0.03179952002583056,-0.03179952002583056,-0.03179952002583056,-0.03179952002583055,-0.03179952002583055,-0.03179952002583055,-0.03179952002583055,-0.031799520025830544,-0.031799520025830544,-0.031799520025830544,-0.03179952002583054,-0.03179952002583054,-0.03179952002583054,-0.03179952002583053,-0.03179952002583053,-0.03179952002583053,-0.03179952002583052,-0.03179952002583052,-0.03179952002583052,-0.031799520025830516,-0.031799520025830516,-0.031799520025830516,-0.031799520025830516,-0.03179952002583051,-0.03179952002583051,-0.03179952002583051,-0.0317995200258305,-0.0317995200258305,-0.0317995200258305,-0.031799520025830495,-0.031799520025830495,-0.031799520025830495,-0.03179952002583049,-0.03179952002583049,-0.03179952002583049,-0.03179952002583049,-0.03179952002583048,-0.03179952002583048,-0.03179952002583048,-0.031799520025830474,-0.031799520025830474,-0.031799520025830474,-0.03179952002583047,-0.03179952002583047,-0.03179952002583047,-0.03179952002583047,-0.03179952002583046,-0.03179952002583046,-0.03179952002583046,-0.031799520025830454,-0.031799520025830454,-0.031799520025830454,-0.03179952002583045,-0.03179952002583045,-0.03179952002583045,-0.03179952002583045,-0.03179952002583044,-0.03179952002583044,-0.03179952002583044,-0.03179952002583043,-0.03179952002583043,-0.03179952002583043,-0.03179952002583043,-0.031799520025830426,-0.031799520025830426,-0.031799520025830426,-0.03179952002583042,-0.03179952002583042,-0.03179952002583042,-0.03179952002583042,-0.03179952002583041,-0.03179952002583041,-0.03179952002583041,-0.031799520025830405,-0.031799520025830405,-0.031799520025830405,-0.031799520025830405,-0.0317995200258304,-0.0317995200258304,-0.0317995200258304,-0.03179952002583039,-0.03179952002583039,-0.03179952002583039,-0.03179952002583039,-0.031799520025830384,-0.031799520025830384,-0.031799520025830384,-0.03179952002583038,-0.03179952002583038,-0.03179952002583038,-0.03179952002583038,-0.03179952002583037,-0.03179952002583037,-0.03179952002583037,-0.03179952002583037,-0.03179952002583036,-0.03179952002583036,-0.03179952002583036,-0.031799520025830356,-0.031799520025830356,-0.031799520025830356,-0.031799520025830356,-0.03179952002583035,-0.03179952002583035,-0.03179952002583035,-0.03179952002583035,-0.03179952002583034,-0.03179952002583034,-0.03179952002583034,-0.031799520025830336,-0.031799520025830336,-0.031799520025830336,-0.031799520025830336,-0.03179952002583033,-0.03179952002583033,-0.03179952002583033,-0.03179952002583033,-0.03179952002583032,-0.03179952002583032,-0.03179952002583032,-0.03179952002583032,-0.031799520025830315,-0.031799520025830315,-0.031799520025830315,-0.031799520025830315,-0.03179952002583031,-0.03179952002583031,-0.03179952002583031,-0.0317995200258303,-0.0317995200258303,-0.0317995200258303,-0.0317995200258303,-0.031799520025830294,-0.031799520025830294,-0.031799520025830294,-0.031799520025830294,-0.03179952002583029,-0.03179952002583029,-0.03179952002583029,-0.03179952002583029,-0.03179952002583028,-0.03179952002583028,-0.03179952002583028,-0.03179952002583028,-0.03179952002583027,-0.03179952002583027,-0.03179952002583027,-0.03179952002583027,-0.031799520025830266,-0.031799520025830266,-0.031799520025830266,-0.031799520025830266,-0.03179952002583026,-0.03179952002583026,-0.03179952002583026,-0.03179952002583026,-0.03179952002583025,-0.03179952002583025,-0.03179952002583025,-0.03179952002583025,-0.031799520025830245,-0.031799520025830245,-0.031799520025830245,-0.031799520025830245,-0.03179952002583024,-0.03179952002583024,-0.03179952002583024,-0.03179952002583024,-0.03179952002583023,-0.03179952002583023,-0.03179952002583023,-0.03179952002583023,-0.031799520025830225,-0.031799520025830225,-0.031799520025830225,-0.031799520025830225,-0.031799520025830225,-0.03179952002583022,-0.03179952002583022,-0.03179952002583022,-0.03179952002583022,-0.03179952002583021,-0.03179952002583021,-0.03179952002583021,-0.03179952002583021,-0.031799520025830204,-0.031799520025830204,-0.031799520025830204,-0.031799520025830204,-0.0317995200258302,-0.0317995200258302,-0.0317995200258302,-0.0317995200258302,-0.03179952002583019,-0.03179952002583019,-0.03179952002583019,-0.03179952002583019,-0.03179952002583019,-0.03179952002583018,-0.03179952002583018,-0.03179952002583018,-0.03179952002583018,-0.031799520025830176,-0.031799520025830176,-0.031799520025830176,-0.031799520025830176,-0.03179952002583017,-0.03179952002583017,-0.03179952002583017,-0.03179952002583017,-0.03179952002583017,-0.03179952002583016,-0.03179952002583016,-0.03179952002583016,-0.03179952002583016,-0.031799520025830155,-0.031799520025830155,-0.031799520025830155,-0.031799520025830155,-0.031799520025830155,-0.03179952002583015,-0.03179952002583015,-0.03179952002583015,-0.03179952002583015,-0.03179952002583014,-0.03179952002583014,-0.03179952002583014,-0.03179952002583014,-0.03179952002583014,-0.031799520025830134,-0.031799520025830134,-0.031799520025830134,-0.031799520025830134,-0.03179952002583013,-0.03179952002583013,-0.03179952002583013,-0.03179952002583013,-0.03179952002583013,-0.03179952002583012,-0.03179952002583012,-0.03179952002583012,-0.03179952002583012,-0.031799520025830114,-0.031799520025830114,-0.031799520025830114,-0.031799520025830114,-0.031799520025830114,-0.03179952002583011,-0.03179952002583011,-0.03179952002583011,-0.03179952002583011,-0.03179952002583011,-0.0317995200258301,-0.0317995200258301,-0.0317995200258301,-0.0317995200258301,-0.03179952002583009,-0.03179952002583009,-0.03179952002583009,-0.03179952002583009,-0.03179952002583009,-0.031799520025830086,-0.031799520025830086,-0.031799520025830086,-0.031799520025830086,-0.031799520025830086,-0.03179952002583008,-0.03179952002583008,-0.03179952002583008,-0.03179952002583008,-0.03179952002583008,-0.03179952002583007,-0.03179952002583007,-0.03179952002583007,-0.03179952002583007,-0.031799520025830065,-0.031799520025830065,-0.031799520025830065,-0.031799520025830065,-0.031799520025830065,-0.03179952002583006,-0.03179952002583006,-0.03179952002583006,-0.03179952002583006,-0.03179952002583006,-0.03179952002583005,-0.03179952002583005,-0.03179952002583005,-0.03179952002583005,-0.03179952002583005,-0.031799520025830044,-0.031799520025830044,-0.031799520025830044,-0.031799520025830044,-0.031799520025830044,-0.03179952002583004,-0.03179952002583004,-0.03179952002583004,-0.03179952002583004,-0.03179952002583004,-0.03179952002583003,-0.03179952002583003,-0.03179952002583003,-0.03179952002583003,-0.03179952002583003,-0.03179952002583002,-0.03179952002583002,-0.03179952002583002,-0.03179952002583002,-0.03179952002583002,-0.031799520025830016,-0.031799520025830016,-0.031799520025830016,-0.031799520025830016,-0.031799520025830016,-0.03179952002583001,-0.03179952002583001,-0.03179952002583001,-0.03179952002583001,-0.03179952002583001,-0.03179952002583,-0.03179952002583,-0.03179952002583,-0.03179952002583,-0.03179952002583,-0.031799520025829996,-0.031799520025829996,-0.031799520025829996,-0.031799520025829996,-0.031799520025829996,-0.031799520025829996,-0.03179952002582999,-0.03179952002582999,-0.03179952002582999,-0.03179952002582999,-0.03179952002582999,-0.03179952002582998,-0.03179952002582998,-0.03179952002582998,-0.03179952002582998,-0.03179952002582998,-0.031799520025829975,-0.031799520025829975,-0.031799520025829975,-0.031799520025829975,-0.031799520025829975,-0.031799520025829975,-0.03179952002582997,-0.03179952002582997,-0.03179952002582997,-0.03179952002582997,-0.03179952002582997,-0.03179952002582996,-0.03179952002582996,-0.03179952002582996,-0.03179952002582996,-0.03179952002582996,-0.031799520025829954,-0.031799520025829954,-0.031799520025829954,-0.031799520025829954,-0.031799520025829954,-0.031799520025829954,-0.03179952002582995,-0.03179952002582995,-0.03179952002582995,-0.03179952002582995,-0.03179952002582995,-0.03179952002582994,-0.03179952002582994,-0.03179952002582994,-0.03179952002582994,-0.03179952002582994,-0.03179952002582994,-0.03179952002582993,-0.03179952002582993,-0.03179952002582993,-0.03179952002582993,-0.03179952002582993,-0.031799520025829926,-0.031799520025829926,-0.031799520025829926,-0.031799520025829926,-0.031799520025829926,-0.031799520025829926,-0.03179952002582992,-0.03179952002582992,-0.03179952002582992,-0.03179952002582992,-0.03179952002582992,-0.03179952002582992,-0.03179952002582991,-0.03179952002582991,-0.03179952002582991,-0.03179952002582991,-0.03179952002582991,-0.031799520025829905,-0.031799520025829905,-0.031799520025829905,-0.031799520025829905,-0.031799520025829905,-0.031799520025829905,-0.0317995200258299,-0.0317995200258299,-0.0317995200258299,-0.0317995200258299,-0.0317995200258299,-0.0317995200258299,-0.03179952002582989,-0.03179952002582989,-0.03179952002582989,-0.03179952002582989,-0.03179952002582989,-0.03179952002582989,-0.031799520025829885,-0.031799520025829885,-0.031799520025829885,-0.031799520025829885,-0.031799520025829885,-0.031799520025829885,-0.03179952002582988,-0.03179952002582988,-0.03179952002582988,-0.03179952002582988,-0.03179952002582988,-0.03179952002582988,-0.03179952002582987,-0.03179952002582987,-0.03179952002582987,-0.03179952002582987,-0.03179952002582987,-0.031799520025829864,-0.031799520025829864,-0.031799520025829864,-0.031799520025829864,-0.031799520025829864,-0.031799520025829864,-0.031799520025829864,-0.03179952002582986,-0.03179952002582986,-0.03179952002582986,-0.03179952002582986,-0.03179952002582986,-0.03179952002582986,-0.03179952002582985,-0.03179952002582985,-0.03179952002582985,-0.03179952002582985,-0.03179952002582985,-0.03179952002582985,-0.03179952002582984,-0.03179952002582984,-0.03179952002582984,-0.03179952002582984,-0.03179952002582984,-0.03179952002582984,-0.031799520025829836,-0.031799520025829836,-0.031799520025829836,-0.031799520025829836,-0.031799520025829836,-0.031799520025829836,-0.03179952002582983,-0.03179952002582983,-0.03179952002582983,-0.03179952002582983,-0.03179952002582983,-0.03179952002582983,-0.03179952002582982,-0.03179952002582982,-0.03179952002582982,-0.03179952002582982,-0.03179952002582982,-0.03179952002582982,-0.03179952002582982,-0.031799520025829815,-0.031799520025829815,-0.031799520025829815,-0.031799520025829815,-0.031799520025829815,-0.031799520025829815,-0.03179952002582981,-0.03179952002582981,-0.03179952002582981,-0.03179952002582981,-0.03179952002582981,-0.03179952002582981,-0.0317995200258298,-0.0317995200258298,-0.0317995200258298,-0.0317995200258298,-0.0317995200258298,-0.0317995200258298,-0.0317995200258298,-0.031799520025829794,-0.031799520025829794,-0.031799520025829794,-0.031799520025829794,-0.031799520025829794,-0.031799520025829794,-0.03179952002582979,-0.03179952002582979,-0.03179952002582979,-0.03179952002582979,-0.03179952002582979,-0.03179952002582979,-0.03179952002582979,-0.03179952002582978,-0.03179952002582978,-0.03179952002582978,-0.03179952002582978,-0.03179952002582978,-0.03179952002582978,-0.03179952002582978,-0.031799520025829774,-0.031799520025829774,-0.031799520025829774,-0.031799520025829774,-0.031799520025829774,-0.031799520025829774,-0.03179952002582977,-0.03179952002582977,-0.03179952002582977,-0.03179952002582977,-0.03179952002582977,-0.03179952002582977,-0.03179952002582977,-0.03179952002582976,-0.03179952002582976,-0.03179952002582976,-0.03179952002582976,-0.03179952002582976,-0.03179952002582976,-0.03179952002582976,-0.03179952002582975,-0.03179952002582975,-0.03179952002582975,-0.03179952002582975,-0.03179952002582975,-0.03179952002582975,-0.03179952002582975,-0.031799520025829746,-0.031799520025829746,-0.031799520025829746,-0.031799520025829746,-0.031799520025829746,-0.031799520025829746,-0.03179952002582974,-0.03179952002582974,-0.03179952002582974,-0.03179952002582974,-0.03179952002582974,-0.03179952002582974,-0.03179952002582974,-0.03179952002582973,-0.03179952002582973,-0.03179952002582973,-0.03179952002582973,-0.03179952002582973,-0.03179952002582973,-0.03179952002582973,-0.031799520025829725,-0.031799520025829725,-0.031799520025829725,-0.031799520025829725,-0.031799520025829725,-0.031799520025829725,-0.031799520025829725,-0.031799520025829725,-0.03179952002582972,-0.03179952002582972,-0.03179952002582972,-0.03179952002582972,-0.03179952002582972,-0.03179952002582972,-0.03179952002582972,-0.03179952002582971,-0.03179952002582971,-0.03179952002582971,-0.03179952002582971,-0.03179952002582971,-0.03179952002582971,-0.03179952002582971,-0.031799520025829704,-0.031799520025829704,-0.031799520025829704,-0.031799520025829704,-0.031799520025829704,-0.031799520025829704,-0.031799520025829704,-0.0317995200258297,-0.0317995200258297,-0.0317995200258297,-0.0317995200258297,-0.0317995200258297,-0.0317995200258297,-0.0317995200258297,-0.03179952002582969,-0.03179952002582969,-0.03179952002582969,-0.03179952002582969,-0.03179952002582969,-0.03179952002582969,-0.03179952002582969,-0.03179952002582969,-0.03179952002582968,-0.03179952002582968,-0.03179952002582968,-0.03179952002582968,-0.03179952002582968,-0.03179952002582968,-0.03179952002582968,-0.031799520025829676,-0.031799520025829676,-0.031799520025829676,-0.031799520025829676,-0.031799520025829676,-0.031799520025829676,-0.031799520025829676,-0.031799520025829676,-0.03179952002582967,-0.03179952002582967,-0.03179952002582967,-0.03179952002582967,-0.03179952002582967,-0.03179952002582967,-0.03179952002582967,-0.03179952002582966,-0.03179952002582966,-0.03179952002582966,-0.03179952002582966,-0.03179952002582966,-0.03179952002582966,-0.03179952002582966,-0.03179952002582966,-0.031799520025829656,-0.031799520025829656,-0.031799520025829656,-0.031799520025829656,-0.031799520025829656,-0.031799520025829656,-0.031799520025829656,-0.031799520025829656,-0.03179952002582965,-0.03179952002582965,-0.03179952002582965,-0.03179952002582965,-0.03179952002582965,-0.03179952002582965,-0.03179952002582965,-0.03179952002582965,-0.03179952002582964,-0.03179952002582964,-0.03179952002582964,-0.03179952002582964,-0.03179952002582964,-0.03179952002582964,-0.03179952002582964,-0.031799520025829635,-0.031799520025829635,-0.031799520025829635,-0.031799520025829635,-0.031799520025829635,-0.031799520025829635,-0.031799520025829635,-0.031799520025829635,-0.03179952002582963,-0.03179952002582963,-0.03179952002582963,-0.03179952002582963,-0.03179952002582963,-0.03179952002582963,-0.03179952002582963,-0.03179952002582963,-0.03179952002582962,-0.03179952002582962,-0.03179952002582962,-0.03179952002582962,-0.03179952002582962,-0.03179952002582962,-0.03179952002582962,-0.03179952002582962,-0.031799520025829614,-0.031799520025829614,-0.031799520025829614,-0.031799520025829614,-0.031799520025829614,-0.031799520025829614,-0.031799520025829614,-0.031799520025829614,-0.031799520025829614,-0.03179952002582961,-0.03179952002582961,-0.03179952002582961,-0.03179952002582961
3,0.5655956369173923,0.5655956369173923,0.5655956369173923,0.5655956369173923,0.5655956369173923,0.5655956369173925,0.5655956369173925,0.5655956369173925,0.5655956369173925,0.5655956369173925,0.5655956369173925,0.5655956369173926,0.5655956369173926,0.5655956369173926,0.5655956369173926,0.5655956369173926,0.5655956369173927,0.5655956369173927,0.5655956369173927,0.5655956369173927,0.5655956369173927,0.5655956369173927,0.5655956369173928,0.5655956369173928,0.5655956369173928,0.5655956369173928,0.5655956369173928,0.5655956369173928,0.5655956369173929,0.5655956369173929,0.5655956369173929,0.5655956369173929,0.5655956369173929,0.5655956369173929,0.565595636917393,0.565595636917393,0.565595636917393,0.565595636917393,0.565595636917393,0.565595636917393,0.565595636917393,0.5655956369173931,0.5655956369173931,0.5655956369173931,0.5655956369173931,0.5655956369173931,0.5655956369173931,0.5655956369173932,0.5655956369173932,0.5655956369173932,0.5655956369173932,0.5655956369173932,0.5655956369173932,0.5655956369173933,0.5655956369173933,0.5655956369173933,0.5655956369173933,0.5655956369173933,0.5655956369173933,0.5655956369173933,0.5655956369173935,0.5655956369173935,0.5655956369173935,0.5655956369173935,0.5655956369173935,0.5655956369173935,0.5655956369173936,0.5655956369173936,0.5655956369173936,0.5655956369173936,0.5655956369173936,0.5655956369173936,0.5655956369173936,0.5655956369173937,0.5655956369173937,0.5655956369173937,0.5655956369173937,0.5655956369173937,0.5655956369173937,0.5655956369173937,0.5655956369173938,0.5655956369173938,0.5655956369173938,0.5655956369173938,0.5655956369173938,0.5655956369173938,0.5655956369173939,0.5655956369173939,0.5655956369173939,0.5655956369173939,0.5655956369173939,0.5655956369173939,0.5655956369173939,0.565595636917394,0.565595636917394,0.565595636917394,0.565595636917394,0.565595636917394,0.565595636917394,0.565595636917394,0.565595636917394,0.5655956369173941,0.5655956369173941,0.5655956369173941,0.5655956369173941,0.5655956369173941,0.5655956369173941,0.5655956369173941,0.5655956369173942,0.5655956369173942,0.5655956369173942,0.5655956369173942,0.5655956369173942,0.5655956369173942,0.5655956369173942,0.5655956369173943,0.5655956369173943,0.5655956369173943,0.5655956369173943,0.5655956369173943,0.5655956369173943,0.5655956369173943,0.5655956369173943,0.5655956369173943,0.5655956369173943,0.5655956369173942,0.5655956369173942,0.5655956369173941,0.5655956369173941,0.565595636917394,0.565595636917394,0.565595636917394,0.5655956369173939,0.5655956369173939,0.5655956369173938,0.5655956369173938,0.5655956369173938,0.5655956369173937,0.5655956369173937,0.5655956369173936,0.5655956369173936,0.5655956369173935,0.5655956369173935,0.5655956369173935,0.5655956369173933,0.5655956369173933,0.5655956369173932,0.5655956369173932,0.5655956369173932,0.5655956369173931,0.5655956369173931,0.565595636917393,0.565595636917393,0.565595636917393,0.5655956369173929,0.5655956369173929,0.5655956369173928,0.5655956369173928,0.5655956369173928,0.5655956369173927,0.5655956369173927,0.5655956369173926,0.5655956369173926,0.5655956369173926,0.5655956369173925,0.5655956369173925,0.5655956369173923,0.5655956369173923,0.5655956369173923,0.5655956369173922,0.5655956369173922,0.5655956369173921,0.5655956369173921,0.5655956369173921,0.565595636917392,0.565595636917392,0.5655956369173919,0.5655956369173919,0.5655956369173919,0.5655956369173918,0.5655956369173918,0.5655956369173918,0.5655956369173917,0.5655956369173917,0.5655956369173916,0.5655956369173916,0.5655956369173916,0.5655956369173915,0.5655956369173915,0.5655956369173915,0.5655956369173913,0.5655956369173913,0.5655956369173912,0.5655956369173912,0.5655956369173912,0.5655956369173911,0.5655956369173911,0.5655956369173911,0.565595636917391,0.565595636917391,0.5655956369173909,0.5655956369173909,0.5655956369173909,0.5655956369173908,0.5655956369173908,0.5655956369173908,0.5655956369173907,0.5655956369173907,0.5655956369173907,0.5655956369173906,0.5655956369173906,0.5655956369173905,0.5655956369173905,0.5655956369173905,0.5655956369173903,0.5655956369173903,0.5655956369173903,0.5655956369173902,0.5655956369173902,0.5655956369173902,0.5655956369173901,0.5655956369173901,0.5655956369173901,0.56559563691739,0.56559563691739,0.5655956369173899,0.5655956369173899,0.5655956369173899,0.5655956369173898,0.5655956369173898,0.5655956369173898,0.5655956369173897,0.5655956369173897,0.5655956369173897,0.5655956369173896,0.5655956369173896,0.5655956369173896,0.5655956369173895,0.5655956369173895,0.5655956369173895,0.5655956369173893,0.5655956369173893,0.5655956369173893,0.5655956369173892,0.5655956369173892,0.5655956369173892,0.5655956369173891,0.5655956369173891,0.5655956369173891,0.565595636917389,0.565595636917389,0.565595636917389,0.5655956369173889,0.5655956369173889,0.5655956369173889,0.5655956369173888,0.5655956369173888,0.5655956369173888,0.5655956369173887,0.5655956369173887,0.5655956369173887,0.5655956369173886,0.5655956369173886,0.5655956369173886,0.5655956369173885,0.5655956369173885,0.5655956369173885,0.5655956369173883,0.5655956369173883,0.5655956369173883,0.5655956369173882,0.5655956369173882,0.5655956369173882,0.5655956369173882,0.5655956369173881,0.5655956369173881,0.5655956369173881,0.565595636917388,0.565595636917388,0.565595636917388,0.5655956369173879,0.5655956369173879,0.5655956369173879,0.5655956369173878,0.5655956369173878,0.5655956369173878,0.5655956369173877,0.5655956369173877,0.5655956369173877,0.5655956369173877,0.5655956369173876,0.5655956369173876,0.5655956369173876,0.5655956369173875,0.5655956369173875,0.5655956369173875,0.5655956369173873,0.5655956369173873,0.5655956369173873,0.5655956369173872,0.5655956369173872,0.5655956369173872,0.5655956369173872,0.5655956369173871,0.5655956369173871,0.5655956369173871,0.565595636917387,0.565595636917387,0.565595636917387,0.5655956369173869,0.5655956369173869,0.5655956369173869,0.5655956369173869,0.5655956369173868,0.5655956369173868,0.5655956369173868,0.5655956369173867,0.5655956369173867,0.5655956369173867,0.5655956369173867,0.5655956369173866,0.5655956369173866,0.5655956369173866,0.5655956369173865,0.5655956369173865,0.5655956369173865,0.5655956369173863,0.5655956369173863,0.5655956369173863,0.5655956369173863,0.5655956369173862,0.5655956369173862,0.5655956369173862,0.5655956369173861,0.5655956369173861,0.5655956369173861,0.5655956369173861,0.565595636917386,0.565595636917386,0.565595636917386,0.5655956369173859,0.5655956369173859,0.5655956369173859,0.5655956369173859,0.5655956369173858,0.5655956369173858,0.5655956369173858,0.5655956369173858,0.5655956369173857,0.5655956369173857,0.5655956369173857,0.5655956369173856,0.5655956369173856,0.5655956369173856,0.5655956369173856,0.5655956369173855,0.5655956369173855,0.5655956369173855,0.5655956369173855,0.5655956369173853,0.5655956369173853,0.5655956369173853,0.5655956369173852,0.5655956369173852,0.5655956369173852,0.5655956369173852,0.5655956369173851,0.5655956369173851,0.5655956369173851,0.5655956369173851,0.565595636917385,0.565595636917385,0.565595636917385,0.5655956369173849,0.5655956369173849,0.5655956369173849,0.5655956369173849,0.5655956369173848,0.5655956369173848,0.5655956369173848,0.5655956369173848,0.5655956369173847,0.5655956369173847,0.5655956369173847,0.5655956369173847,0.5655956369173846,0.5655956369173846,0.5655956369173846,0.5655956369173846,0.5655956369173845,0.5655956369173845,0.5655956369173845,0.5655956369173845,0.5655956369173843,0.5655956369173843,0.5655956369173843,0.5655956369173843,0.5655956369173842,0.5655956369173842,0.5655956369173842,0.5655956369173841,0.5655956369173841,0.5655956369173841,0.5655956369173841,0.565595636917384,0.565595636917384,0.565595636917384,0.565595636917384,0.5655956369173839,0.5655956369173839,0.5655956369173839,0.5655956369173839,0.5655956369173838,0.5655956369173838,0.5655956369173838,0.5655956369173838,0.5655956369173837,0.5655956369173837,0.5655956369173837,0.5655956369173837,0.5655956369173837,0.5655956369173836,0.5655956369173836,0.5655956369173836,0.5655956369173836,0.5655956369173835,0.5655956369173835,0.5655956369173835,0.5655956369173835,0.5655956369173833,0.5655956369173833,0.5655956369173833,0.5655956369173833,0.5655956369173832,0.5655956369173832,0.5655956369173832,0.5655956369173832,0.5655956369173831,0.5655956369173831,0.5655956369173831,0.5655956369173831,0.565595636917383,0.565595636917383,0.565595636917383,0.565595636917383,0.565595636917383,0.5655956369173829,0.5655956369173829,0.5655956369173829,0.5655956369173829,0.5655956369173828,0.5655956369173828,0.5655956369173828,0.5655956369173828,0.5655956369173827,0.5655956369173827,0.5655956369173827,0.5655956369173827,0.5655956369173826,0.5655956369173826,0.5655956369173826,0.5655956369173826,0.5655956369173826,0.5655956369173825,0.5655956369173825,0.5655956369173825,0.5655956369173825,0.5655956369173823,0.5655956369173823,0.5655956369173823,0.5655956369173823,0.5655956369173823,0.5655956369173822,0.5655956369173822,0.5655956369173822,0.5655956369173822,0.5655956369173821,0.5655956369173821,0.5655956369173821,0.5655956369173821,0.5655956369173821,0.565595636917382,0.565595636917382,0.565595636917382,0.565595636917382,0.5655956369173819,0.5655956369173819,0.5655956369173819,0.5655956369173819,0.5655956369173819,0.5655956369173818,0.5655956369173818,0.5655956369173818,0.5655956369173818,0.5655956369173817,0.5655956369173817,0.5655956369173817,0.5655956369173817,0.5655956369173817,0.5655956369173816,0.5655956369173816,0.5655956369173816,0.5655956369173816,0.5655956369173816,0.5655956369173815,0.5655956369173815,0.5655956369173815,0.5655956369173815,0.5655956369173814,0.5655956369173814,0.5655956369173814,0.5655956369173814,0.5655956369173814,0.5655956369173812,0.5655956369173812,0.5655956369173812,0.5655956369173812,0.5655956369173812,0.5655956369173811,0.5655956369173811,0.5655956369173811,0.5655956369173811,0.565595636917381,0.565595636917381,0.565595636917381,0.565595636917381,0.565595636917381,0.5655956369173809,0.5655956369173809,0.5655956369173809,0.5655956369173809,0.5655956369173809,0.5655956369173808,0.5655956369173808,0.5655956369173808,0.5655956369173808,0.5655956369173808,0.5655956369173807,0.5655956369173807,0.5655956369173807,0.5655956369173807,0.5655956369173807,0.5655956369173806,0.5655956369173806,0.5655956369173806,0.5655956369173806,0.5655956369173806,0.5655956369173805,0.5655956369173805,0.5655956369173805,0.5655956369173805,0.5655956369173805,0.5655956369173804,0.5655956369173804,0.5655956369173804,0.5655956369173804,0.5655956369173804,0.5655956369173802,0.5655956369173802,0.5655956369173802,0.5655956369173802,0.5655956369173802,0.5655956369173801,0.5655956369173801,0.5655956369173801,0.5655956369173801,0.5655956369173801,0.56559563691738,0.56559563691738,0.56559563691738,0.56559563691738,0.56559563691738,0.5655956369173799,0.5655956369173799,0.5655956369173799,0.5655956369173799,0.5655956369173799,0.5655956369173799,0.5655956369173798,0.5655956369173798,0.5655956369173798,0.5655956369173798,0.5655956369173798,0.5655956369173797,0.5655956369173797,0.5655956369173797,0.5655956369173797,0.5655956369173797,0.5655956369173796,0.5655956369173796,0.5655956369173796,0.5655956369173796,0.5655956369173796,0.5655956369173795,0.5655956369173795,0.5655956369173795,0.5655956369173795,0.5655956369173795,0.5655956369173795,0.5655956369173794,0.5655956369173794,0.5655956369173794,0.5655956369173794,0.5655956369173794,0.5655956369173792,0.5655956369173792,0.5655956369173792,0.5655956369173792,0.5655956369173792,0.5655956369173792,0.5655956369173791,0.5655956369173791,0.5655956369173791,0.5655956369173791,0.5655956369173791,0.565595636917379,0.565595636917379,0.565595636917379,0.565595636917379,0.565595636917379,0.565595636917379,0.5655956369173789,0.5655956369173789,0.5655956369173789,0.5655956369173789,0.5655956369173789,0.5655956369173788,0.5655956369173788,0.5655956369173788,0.5655956369173788,0.5655956369173788,0.5655956369173788,0.5655956369173787,0.5655956369173787,0.5655956369173787,0.5655956369173787,0.5655956369173787,0.5655956369173787,0.5655956369173786,0.5655956369173786,0.5655956369173786,0.5655956369173786,0.5655956369173786,0.5655956369173785,0.5655956369173785,0.5655956369173785,0.5655956369173785,0.5655956369173785,0.5655956369173785,0.5655956369173784,0.5655956369173784,0.5655956369173784,0.5655956369173784,0.5655956369173784,0.5655956369173784,0.5655956369173782,0.5655956369173782,0.5655956369173782,0.5655956369173782,0.5655956369173782,0.5655956369173782,0.5655956369173781,0.5655956369173781,0.5655956369173781,0.5655956369173781,0.5655956369173781,0.5655956369173781,0.565595636917378,0.565595636917378,0.565595636917378,0.565595636917378,0.565595636917378,0.565595636917378,0.5655956369173779,0.5655956369173779,0.5655956369173779,0.5655956369173779,0.5655956369173779,0.5655956369173779,0.5655956369173778,0.5655956369173778,0.5655956369173778,0.5655956369173778,0.5655956369173778,0.5655956369173778,0.5655956369173777,0.5655956369173777,0.5655956369173777,0.5655956369173777,0.5655956369173777,0.5655956369173777,0.5655956369173776,0.5655956369173776,0.5655956369173776,0.5655956369173776,0.5655956369173776,0.5655956369173776,0.5655956369173775,0.5655956369173775,0.5655956369173775,0.5655956369173775,0.5655956369173775,0.5655956369173775,0.5655956369173774,0.5655956369173774,0.5655956369173774,0.5655956369173774,0.5655956369173774,0.5655956369173774,0.5655956369173772,0.5655956369173772,0.5655956369173772,0.5655956369173772,0.5655956369173772,0.5655956369173772,0.5655956369173772,0.5655956369173771,0.5655956369173771,0.5655956369173771,0.5655956369173771,0.5655956369173771,0.5655956369173771,0.565595636917377,0.565595636917377,0.565595636917377,0.565595636917377,0.565595636917377,0.565595636917377,0.5655956369173769,0.5655956369173769,0.5655956369173769,0.5655956369173769,0.5655956369173769,0.5655956369173769,0.5655956369173769,0.5655956369173768,0.5655956369173768,0.5655956369173768,0.5655956369173768,0.5655956369173768,0.5655956369173768,0.5655956369173767,0.5655956369173767,0.5655956369173767,0.5655956369173767,0.5655956369173767,0.5655956369173767,0.5655956369173767,0.5655956369173766,0.5655956369173766,0.5655956369173766,0.5655956369173766,0.5655956369173766,0.5655956369173766,0.5655956369173766,0.5655956369173765,0.5655956369173765,0.5655956369173765,0.5655956369173765,0.5655956369173765,0.5655956369173765,0.5655956369173764,0.5655956369173764,0.5655956369173764,0.5655956369173764,0.5655956369173764,0.5655956369173764,0.5655956369173764,0.5655956369173762,0.5655956369173762,0.5655956369173762,0.5655956369173762,0.5655956369173762,0.5655956369173762,0.5655956369173762,0.5655956369173761,0.5655956369173761,0.5655956369173761,0.5655956369173761,0.5655956369173761,0.5655956369173761,0.5655956369173761,0.565595636917376,0.565595636917376,0.565595636917376,0.565595636917376,0.565595636917376,0.565595636917376,0.565595636917376,0.5655956369173759,0.5655956369173759,0.5655956369173759,0.5655956369173759,0.5655956369173759,0.5655956369173759,0.5655956369173759,0.5655956369173758,0.5655956369173758,0.5655956369173758,0.5655956369173758,0.5655956369173758,0.5655956369173758,0.5655956369173758,0.5655956369173757,0.5655956369173757,0.5655956369173757,0.5655956369173757,0.5655956369173757,0.5655956369173757,0.5655956369173757,0.5655956369173756,0.5655956369173756,0.5655956369173756,0.5655956369173756,0.5655956369173756,0.5655956369173756,0.5655956369173756,0.5655956369173755,0.5655956369173755,0.5655956369173755,0.5655956369173755,0.5655956369173755,0.5655956369173755,0.5655956369173755,0.5655956369173754,0.5655956369173754,0.5655956369173754,0.5655956369173754,0.5655956369173754,0.5655956369173754,0.5655956369173754,0.5655956369173754,0.5655956369173752,0.5655956369173752,0.5655956369173752,0.5655956369173752,0.5655956369173752,0.5655956369173752,0.5655956369173752,0.5655956369173751,0.5655956369173751,0.5655956369173751,0.5655956369173751,0.5655956369173751,0.5655956369173751,0.5655956369173751,0.565595636917375,0.565595636917375,0.565595636917375,0.565595636917375,0.565595636917375,0.565595636917375,0.565595636917375,0.565595636917375,0.5655956369173749,0.5655956369173749,0.5655956369173749,0.5655956369173749,0.5655956369173749,0.5655956369173749,0.5655956369173749,0.5655956369173749,0.5655956369173748,0.5655956369173748,0.5655956369173748,0.5655956369173748,0.5655956369173748,0.5655956369173748,0.5655956369173748,0.5655956369173747,0.5655956369173747,0.5655956369173747,0.5655956369173747,0.5655956369173747,0.5655956369173747,0.5655956369173747,0.5655956369173747,0.5655956369173746,0.5655956369173746,0.5655956369173746,0.5655956369173746,0.5655956369173746,0.5655956369173746,0.5655956369173746,0.5655956369173746,0.5655956369173745,0.5655956369173745,0.5655956369173745,0.5655956369173745,0.5655956369173745,0.5655956369173745,0.5655956369173745,0.5655956369173745,0.5655956369173744,0.5655956369173744,0.5655956369173744,0.5655956369173744,0.5655956369173744,0.5655956369173744,0.5655956369173744,0.5655956369173744,0.5655956369173742,0.5655956369173742,0.5655956369173742,0.5655956369173742,0.5655956369173742,0.5655956369173742,0.5655956369173742,0.5655956369173742,0.5655956369173741,0.5655956369173741,0.5655956369173741,0.5655956369173741,0.5655956369173741,0.5655956369173741,0.5655956369173741,0.5655956369173741,0.565595636917374,0.565595636917374,0.565595636917374,0.565595636917374,0.565595636917374,0.565595636917374,0.565595636917374,0.565595636917374,0.5655956369173739,0.5655956369173739,0.5655956369173739,0.5655956369173739,0.5655956369173739,0.5655956369173739,0.5655956369173739,0.5655956369173739,0.5655956369173738,0.5655956369173738,0.5655956369173738,0.5655956369173738,0.5655956369173738,0.5655956369173738,0.5655956369173738,0.5655956369173738,0.5655956369173738,0.5655956369173737,0.5655956369173737,0.5655956369173737,0.5655956369173737,0.5655956369173737,0.5655956369173737,0.5655956369173737,0.5655956369173737,0.5655956369173736,0.5655956369173736,0.5655956369173736,0.5655956369173736,0.5655956369173736,0.5655956369173736,0.5655956369173736,0.5655956369173736,0.5655956369173736,0.5655956369173735,0.5655956369173735,0.5655956369173735,0.5655956369173735,0.5655956369173735,0.5655956369173735,0.5655956369173735,0.5655956369173735,0.5655956369173734,0.5655956369173734,0.5655956369173734,0.5655956369173734,0.5655956369173734,0.5655956369173734,0.5655956369173734,0.5655956369173734,0.5655956369173734,0.5655956369173732,0.5655956369173732,0.5655956369173732,0.5655956369173732,0.5655956369173732,0.5655956369173732,0.5655956369173732,0.5655956369173732,0.5655956369173732,0.5655956369173731,0.5655956369173731,0.5655956369173731,0.5655956369173731,0.5655956369173731,0.5655956369173731,0.5655956369173731,0.5655956369173731,0.565595636917373,0.565595636917373,0.565595636917373,0.565595636917373,0.565595636917373,0.565595636917373,0.565595636917373,0.565595636917373,0.565595636917373,0.5655956369173729,0.5655956369173729,0.5655956369173729,0.5655956369173729,0.5655956369173729,0.5655956369173729,0.5655956369173729,0.5655956369173729,0.5655956369173729,0.5655956369173728,0.5655956369173728,0.5655956369173728,0.5655956369173728,0.5655956369173728,0.5655956369173728,0.5655956369173728
