,0,1,2,3,4,5,6,7,8,9,10,11,12,13,14,15,16,17,18,19,20,21,22,23,24,25,26,27,28,29,30,31,32,33,34,35,36,37,38,39,40,41,42,43,44,45,46,47,48,49,50,51,52,53,54,55,56,57,58,59,60,61,62,63,64,65,66,67,68,69,70,71,72,73,74,75,76,77,78,79,80,81,82,83,84,85,86,87,88,89,90,91,92,93,94,95,96,97,98,99,100,101,102,103,104,105,106,107,108,109,110,111,112,113,114,115,116,117,118,119,120,121,122,123,124,125,126,127,128,129,130,131,132,133,134,135,136,137,138,139,140,141,142,143,144,145,146,147,148,149,150,151,152,153,154,155,156,157,158,159,160,161,162,163,164,165,166,167,168,169,170,171,172,173,174,175,176,177,178,179,180,181,182,183,184,185,186,187,188,189,190,191,192,193,194,195,196,197,198,199,200,201,202,203,204,205,206,207,208,209,210,211,212,213,214,215,216,217,218,219,220,221,222,223,224,225,226,227,228,229,230,231,232,233,234,235,236,237,238,239,240,241,242,243,244,245,246,247,248,249,250,251,252,253,254,255,256,257,258,259,260,261,262,263,264,265,266,267,268,269,270,271,272,273,274,275,276,277,278,279,280,281,282,283,284,285,286,287,288,289,290,291,292,293,294,295,296,297,298,299,300,301,302,303,304,305,306,307,308,309,310,311,312,313,314,315,316,317,318,319,320,321,322,323,324,325,326,327,328,329,330,331,332,333,334,335,336,337,338,339,340,341,342,343,344,345,346,347,348,349,350,351,352,353,354,355,356,357,358,359,360,361,362,363,364,365,366,367,368,369,370,371,372,373,374,375,376,377,378,379,380,381,382,383,384,385,386,387,388,389,390,391,392,393,394,395,396,397,398,399,400,401,402,403,404,405,406,407,408,409,410,411,412,413,414,415,416,417,418,419,420,421,422,423,424,425,426,427,428,429,430,431,432,433,434,435,436,437,438,439,440,441,442,443,444,445,446,447,448,449,450,451,452,453,454,455,456,457,458,459,460,461,462,463,464,465,466,467,468,469,470,471,472,473,474,475,476,477,478,479,480,481,482,483,484,485,486,487,488,489,490,491,492,493,494,495,496,497,498,499,500,501,502,503,504,505,506,507,508,509,510,511,512,513,514,515,516,517,518,519,520,521,522,523,524,525,526,527,528,529,530,531,532,533,534,535,536,537,538,539,540,541,542,543,544,545,546,547,548,549,550,551,552,553,554,555,556,557,558,559,560,561,562,563,564,565,566,567,568,569,570,571,572,573,574,575,576,577,578,579,580,581,582,583,584,585,586,587,588,589,590,591,592,593,594,595,596,597,598,599,600,601,602,603,604,605,606,607,608,609,610,611,612,613,614,615,616,617,618,619,620,621,622,623,624,625,626,627,628,629,630,631,632,633,634,635,636,637,638,639,640,641,642,643,644,645,646,647,648,649,650,651,652,653,654,655,656,657,658,659,660,661,662,663,664,665,666,667,668,669,670,671,672,673,674,675,676,677,678,679,680,681,682,683,684,685,686,687,688,689,690,691,692,693,694,695,696,697,698,699,700,701,702,703,704,705,706,707,708,709,710,711,712,713,714,715,716,717,718,719,720,721,722,723,724,725,726,727,728,729,730,731,732,733,734,735,736,737,738,739,740,741,742,743,744,745,746,747,748,749,750,751,752,753,754,755,756,757,758,759,760,761,762,763,764,765,766,767,768,769,770,771,772,773,774,775,776,777,778,779,780,781,782,783,784,785,786,787,788,789,790,791,792,793,794,795,796,797,798,799,800,801,802,803,804,805,806,807,808,809,810,811,812,813,814,815,816,817,818,819,820,821,822,823,824,825,826,827,828,829,830,831,832,833,834,835,836,837,838,839,840,841,842,843,844,845,846,847,848,849,850,851,852,853,854,855,856,857,858,859,860,861,862,863,864,865,866,867,868,869,870,871,872,873,874,875,876,877,878,879,880,881,882,883,884,885,886,887,888,889,890,891,892,893,894,895,896,897,898,899,900,901,902,903,904,905,906,907,908,909,910,911,912,913,914,915,916,917,918,919,920,921,922,923,924,925,926,927,928,929,930,931,932,933,934,935,936,937,938,939,940,941,942,943,944,945,946,947,948,949,950,951,952,953,954,955,956,957,958,959,960,961,962,963,964,965,966,967,968,969,970,971,972,973,974,975,976,977,978,979,980,981,982,983,984,985,986,987,988,989,990,991,992,993,994,995,996,997,998,999,1000,1001,1002,1003,1004,1005
0,-2235.7883905146764,-2041.2625927627887,-1980.5138494534438,-2230.6086346304937,-2142.8469828860293,-2030.7628590443364,-1753.0156580920907,-1824.2320608443338,-2079.0473225475043,-2276.68050610697,-1786.463016399061,-1861.4503134598294,-2151.241991049765,-2019.113388609614,-1873.0252947366278,-2081.2633388513555,-2033.8077254450495,-2136.4467283993504,-2083.898976405978,-1908.0436243287859,-2042.8429482648298,-2206.6629264550224,-2059.879628165329,-1721.5957174695375,-1919.9510837750684,-2238.511364685232,-2236.2294465010714,-1980.885048262449,-1994.239459497241,-1840.281302843565,-2226.572041572894,-2095.006257483073,-1986.8965424409519,-2169.5725518106096,-2193.980586546389,-2073.824981148697,-2046.2053459940591,-2047.136665178958,-2097.030333780838,-2088.99325469296,-1921.8073418241922,-1969.0180208891095,-2103.9754063953073,-2231.094068641586,-2082.45421153432,-1923.3837510407711,-2076.258525015154,-2089.6076504273474,-2073.0644852411415,-1971.5318137150723,-2004.2150392994156,-2278.4873079261106,-2084.1865176663755,-2038.4150220623712,-2185.5169000241453,-2113.519402253033,-2134.7014351550206,-2146.155110785427,-2079.579004223531,-1978.2933453425314,-1816.6333506857497,-2137.108007197302,-2049.5665629548807,-2016.8767724908218,-1882.5204864240586,-1893.729049702113,-2111.242034211466,-1987.9730426485069,-1915.9654542215178,-1961.3722021964115,-2036.999990212008,-2073.121359053428,-1965.0626587999097,-1970.6952644249031,-2076.423531860104,-2160.640012367343,-1970.112829255462,-1906.7346240178088,-1961.0174964791145,-1844.9816371087556,-1917.6247249359694,-1862.5875928169326,-2032.0313172490162,-2181.470154746628,-1917.4367409425856,-2043.9855081831022,-1993.4823600994914,-2014.814672679083,-2063.426740192495,-2257.560502326493,-1870.5227979965593,-2022.9526818147256,-1978.1696280645497,-2099.5051719603325,-1700.4820534881594,-1916.0827047415585,-1921.0254256396715,-1976.933589019715,-2371.572641332532,-1903.4016191929843,-2049.4939266297793,-1941.9296284604186,-2071.7493859205215,-2138.429176375262,-2076.4371057482595,-1961.9348264530902,-2031.33924366455,-2073.639426331036,-1993.0977563174242,-1852.5807383871052,-1792.5246455508673,-2025.0166621811845,-2010.1220651729705,-1973.16609452212,-1971.059893907096,-2113.330933612607,-2227.183933328681,-2080.066137027962,-1991.580544646776,-2094.174057960608,-2062.066945203866,-2024.342301329602,-1950.9671915847182,-2073.414700295226,-2080.0211838645896,-1967.9239949466287,-1968.8591459838872,-1955.9236126745752,-1820.970799870076,-1895.7233296691993,-1781.6888680388574,-1922.4462678583157,-2041.9700520098384,-1880.3221823094566,-1862.0549811701374,-1818.2175037776724,-2099.690555467348,-1941.1628241247001,-1882.8516434650012,-1994.7541694519114,-1824.1256173458144,-2063.977330144418,-1914.3266606965376,-1902.2174394740925,-2080.4038294462516,-1973.4221023054902,-1973.5992886970262,-1954.2992464335696,-2043.7907615947172,-2050.545670664097,-2321.709614872949,-1965.5852530980485,-2279.6370911513723,-1981.757777846133,-2045.9108617878587,-1891.094953159973,-1981.7013084815633,-1862.289989776532,-2011.2268047944067,-1806.356320680563,-1702.8927341000895,-2104.8706601156437,-2061.1071407366326,-1856.1101774046397,-1860.1763393884078,-2113.8696379645535,-2051.197277286708,-1932.0931117014081,-1997.7178828563844,-2024.5007350552557,-2248.3167463329246,-1979.2636940499983,-2072.045985560385,-1962.301921690097,-1947.5533217871314,-2004.7712471069906,-1937.407151906104,-2035.0887191471884,-2041.4659476783645,-1924.9324693903757,-1816.2821961197296,-2178.0745948412264,-2022.9755430724147,-1944.5899368121084,-2063.400967249625,-2063.512641150925,-2012.3822840955613,-1947.0387828575238,-1944.6698060585097,-2063.838308502349,-2019.633598489637,-1925.8805141286434,-1871.923947645986,-2063.2807431450656,-2193.042744245448,-1965.0908206142014,-1935.4149498329405,-2188.0283637015673,-2135.2694370292847,-1830.5141132850158,-1916.6955146013786,-2062.2343050539166,-2019.309048542367,-1903.082114665239,-1939.2205274310722,-2000.8538651860235,-2128.429384235118,-1858.5371076833778,-1858.6238780267722,-2106.8843453503896,-2149.528727563644,-1893.472461007978,-1935.6545655357465,-2140.925512262941,-2080.257739688079,-2013.8349484670225,-1948.6868391031874,-2153.8890736744947,-2157.8560924817775,-1972.7576046187141,-1868.965698476508,-2169.3649227640917,-2149.7452965402504,-1968.0436425255089,-2006.2167261960003,-2004.453507121742,-1963.3310069835761,-2064.1713296286152,-2023.5343021081494,-2032.0024499072158,-1835.5881574837963,-1916.453742549508,-2180.070860577663,-2045.223009024394,-1893.9396939271076,-1921.9953615277782,-2002.8279031997567,-2096.5987157731756,-1889.1913198474858,-1916.5177270113995,-2083.169509785767,-2223.729229311337,-1840.08762655789,-2000.8458417361678,-1841.018929263903,-2036.6380128619014,-1929.5660618479833,-1928.9363952331153,-2152.9059483558126,-1941.1036376145241,-2098.827087455613,-1947.177633100402,-1919.5206920635517,-1863.915148807455,-1920.3067866691902,-2101.458637304408,-2060.1492221729422,-1739.9432346245708,-1870.4779590931091,-1934.22186458797,-2046.4365625709365,-1881.1787346778972,-1936.7795140282105,-2035.3219036001374,-2051.1398878238697,-1847.531691255221,-1924.528376585139,-2019.2257216179676,-1975.5045294398517,-1684.1534262129844,-1784.2721345866619,-1912.1399640844568,-1918.4749513249137,-1977.8227402556504,-1870.3665795509482,-1901.2460080675273,-1842.0072987591197,-2031.2534028955924,-1917.0072366299369,-1963.091437864745,-2105.5678108211173,-1717.6145576122615,-1851.778365810868,-1998.0182015316202,-1882.086422801265,-1626.0768182206168,-1914.30581439955,-2254.7300312998636,-2051.065193861895,-2171.436382791924,-2263.497731213963,-2082.147638653443,-2094.51136509319,-1983.995565124738,-2055.20479853076,-2042.8762663804398,-2018.7643601072443,-2182.575823717105,-2298.07085793757,-2090.6755818851157,-2075.181503470785,-2024.4682275832956,-2136.5488628806893,-2054.8530183214866,-2034.3061711239334,-2085.6745590138744,-2223.624623729683,-2040.2010559861096,-2117.731488383325,-2167.5711726803443,-2077.085752778626,-2030.7641252664962,-2137.019944791066,-2145.671766337757,-1972.3207621619163,-1911.2805957809028,-2060.153273450395,-2044.4081633527019,-2018.2523624905803,-1976.821843054084,-1929.7163304315343,-2153.1108268796843,-2125.448495322464,-2029.1361014245183,-2101.6450882323393,-2041.91299082256,-2091.7570068465643,-2097.430642571651,-1891.525270162876,-2062.8148262435634,-1991.9992683615874,-1836.5010219770652,-1897.090859927378,-2056.1040699833507,-2161.6595260780045,-1805.4967980085223,-1775.0702813938194,-1979.1328119458572,-1916.3791245434422,-1866.5179830070247,-1905.6078191215533,-1861.901723060436,-1937.131593590371,-2161.4707016083908,-2122.987512458737,-1784.9184438829368,-1926.2822774631618,-1894.1943859506482,-2175.781483381337,-2396.144097314954,-2185.6301412545986,-1698.43571162609,-1673.1272293468812,-1899.3749344544024,-1957.2470378599394,-1725.389486379758,-1759.1821252916852,-1870.5948080378232,-1924.5608951350703,-1820.2345145854208,-1887.5179530910555,-2019.5769104034014,-1885.0326631285166,-1678.0250318375442,-1886.3064118471104,-1911.5770604764984,-1634.8391438206413,-1570.2548864071666,-1699.9199727050404,-1855.2881718118697,-1734.715854271336,-1839.6831884793132,-1670.092374368018,-1686.324600727542,-1651.883811072205,-1931.5845671327359,-1970.2407710855687,-1676.3654804741866,-1696.3332099181664,-1814.880305606311,-1873.2169900677775,-1694.6377369002,-1846.3403573367211,-1824.6077986041425,-2378.655090102991,-1867.3895767845818,-1766.622192800804,-1749.2479516114752,-1952.9922928775966,-1968.9707571514039,-1661.8043438168936,-1859.3665327582548,-1941.1715605422037,-1864.0246811265747,-1704.930670539247,-1841.655840714012,-1933.551476774107,-1839.0699436784153,-1743.3722930457875,-1776.200493299555,-2000.8431167027618,-1963.4300103047547,-1847.9578024039831,-1908.0135025932827,-1909.9239567574825,-1948.5667164679317,-1713.5691506091011,-1708.9795893284197,-1918.64713554042,-2053.6010397642704,-1731.3551597557907,-1803.6188437954725,-1733.497677453532,-2021.8259113245076,-2403.9898262520655,-1964.3642301648663,-1844.4172569405985,-1846.8721213709186,-1875.0854802446727,-1908.478042882289,-1690.9200262295299,-1709.042150704745,-1945.204714171032,-1952.1747844677707,-1781.4187182165617,-1886.5516653774307,-1925.1713360553617,-1934.9588903070958,-1988.1519465383456,-1990.7291672906133,-1980.9710512435495,-1816.0176722324024,-1702.0367542344688,-1921.1451346790393,-1829.1462150602863,-1799.929934532128,-1889.1970281278398,-1959.8704686401254,-2180.2449979348758,-1789.7901624703727,-1898.837913568424,-1822.2009833442337,-1769.3766484741996,-1873.3658054308623,-1701.746328000745,-1733.7789327736068,-1786.3621358739344,-1886.1635693575588,-1805.7008649301645,-1851.222085538614,-1993.325630864324,-1784.942387360683,-1903.591800177233,-1784.8580170239422,-1738.714660127697,-1944.02624753613,-1897.7697506213467,-1915.478703703368,-1508.4485157756512,-1659.5173822206254,-1883.646570981856,-1837.29632758522,-1690.9247782962516,-1824.322153193439,-1813.8979189799143,-1655.35373696601,-1753.561127865407,-1879.8399085199403,-1908.2909660203766,-1850.2026465591023,-1661.3320025597443,-1842.9481282619097,-1807.1549250021744,-1639.0076387449556,-1500.9420454499416,-1579.690892738744,-1910.3468727740717,-1527.8512514940373,-1668.7025165471157,-1809.280802068995,-1882.4316376809834,-1728.0289123211362,-1581.8669251595188,-1735.6919841750012,-1845.9851257911282,-1755.093995753366,-1721.6518625873587,-1554.1539296389594,-1676.547496999865,-1776.9913764545577,-1686.1403853361585,-1356.3732538184167,-1403.749834775074,-1476.5433691818325,-1569.2971126690104,-1523.0901506688015,-1417.300086743282,-1551.830451796703,-1655.7305949428483,-1595.8019053891385,-1665.5365277823746,-1545.6606222958833,-1649.198403474818,-1764.7408190660192,-1690.035793058642,-1994.7948112197919,-1812.0414331041568,-1855.0916855546943,-1751.0046473185246,-1848.195750950607,-1864.168456926167,-1694.2354272321707,-1559.0015419502352,-1702.553587378461,-1772.821304927226,-1733.9972646236383,-1698.3343249459472,-1851.4140473558052,-1462.0652046398861,-1607.1552647604617,-1858.5720315267426,-1670.7425822911116,-1858.8956475441214,-1773.289868587313,-1847.6517290947168,-1899.826461298936,-1825.7598669240972,-1903.2753909550956,-1578.7955263251147,-1558.1633336114749,-1845.720443460626,-1888.36991058361,-2300.272969985988,-1638.3294945296882,-1675.1371273620114,-2059.4966392692486,-1745.870868292249,-1853.1754752092356,-1665.8040490571361,-2299.066057560771,-1995.6736949773447,-1878.560651889208,-1702.6925456233446,-2113.6605921495143,-2160.2245749218205,-2058.8077421308544,-2048.4616705530802,-2007.3384362513657,-2179.2992358112147,-2131.814064221289,-2095.7434282900745,-2076.760488054891,-2139.152329745382,-1940.2055192596276,-2045.3755038041572,-2091.279481548498,-1976.6483815481813,-1763.7134812788504,-1949.3187495175139,-2128.4232007980268,-2140.3798136753876,-2014.393217179775,-1965.9881982555523,-2021.1944734533345,-1757.7110880528132,-1880.42498435013,-1950.6531586375195,-1913.6619046408873,-1926.107025160807,-1865.179191104451,-1867.8584743553106,-1838.5147491999835,-1836.64648319823,-1898.0530473981876,-2003.806791723839,-1842.3093676470348,-1625.455290261316,-1731.8035676575391,-1675.3924754900459,-2011.1745280385308,-1555.9432409156798,-1797.0898940537452,-1717.871449437875,-1899.6841458738265,-1746.6882671829355,-1848.916915706396,-1889.9846098904084,-1785.1553049835281,-1736.0694270482772,-1814.3994113289573,-2331.2143115333834,-1956.8704224936955,-1937.1108139733358,-2065.793140370757,-2218.5218512542206,-1981.4042964200892,-1773.3514298540872,-1917.3621301622372,-1773.1484299559943,-1783.3304873270736,-1825.1988033819905,-2100.207935375331,-2204.7857004728285,-2068.675462684505,-1947.9060953622134,-2139.571196648681,-2037.5335386656316,-1868.6033689653875,-1746.6104008776376,-1996.3808233215366,-1923.0219838190806,-1936.5452341796629,-1801.7202978776872,-1746.9544279964002,-1971.8979417832359,-2076.119276161236,-1890.6869029083607,-2039.3222336260203,-1877.1489608020167,-1685.6977349052247,-1999.9436979325494,-1954.6341414286273,-1830.4135929976794,-1959.9296547287738,-1956.422463349997,-1933.157083208158,-1771.0828169560325,-1734.253446139471,-1914.3691491698105,-1705.3042269204361,-1946.1793625046466,-1933.2932346327477,-1978.263691557695,-2054.221173367019,-1592.1509195794608,-1784.2123102678215,-1848.0181425224903,-1703.7131766680818,-1762.778172082251,-2035.4552003609822,-1985.0988693273753,-1972.4776933037774,-1833.6609961386878,-1761.4407456166596,-1707.7674946776542,-2008.3456588960871,-1802.4633944656227,-1834.1016498034926,-1939.0394273514323,-1891.1320591495903,-1820.2071950963493,-1577.8737128163589,-1736.2918670412214,-1766.099978098609,-1729.3434705950751,-1909.8867205145007,-1817.092554003724,-1815.4474920370558,-1893.4588278028777,-1432.1230902054524,-1593.2244651793342,-1740.3363905937222,-1769.3419406325447,-1578.4953223816988,-1614.9094977948453,-1676.3245402879395,-1673.4895572893508,-1596.4943273869876,-1609.306358796658,-1817.1815920003864,-1866.1486506564856,-2369.206079310277,-1610.978680135795,-1728.2002640420865,-1841.8052983320815,-1903.5091672960316,-1822.661330338515,-1393.8287929496562,-1726.3242617201217,-1877.0305976185546,-1991.9130032656717,-1838.0700101848104,-1624.5580530906368,-2332.5181347520593,-1978.6497222937267,-2049.743485882464,-1895.9891329848479,-1770.930420753956,-1743.9844112099127,-1903.9421601886331,-1954.7080102262216,-1839.883956705154,-1773.3775675616757,-1732.8727064624397,-1853.1201981935128,-1910.7473697987068,-1761.9617675133306,-1889.1623306133786,-2127.96527873098,-2290.219760423503,-2031.1845104575073,-2076.6470249814884,-1983.0174464097447,-2018.178307879678,-1931.762013444048,-2094.5548036654363,-2110.6974671799567,-1972.3750434506726,-2091.2494057912163,-1995.4004270969963,-2092.1153266525894,-2121.8608321020088,-1894.6671301712386,-1963.3910308561942,-2027.4234628183765,-1976.1051769662854,-1952.911473824032,-1889.1924141408585,-1907.6253182605747,-1947.5377106357962,-1826.434113438477,-1902.6323732140959,-2054.555046806396,-2038.1620004314277,-1871.9470609753594,-1650.2790885457973,-1839.7325429483064,-1954.7761184618414,-1904.866126992794,-1857.4389682010194,-2004.3607966727513,-2341.865101064359,-1843.3897734861187,-1866.9803991528977,-1896.1918801978927,-1923.1043233693601,-1744.2088022415214,-1608.6792110312265,-1886.2735020019743,-1838.0955056425335,-1908.0598686712242,-1930.196829088631,-1748.472258876449,-1905.9127638461493,-1895.5713605665767,-1837.5112732628315,-1754.1900242622187,-2220.4832605429947,-2318.668963404813,-1837.760290718349,-1931.4334707334062,-2033.9704690294923,-1864.1757041412648,-1756.8170411892966,-1891.6105726652495,-1928.218851255008,-1918.4830046428185,-1799.2861679384182,-1814.216357184234,-1986.8450629776314,-1970.2864544162674,-1840.9494783522246,-1839.757843645629,-1906.6507490718411,-1879.4578110579605,-1952.808562084992,-1851.0550708597225,-1959.2680774896805,-1911.5385230646227,-1923.0240865378623,-2051.0180092034757,-2218.7500790575473,-1918.9099585416784,-1872.9302887818274,-2073.5923265082342,-1832.7599707017794,-1889.7986467568562,-1863.3939420027011,-1878.2916596241191,-1933.6637187199522,-1697.1886350825168,-2128.571841385905,-1921.5913369058806,-1770.8548348701383,-1868.022465583666,-1936.023487345927,-1813.8746558487255,-1857.6585831796804,-2007.9809136861948,-1767.615499902362,-1964.8862627142923,-1421.4919139368174,-1827.3922332362422,-1877.7236025209338,-1808.3927896155508,-1552.2201326593859,-1633.6300116642722,-1994.1164890060656,-1988.1146131437347,-1444.5178445139236,-1835.4950385085742,-1758.6242465231242,-1868.8942292582844,-1845.8287903972762,-1765.0160522409328,-1977.5408695954707,-1838.2732473332935,-1917.9512047523995,-2037.5310428014902,-1910.3463197719007,-1713.1522100706673,-1847.3455940803392,-1804.8329287492797,-1812.0996590119769,-1952.634251971055,-1821.5328105417252,-1953.446031392264,-1548.897417443238,-1686.5333296539031,-1917.7124237248718,-1760.2683029605487,-1689.8478714057603,-1701.6572216598959,-1817.4030552006482,-1681.6426900636206,-1873.7746274020683,-2019.8480024870817,-1748.702757623373,-2255.263284302577,-1657.1565026781664,-1922.4672511587908,-1995.0587717840467,-2126.448076536432,-1859.8915698467345,-1563.084913419667,-1817.9489893582465,-1823.1769560531495,-1985.1526382765187,-1904.5525755601848,-1808.8900271274172,-1794.8365035211634,-1981.1487841198325,-1915.7320574412327,-1861.8229652939985,-1660.2128440764839,-1853.7924775289734,-2071.0776168074926,-1821.7795570889866,-1673.0225648528726,-1895.0843618378306,-1531.9771489144746,-1394.4205587855909,-1548.880816483025,-1867.0028054958043,-1845.03261500102,-1721.6840402383482,-1508.2982610615063,-1662.7520796814758,-1962.2311058864918,-2143.8741612960334,-1741.522279049537,-1640.4046183326468,-1576.0755192795978,-1778.1259395857676,-2256.0721017965284,-2173.243495470505,-1974.7437817904602,-1868.4062678886496,-1669.042450318971,-1810.8333034838877,-2070.285582283514,-1949.4125266672702,-2010.2201965921877,-1835.7891751868742,-1863.6955318675414,-1810.9615230693964,-1883.499776405926,-1934.4674780087757,-2125.651752748281,-2079.119211801257,-1980.6210303533896,-1995.9761502283307,-2060.23809574218,-2004.0708768736763,-1977.0638340802302,-2141.7350898210916,-2198.0298580829817,-1765.32850184602,-2031.13467345543,-1856.358243627188,-1656.3700027959744,-1694.407279745813,-1896.4848257594042,-2414.1506731752297,-1891.714606246231,-1721.2321936359024,-1651.716786236786,-1750.2616870688228,-1971.4469437764285,-2219.765483028357,-1842.2672449740257,-1792.9935529074432,-1604.7291674325897,-1738.6808086486512,-1872.4941693288158,-2047.065605838289,-1922.4770742309431,-1835.888326747076,-1689.751480683731,-1799.2810572363012,-1629.4730669711735,-2017.1921560489056,-2339.0885728470716,-1729.240018628177,-1896.9948000920717,-1780.9641342068114,-1805.1444591646182,-1894.8220875998368,-1821.2960169134387,-1883.910086136209,-1791.5769989380126,-1562.0764869119325,-1710.612755897421,-1910.5819422695595,-2323.7679019896664,-1967.0811901457141,-1750.2336024236129,-1377.7451699200026,-1675.7072524248906,-1723.479333460725,-1874.425726377119,-1696.1403090170434,-1859.0369372534644,-1771.8988381659663,-2123.7708337468703,-1778.5141856975058,-1802.5535186474185,-1828.8813499032767,-1962.9330329169984,-1970.5313179793377,-1858.6568937390707,-1747.6397142382282,-1845.8014152464602,-1927.4750627894105,-1717.2271024722165,-1770.7014088518486,-1872.4166796377501,-1895.3580534869577,-1829.3580158668615,-3715.515839259848,-2078.018997895562,-2061.579728906963,-1860.7672792001322,-1751.8619645338897,-1914.8796787227166,-1951.4515213021023,-1924.0157572171474,-1957.5518118736627,-1893.303752998871,-1505.1209324889724,-1693.4108513329413,-1949.205499487856,-1863.2776470859224,-1774.9306536106724,-1943.9454823816366,-2046.312752380292,-1971.7242669620648,-1928.7328778563328,-1662.8848587938971,-1677.524897659185,-1822.5099984728315,-2864.0629182797747,-1864.4829601015354,-1957.9449457255018,-1762.0695043176402,-1808.9298645971205,-1826.7343696659195,-1968.3279602037617,-1640.9839522598147,-1769.9566851479356,-1750.6790119278292,-1621.382210076484,-1925.9179320792032,-2008.7704205476807,-1725.2559614826996,-1722.9300536502276,-1404.3451170458034,-1755.800255355951,-1713.247725763877,-1670.3527424687718,-1801.3326039760054,-2004.1643935000343,-1939.89123554504,-1763.485338473457,-1628.5742600910028,-1893.3545592591329,-1741.773180883533,-1692.039687939598,-1891.1051423871716,-1674.8094586080113,-1838.2396483312978,-1855.2001928968666,-2028.3002583763143,-1558.8629776176356,-1502.7875240820983,-1624.119817310528
1,359.39930738750235,359.39930820384956,359.399278773943,359.3993004468665,359.3992993380208,359.3992972390489,359.39928850785407,359.39926453474953,359.3993086563055,359.3993265295977,359.3992588025939,359.39931349608145,359.3993085964085,359.39931110160717,359.3992995776096,359.3993053795689,359.3993227718439,359.39930020060154,359.3993113448369,359.39928744342495,359.3993086345032,359.3993018639305,359.3993030869706,359.3992996348193,359.3992902574751,359.3993030882466,359.4000909206552,359.39932241867666,359.3993043077122,359.39929888622606,359.39968393781425,359.3992977086286,359.399299960993,359.3992978329123,359.3993115710486,359.39929743360324,359.39929263732336,359.3992980291699,359.39930069292467,359.3993037016529,359.39930603650174,359.39929431473314,359.39930064314774,359.399316723526,359.3992980567279,359.3992408857793,359.39931743203977,359.3993266388792,359.39929594107434,359.3994546759416,359.39931181136245,359.3992972681644,359.3992963988841,359.39932684283946,359.3993177489124,359.399293114722,359.399297402065,359.3993051677451,359.39930815291893,359.399305588719,359.39931369659087,359.3993019193071,359.39932172017177,359.39929881289714,359.3993010323611,359.39931228172463,359.39932375772446,359.3992709432945,359.39929989204995,359.3992935759679,359.39930102961085,359.399302011681,359.3992906943513,359.3992908641601,359.39931108317444,359.39930631116835,359.3993009860434,359.3992949949267,359.39929496630447,359.39928890362523,359.3992795421905,359.39931177804857,359.3993036676915,359.39929870884197,359.39930043306856,359.39946245420646,359.3993065697042,359.399307154493,359.39930412062364,359.3993040716089,359.3992999326601,359.3992994822383,359.39930430300893,359.39930713654144,359.399295864891,359.39929428571486,359.39930131489945,359.399314657843,359.39930153098686,359.39932248340824,359.39938555285977,359.3993013719107,359.3992972936264,359.39930347654985,359.3993118749362,359.39926702528413,359.399298164001,359.399305969326,359.3994394149563,359.3992981757384,359.3992897074901,359.39930383937843,359.39932500952466,359.3993021597378,359.3993075596698,359.3993014095439,359.39930306211085,359.3992981179825,359.39929774866744,359.39929975846724,359.39929860801686,359.39930100836233,359.3993211135348,359.3993016416915,359.39930278116435,359.39931534053983,359.3993116608036,359.3993085087381,359.3993037070595,359.3992985227488,359.3993092147039,359.3992869401232,359.39931019921306,359.3992914617669,359.399300871135,359.39920415384796,359.3993027638305,359.39932363399583,359.3993027427461,359.39930339087834,359.3992896053303,359.3992940358191,359.39928763907676,359.39930349516436,359.39929882884144,359.39930234321787,359.39930856220957,359.39930220102843,359.39950117048693,359.39926005180797,359.3993006799133,359.3992992431232,359.3993013833587,359.3993112780673,359.3993023232945,359.3991189433996,359.3992950892172,359.3992964332091,359.39930130609457,359.39928729964276,359.39942559283674,359.39931644498404,359.3993000820265,359.3992746533514,359.39930654509465,359.3992973555206,359.3993017925464,359.39929974480833,359.39931652995455,359.39931653648847,359.39929893015926,359.3993027559904,359.3992732764677,359.3993048590124,359.39936422708905,359.39929540915097,359.39931041705444,359.3992986695695,359.3993081341393,359.39930116712276,359.39927763359947,359.3993156148617,359.39931626030415,359.3993160871317,359.3993192768645,359.3993158279377,359.39930243137803,359.39929721365513,359.3993149429928,359.39931615798463,359.3993229164151,359.39927685625105,359.39929757269675,359.3992874493332,359.3993139385143,359.399290642582,359.39930166235996,359.3993074867925,359.399285450867,359.3992991472066,359.3993034569758,359.3993011152691,359.3992987575212,359.39929738796985,359.39929853668144,359.39940825099944,359.3993047315192,359.399300445533,359.39930058956287,359.3993086299344,359.3993055844449,359.39929870585314,359.39930586998383,359.39930295385807,359.3993092884904,359.39930254330756,359.3993114608653,359.3992999415796,359.39930142085177,359.39930508663616,359.3992951891937,359.3993052940992,359.39930007141265,359.3992920858869,359.3993182821227,359.3993092224323,359.3993050411583,359.39945530471283,359.39930216702356,359.3993057443418,359.3993011693387,359.39930040132236,359.39930657825977,359.39929899837745,359.3992962206857,359.3993791502929,359.3992932076682,359.3993205108727,359.3992866208128,359.39929118912954,359.3993091118439,359.3993120051597,359.39928823017704,359.399308976306,359.39930374264605,359.39930096604934,359.39930395808335,359.39929954876993,359.3993014835663,359.3993162562331,359.3993078612556,359.39930202502495,359.399276980371,359.3993014298451,359.3992996500873,359.3993077262057,359.39930893479124,359.3992664536608,359.3992949646967,359.39922577925654,359.3993245978,359.3993009018271,359.39927677266377,359.39930661818386,359.39930216151816,359.399317957017,359.399199275769,359.39930296268847,359.39931097445304,359.3992978660534,359.39931595238187,359.39930138291885,359.3992970428229,359.39929708088613,359.3991720647169,359.39931558567326,359.39930562153046,359.39930330775115,359.3993063672999,359.39927967951917,359.39929734644346,359.3993092144906,359.39930926396426,359.3993126285321,359.3995990796085,359.39929308217353,359.3993023381546,359.3995541467621,359.3993133847039,359.3992979313493,359.3993032816812,359.3993168456485,359.3993063166237,359.39926481067954,359.399299419562,359.3993129992873,359.39930470356086,359.39929986621905,359.39930131792346,359.39930845239206,359.39955690599777,359.3993132672658,359.399302250711,359.39929873560516,359.3993002309599,359.39930344507684,359.39930228890876,359.3993245024839,359.3993039954078,359.3993013652186,359.39930938480074,359.39929648365427,359.3992901227378,359.39930316212633,359.39930197163704,359.3993073501568,359.3992981656936,359.3993077740624,359.3993021740264,359.39937316271806,359.3992993249537,359.39931159178605,359.399300033549,359.3993049707575,359.39929797345104,359.3993085010659,359.3992985888029,359.3993012809952,359.3992961570214,359.3993098198806,359.399321957684,359.3993005803409,359.399300373617,359.39930191903403,359.39930192159625,359.39930570319785,359.39931422666615,359.399314478454,359.3993099892373,359.3992990607096,359.3993991915598,359.3993183529095,359.3993051714562,359.3993035407117,359.3993014317645,359.3991383320672,359.39931316199966,359.3993069348259,359.3993115322474,359.3993028547853,359.39930800915306,359.3992843724712,359.3993998998834,359.39931571613414,359.3993267543677,359.39929689394694,359.3992973962795,359.39930299722397,359.39930321574275,359.3993028585486,359.3992840359526,359.3992875809945,359.39931223332735,359.399296077932,359.3993136566244,359.39930375257063,359.3993059581187,359.3993154977078,359.3993160446467,359.3993083340987,359.39932670493585,359.39928393219253,359.3993799788503,359.3992113921233,359.39930190088427,359.3993159712715,359.3993233109527,359.39943209804153,359.39930215753213,359.39930453600124,359.3993029268133,359.39930479947293,359.39930715439795,359.3993016914167,359.39930314758107,359.3993082626865,359.3992975063646,359.39931676729,359.3993062504955,359.39930302880947,359.39929699758267,359.39930431331703,359.3993017952601,359.39929932610386,359.39928375802634,359.3993078292466,359.399302579677,359.3993115600231,359.39929907814025,359.399295836435,359.39930610255624,359.3993039564512,359.3992962394799,359.3993012068453,359.3992548018332,359.39930875830254,359.3992995336208,359.3993018296618,359.39930196614176,359.3993059542806,359.3993060645553,359.39930056044284,359.3993040423828,359.39930792081566,359.39932374880067,359.39930294453427,359.3993139642225,359.3992929966397,359.3993010909738,359.39930509408083,359.39929841116515,359.3992236421465,359.3993034340231,359.3993030162898,359.39928076981727,359.3992954195961,359.3993075209887,359.39930038584964,359.39929703344046,359.39930322797477,359.39929970780986,359.3993017149025,359.3991814565386,359.3993107088794,359.3993067629941,359.39928319555185,359.3993106106196,359.3993219428261,359.3993084841774,359.39929275559587,359.39928330559775,359.3993071012072,359.39930337170915,359.3993050643571,359.3993107099767,359.39931000852846,359.39932671471024,359.39928795067186,359.3993039959968,359.39939849254523,359.3993056879106,359.39929915611447,359.3993186994005,359.39930071863154,359.39931179420984,359.39930127303927,359.3993010061272,359.39930302181995,359.3992997993142,359.39932270329706,359.39930643057255,359.3993127060861,359.39931657649873,359.3993005613807,359.3993092193734,359.39928814399883,359.3990119345211,359.3993008341043,359.39972807139486,359.39932101392804,359.3993928388319,359.39931118877934,359.3993151694438,359.3993014626338,359.39929882426424,359.39928690901104,359.3993054676711,359.3993165356093,359.39930479257794,359.39931473765864,359.3993163921245,359.3993056388005,359.39930221460895,359.39932174508357,359.39931718977766,359.39928280507496,359.39920941119476,359.399281262759,359.39937477014706,359.399292119339,359.399290159993,359.3993079599222,359.39927624135385,359.39929982051626,359.3993050579405,359.3993178028717,359.3993066424382,359.3993248403293,359.399301703554,359.3993117818824,359.3993025891516,359.3992970255743,359.399300613203,359.39932543793407,359.3993695169609,359.3993068922525,359.3992832581673,359.3992956363476,359.3993239262627,359.3993105012553,359.3993105301515,359.3992867600236,359.3992992281789,359.3993020323479,359.399399761045,359.39940349339645,359.39929703732804,359.3993095362882,359.39929642548054,359.39927630228647,359.39930678682464,359.39930226158407,359.39929913451317,359.39930554166625,359.3993055207692,359.399303188289,359.3992984576857,359.39930215683216,359.3993036354945,359.3992833486297,359.39930290762294,359.3992899086785,359.3993035157419,359.39931062186355,359.39932381889963,359.3993172618702,359.3993046239855,359.3993073642811,359.3993050155629,359.39931127872734,359.39930932792356,359.3993085079606,359.3992913899733,359.39931282144005,359.3993063490584,359.399304132283,359.39929835704186,359.3993021181484,359.39931421701056,359.39930533269956,359.39931401620703,359.3993042260033,359.399313876784,359.3993046661836,359.3992963180289,359.3992108786647,359.399302750288,359.3992991096279,359.3993056642371,359.3993047329327,359.3993032790383,359.39929868177364,359.3993112357733,359.3993060327191,359.39932401728385,359.399308446211,359.39930577578474,359.3993173575315,359.39929990868575,359.3993014781846,359.3993081871259,359.39930817115226,359.3993221532608,359.39938669667737,359.3993058341667,359.3993091329166,359.3992904762135,359.3992987854658,359.3993013113969,359.39930985840425,359.39930096976997,359.3992837517951,359.39930882880594,359.39930115298193,359.3993055341981,359.39931122893944,359.39931707750407,359.39930072762456,359.3993055163119,359.3992859947443,359.3993076702604,359.39930505760987,359.39929852472636,359.39931448994383,359.3993069695632,359.39930279153685,359.39929587301083,359.3993027771915,359.39932763808724,359.3992989374722,359.3993021594104,359.3993047133421,359.39931068179294,359.3992998359574,359.3993039691213,359.3993043543235,359.39930339287514,359.3993020445392,359.3993033865022,359.3993146409249,359.3993039983941,359.39954402180933,359.3993081286749,359.3993040516021,359.39930690396983,359.39930947215925,359.3993098751796,359.39930576939895,359.39930513721504,359.3993018374201,359.39933001637456,359.39930512207474,359.3993134307506,359.3993162243825,359.399304187617,359.3993040070367,359.39929187910326,359.39930029846215,359.39930817259886,359.39931001999656,359.39930029462107,359.39930925724076,359.3993060774157,359.39930465761734,359.3993184693266,359.39932437193966,359.39930384052013,359.39930528427493,359.39928611441394,359.3993093915546,359.3993040523237,359.39930585974673,359.39930845659063,359.3993230796155,359.3992507619817,359.3992984992971,359.3993252208523,359.3993067159923,359.3993037178346,359.39930940729766,359.39931131417086,359.3992945755629,359.3993047498726,359.39931775324516,359.3993042068691,359.3993107178147,359.3993088891759,359.39930422391245,359.3993019646296,359.3993130392353,359.39929036280773,359.399313190692,359.3993156144081,359.3992972777821,359.3990737679793,359.39932279332015,359.39930163871026,359.39929928196136,359.3992997451232,359.3994242848193,359.39930250334174,359.3993319448516,359.39931184504724,359.3992975708809,359.3993131818739,359.3993067459408,359.39931153492813,359.3993008670205,359.39932041355144,359.39930431132836,359.3993057656055,359.3993032633886,359.39927486601357,359.3993319455708,359.39930897961517,359.39930657489964,359.3993098961012,359.39930218604064,359.3993133278631,359.3993071922802,359.3993061374721,359.3993200931963,359.3993030006987,359.3994217604469,359.3993148819164,359.3993058096473,359.3993085946905,359.3993060964985,359.39930645513454,359.3993064094778,359.39931528138027,359.3993038582686,359.3992994628061,359.39930612733906,359.39930244955104,359.39930625461096,359.3993057375072,359.39929831932824,359.39930587433844,359.3993040364687,359.39932275760685,359.39930602746864,359.39929710963486,359.3993060413845,359.3993103920226,359.3993183531936,359.39931047991826,359.399310645314,359.39931590972293,359.3993055439404,359.39929906471156,359.3993021005654,359.3993084338694,359.399303856911,359.3993238354781,359.3993140339185,359.39930696602613,359.3993062675624,359.39930417214197,359.3993044350355,359.39930605193456,359.39932411223697,359.3993036954049,359.39931235963695,359.39931427645394,359.39930996370265,359.39931663977313,359.3993065360931,359.3992885707575,359.399389596994,359.39930756364015,359.3993106882964,359.399227244001,359.3993253130522,359.3993109633545,359.3993217123841,359.3993015411359,359.39931196048565,359.3993239599861,359.39932391947247,359.3993086402047,359.3993125730158,359.3993051935708,359.3992941872523,359.39930379334766,359.3993073487445,359.3993040444098,359.3993134142748,359.39930403447715,359.39930684885377,359.3993072725365,359.39930027974566,359.3993014957151,359.3993062044,359.3993064964247,359.39929584237353,359.39931556206494,359.39930591497955,359.3993052660055,359.39930940339906,359.39930345220415,359.3993089650949,359.3992939707082,359.39930994129617,359.39930506280797,359.39931886802685,359.39930118159583,359.39930449647363,359.399313369756,359.399326480466,359.3993098625242,359.3992785340221,359.3992999404964,359.3993215706754,359.3993052767598,359.3993936791587,359.39931075624514,359.3993183774496,359.3993090960481,359.3993231394341,359.39926595594676,359.39929917020186,359.39918701359977,359.3993070475173,359.39930532098055,359.39931964522634,359.39932072208495,359.3993040147015,359.39930967791724,359.39925428793947,359.39931234438495,359.3993161610221,359.39930805483675,359.39932203642127,359.39925509271325,359.39931130593163,359.39931405246057,359.39930718489035,359.3993133390906,359.3995160044576,359.3993154766741,359.3996560066182,359.3993044576822,359.39931663622747,359.39932309467423,359.3993948899829,359.39930901855746,359.39930255245673,359.3993040322955,359.3993081926159,359.3993094742042,359.39932269969177,359.3993062303817,359.3993147917405,359.3994964151908,359.3993034694581,359.3993055391853,359.3993242803365,359.39931489486656,359.3992935902287,359.3993073452991,359.39930784510625,359.3993065821699,359.39940597357713,359.39927278372204,359.3990051925279,359.3993047515366,359.3993103185509,359.39930506462207,359.39930793785055,359.3993201871377,359.399310044816,359.39937758587934,359.3993165641423,359.3992884711871,359.39930207843037,359.39931232525623,359.39930665714417,359.3993049025903,359.399316882737,359.39930084301534,359.3992656273837,359.399258757475,359.39930562544697,359.3993146661006,359.39931232325733,359.3992784756239,359.3993186644113,359.3993001425766,359.3993000620828,359.3993088234812,359.39932143761115,359.39929820683665,359.39931292731114,359.3992712933901,359.39924406868573,359.3993074649859,359.39930446794347,359.3993118577417,359.39931223015503,359.3993155334297,359.3985548444507,359.39931283208193,359.39930910665083,359.39931138405825,359.39929910842613,359.3993197785077,359.3993071035389,359.39930826345113,359.3993095244588,359.3993074050891,359.3993044376981,359.3993130807404,359.39930442271054,359.3993051731076,359.39923254311316,359.3993213020698,359.39930621474105,359.39931530160584,359.3993191804914,359.39930228438516,359.39930261835997,359.39931330113296,359.3992422299458,359.39930601993717,359.3992944014016,359.39931790508786,359.3993119824533,359.3992990690277,359.39928213940055,359.39930762518304,359.39930746740015,359.39929739307746,359.3993004116679,359.39930607927096,359.39932383763323,359.39930635574245,359.3993012164852,359.39930540067195,359.3992970343343,359.3993021540155,359.39948375956175,359.39928301918764,359.39930685600245,359.39930365319043,359.39930137215384,359.39929613716095,359.39930846318003,359.3993133464927,359.3993099710021,359.3993071287185,359.3992820969973,359.3992907993939,359.3993035654836,359.39930589032775,359.39930687990574,359.3993037646282,359.39927862574933,359.399301118686,359.39931669163144,359.399304757067,359.3993130378889,359.39930651099377,359.3993130138624,359.399308622249,359.39930918641045,359.39929956194925,359.3993166963564,359.3993077467291,359.3993034679494,359.39931631340073,359.3993030180324,359.39930025810656,359.39931255336234,359.3993011588759,359.3993156610842,359.39930761539847,359.39932208072645,359.3993167771717,359.3993027779611,359.39931245202246,359.39930461931516,359.3993238650756,359.3992900397814,359.39931284062936,359.39937025367914,359.3993043631861,359.3993227001327,359.39930105032363,359.399295587385,359.39929321893885,359.3993068748594,359.3993165083114,359.39928028295617,359.39924368549003,359.3993100606019,359.3993302714699,359.3993055794277,359.3992900022275,359.3993108103597,359.39930834662454,359.39935487678673,359.3993109538713,359.3993075415566,359.3993227011327,359.39931103512316,359.3993138398488,359.3993049539187,359.39946433499017,359.39930092372487,359.3993684341721,359.3993117454083,359.3993089314282,359.39931342290885,359.39930910882816,359.39931174858407,359.3993201146319,359.3993202936261,359.3993136739037,359.3992866800361,359.3993120095125,359.39931293543214,359.3993121172135,359.3993034247902,359.39930901443904,359.3993089471753,359.3993083858399,359.3993078802057,359.39930946576845,359.3993040891872,359.39931413834245,359.3993116551536,359.39931093802863,359.39930583097316,359.3993029401953,359.39928644003385
2,-0.00011210382773234018,-0.00012125512924128813,-0.0001280257186646165,-0.00011733859773081988,-0.00011627600018222076,-0.00011420651716442948,-0.0001333382479426597,-0.00013616856953392085,-0.00011438131036989358,-0.00012118547802255257,-0.0001279328689060451,-0.00012815047171638825,-0.00011729239453615906,-0.00012585527028828703,-0.00012086834870407978,-0.00012598470460745785,-0.00011400763676670323,-0.0001097195474749265,-0.00011396427932745194,-0.00012614741292264143,-0.00013186257396837517,-0.0001193250677968031,-0.00012074069778079816,-0.0001270139652162375,-0.00013062620708520291,-0.00012305480561435319,-0.00010675646012200004,-0.000116517393850244,-0.00012501969890571748,-0.00012097908828187939,-0.00010999399322050228,-0.00011848070760756903,-0.00012556960926804727,-0.00011869059939657628,-0.00011284251627064222,-0.00011846348482597126,-0.0001211392151893429,-0.00011642567170112575,-0.0001096179693572241,-0.00011379165033385721,-0.00012613583499975988,-0.00012554119645817122,-0.000114693825976193,-0.0001048746424754781,-0.00011423596944622137,-0.0001197029425799554,-0.00011053263529911551,-0.0001126028514704008,-0.0001128118166145583,-0.0001194779045077648,-0.0001232057303312742,-0.00010886001890458199,-0.00011955652215011865,-0.00011489113097565616,-0.00010696999147847538,-0.00011341551792961258,-0.0001230724751086724,-0.00011192713279402389,-0.00011332823503125226,-0.00011657103981729806,-0.0001288224871973878,-0.00012232895095180932,-0.0001204155343464121,-0.00011861091427435019,-0.000125676012605352,-0.00011889078927264611,-0.00011226442156291543,-0.00012306113472794797,-0.0001406832076985358,-0.0001197225839004045,-0.00011308742078485536,-0.00011931988020102405,-0.00012003340997491721,-0.00012052758531743342,-0.00011451121086560184,-0.00010952383353005235,-0.00011587470818870873,-0.00011897137205563131,-0.00012322949883492178,-0.000123893184899886,-0.00013366050768502904,-0.00011572583780895174,-0.00012840957060722316,-0.0001044542529675999,-0.0001233370483646167,-0.00010731586405896733,-0.00012322001510327538,-0.00010936066565530212,-0.0001304196688359986,-0.00010435971513519678,-0.00012046186932267783,-0.00011706844709828852,-0.00012096593564217973,-0.00010060814368742566,-0.0001359058457475223,-0.0001200292323001878,-0.00011330909347376472,-0.00011746250512715238,-0.00010031835976846437,-0.00012323427322882146,-0.00011155346462749821,-0.0001195163819953937,-0.00011661285071345307,-0.00011449846984335763,-0.00010716235223875313,-0.00011994219774157483,-0.00011742905732723698,-0.00011230817066838885,-0.00011684305493727728,-0.00011909362832738766,-0.00012596812508511003,-0.0001091109607145708,-0.00010587013006174111,-0.00011415166205486483,-0.00012088405848212621,-0.00010762125115667984,-0.00010644703913125078,-0.00011354654672870263,-0.00011724269411611426,-0.0001082387500928487,-0.00011450300473153298,-0.00011778031886977036,-0.00011606509047721988,-0.0001085949816390113,-0.00011358144866359186,-0.00011238636023430203,-0.00012205538634561403,-0.0001234983387972514,-0.0001234147051051159,-0.00013129637765333434,-0.00011929375699088982,-0.000123347765019609,-0.00010352676966572233,-0.0001302777423910405,-0.0001068271729979255,-0.00015378756382330945,-0.0001154951013624301,-0.0001020847095295162,-0.000125537077468779,-0.00010768076561136344,-0.00014929674723410702,-0.00011609033768887256,-0.00010826635459296152,-0.0001293521985777833,-0.0001062498858920763,-0.00013125579671443023,-0.00010734025853982057,-0.00012256127232278724,-0.00011033802292417506,-0.0001318217227799966,-0.00010483560088819857,-0.00012083246903025432,-0.00012199894785816359,-0.00012314831296242942,-0.00011241882744465917,-0.00011607305698833309,-0.0001324522416769688,-0.00011289247279850331,-0.00010869998515361652,-0.00012469765311354765,-0.00012347845437590078,-0.00011190777925228622,-0.0001133717224648166,-0.00013196559780632162,-0.0001313958287317265,-0.00010915810721436968,-0.0001162157212113558,-0.00011612694814784811,-0.00011549523861935433,-0.00011170179011363376,-0.00010963395165599385,-0.00011915380496865227,-0.00012014931837649623,-0.00011812899136871424,-0.00011621329856904574,-0.00012385164227158923,-0.00012197955364874724,-0.00011685411769805734,-0.00010288971648941285,-0.00011646074913728169,-0.00012036815121184346,-0.00011620300678325717,-0.00010822507193162117,-0.0001261783152252395,-0.00012769154848022977,-0.00011232892613776806,-0.00011554835293155751,-0.00012016444502839654,-0.00013467448609734593,-0.00011462784879486566,-0.0001074719287529606,-0.00012688300641832166,-0.00011930638034735115,-0.00011047978375085577,-0.00010691243394337003,-0.00011801137389122865,-0.00011652030771859129,-0.00010786628193650416,-0.0001083545687696875,-0.00011463154399675881,-0.00012143491081227378,-0.0001163441338157008,-0.00010977610978907991,-0.00011738972063647523,-0.00012148480580097706,-0.0001076073747226873,-0.0001024798120151337,-0.0001202866145593923,-0.00012472868946603,-0.00010887272393424186,-0.00010723696135629585,-0.00011243625440446541,-0.00011775844268577907,-0.00010928997617955408,-0.00011107019616859995,-0.0001177570280769104,-0.00012874600278822143,-0.00011277193186983596,-0.00011392345676202526,-0.00011623292015283349,-0.00012561694094562719,-0.00010504829232048646,-0.000104171896080575,-0.00011308486622374702,-0.00011628426621102337,-0.0001104584233678624,-0.00011702786480746154,-0.00011767686047436346,-0.00010799625848911819,-0.00010890287494058448,-0.0001175164488854525,-0.00012107028091600993,-0.00010965609686556535,-0.0001135485010938148,-0.00012516344587273524,-0.00012890952523566385,-0.00012125882419447689,-0.00011351640381229436,-0.00011995955779622473,-0.00012087931449458363,-0.0001101014640873877,-0.00010081171107922402,-0.00012158342413763038,-0.00012618676120931845,-0.00011742724968688277,-0.00010836280947462301,-0.000120519463970308,-0.0001222553473462637,-0.00011299880504990173,-0.00011088987224556365,-0.00011690462054045817,-0.00011473063029127431,-0.00011639665310412067,-0.00012110676526507696,-0.00012020032495000322,-0.000118500067852482,-0.00011039038369319106,-0.00012268651228211942,-0.00012029298809958708,-0.00011059163134726112,-0.00011464068901965826,-0.00012016983286571892,-0.00011584037679852641,-0.00011257869213960835,-0.00010861212150702521,-0.00011581287604819908,-0.00012170704816414247,-0.00011426224442588043,-0.00011460835992293842,-0.00012674466311610297,-0.00012800658597844218,-0.00011576744513378429,-0.00011972683414809787,-0.0001164821266825979,-0.00011290506085620762,-0.00011233564690503034,-0.00012598480869519725,-0.00011888087465094262,-0.00010898716648194485,-0.00012229881791625373,-9.593697626810055e-05,-0.0001339357391747041,-0.00012766732563452535,-0.0001160444310761034,-0.00010180437925769688,-0.00014691790417600107,-0.00011661310684633827,-0.00010205732043824789,-0.000120501074430343,-0.00011559675564677696,-0.00011524498126325896,-0.00010752547030070315,-0.00011309323429455275,-0.00012947247178559504,-0.00011706607087922935,-0.00010953980637220749,-0.00011322721241385843,-0.00011538601158956839,-0.00010770113266551592,-0.00011003346954955266,-0.00011709531806418826,-0.00011969589952384056,-0.00010838678391321622,-0.00011597960341434233,-0.00012270139926560904,-0.00011532378629889465,-0.00011482174725532227,-0.00011245395348321375,-0.00011681643606601018,-0.00011614940034686989,-0.00010838838300766925,-0.0001134652199154638,-0.00011903283508212568,-0.0001139707965610617,-0.00011341796660878591,-0.00011292487859655128,-0.00011713706661575129,-0.00011661866140077421,-0.0001129827790343263,-0.00012456669948936357,-0.00012406832437413654,-0.00010298477168650498,-0.00010671737243721914,-0.00011785362896794068,-0.00011818460901296967,-0.00011083558871046004,-0.00011413295078849757,-0.00011135120539218622,-0.00012308402529949254,-0.0001156777923811883,-0.00011004483598495795,-0.00012208306999649448,-0.00011896119500192364,-0.0001137163457080658,-0.00011111514281931065,-0.0001251722577482335,-0.00013445035733688094,-0.00011930958151316155,-0.0001098558909899841,-0.00011636269202151665,-0.0001394964382522137,-0.00010839705667620922,-0.00012174506893384617,-0.00010309353400845089,-0.00012505705281689613,-0.00011083275429096004,-0.00014044994880845683,-0.00011621299628354615,-0.0001318380279930525,-0.0001018575715701752,-0.00011746734242552701,-0.00013215070361073268,-0.00013538958501449608,-0.00012900771132148427,-0.00011364753779580552,-0.00012894400114178906,-0.0001279517078120814,-0.00011747957831759991,-0.00010625232133336794,-0.00011700090135467818,-0.00011990949055789859,-0.00011498566940347177,-0.00011612048371105792,-0.00012171093306575942,-0.00012447401515034264,-0.00011752784551722758,-0.00011908339400161036,-0.0001328729100406118,-0.00012959700523547513,-0.00012159954234425731,-0.00010820442248583165,-0.0001346898439891359,-0.00012171210063191635,-0.00013255296681118339,-0.00011608920277878986,-0.00013083612621882717,-0.00010037055310913924,-0.00012728448755496878,-0.0001237753397172571,-0.00011960099761490985,-0.00010692280391183465,-0.00014634982723791317,-0.00012102836903783732,-0.00012195407629263836,-0.00010303000463380005,-0.00011975563865474204,-0.00012698314376138837,-0.00013189867296600435,-0.00011704686335514161,-0.00012163702768498445,-0.00012619274398870345,-0.00012508678091352268,-0.00011875703823796537,-0.00011577852908455318,-0.00012168222167282718,-0.00012644501576906638,-0.00011810678358008788,-0.00012228659971550972,-0.0001351827242351456,-0.0001321517553387708,-0.00011355301914536409,-0.00011620842012389862,-0.00012125321357427294,-0.00012020438608892829,-0.0001195832293181644,-0.00011327530981207042,-0.00012360199973789583,-0.00013575072925471442,-0.00012676464604299937,-0.00011037543424405098,-0.00011805224977232725,-0.00013087678798615412,-0.0001109129722955095,-0.00013676199565319374,-0.00010196908916088985,-0.00011579517423127615,-0.00011546941241509676,-0.00012516727802927997,-0.00011803895788391391,-0.00011374430403810472,-0.00012208789085241793,-0.00014116104424398174,-0.00011478099410761476,-0.00012100951771179315,-0.00012371720638069692,-0.0001269673718758907,-0.00011981246051747528,-0.0001184721371152863,-0.0001192973076710008,-0.00011986503754139441,-0.00011190669721332385,-0.00012138872768004968,-0.00013122214139478887,-0.00013049379898552444,-0.00010216405420645013,-0.00014979077406662093,-0.00012421142356454948,-0.00011361299594067632,-0.00010029250374050365,-0.00013176764631055512,-0.00011623022392757953,-0.00010794034766668074,-0.00014975827850935352,-0.00011523260103516232,-0.00010397365009469683,-0.00014369721609175962,-0.00012224018697372358,-0.00013251497020749485,-0.0001122979974986297,-0.00011332730711985417,-9.973855342378428e-05,-0.00013683223946937234,-0.000128682376277436,-0.00011544501633756084,-0.0001364930179649239,-0.00011306679807022895,-0.0001292789856958605,-0.00011085516079366229,-0.00013000842250911258,-0.00013181321726239934,-0.00011880502302166694,-0.0001146310178604943,-0.0001221736443985602,-0.00012181386325962023,-0.00012737557344848444,-0.00012961734166650455,-0.00013100962306484252,-0.00013129441457324407,-0.00011278017289429299,-0.00011743139675807971,-0.00012874803493359433,-0.0001310863824606374,-0.00011962248340257371,-0.0001236577184848309,-0.00013739854877539375,-0.00014529310944456767,-0.00012599257528232287,-0.0001254429592283867,-0.00011894835057260183,-0.00012764967404931753,-0.00012192846425809533,-0.00012373196398114027,-0.00011719749637369998,-0.00012674674149351701,-0.00013119356559014003,-0.00013169722591369022,-0.00014505916026063084,-0.000130835489618248,-0.00013357343830028013,-0.00013222011680384495,-0.00012479349604256848,-0.00013640466741854146,-0.00014851482330139855,-0.0001279430371978378,-0.00012291855354683244,-0.00012588618177109033,-0.00013095441665692141,-0.00013795126249230164,-0.00013021762714844707,-0.00011452683828076052,-0.00013262652247084255,-0.00011561651367134389,-0.000137284070600833,-0.0001278951616780418,-0.00011694080012984701,-0.00011633232946904312,-0.00012512498890196802,-0.0001327674645341014,-0.00013190984409921111,-0.0001230875734749193,-0.00010897545938667839,-0.00012316769963284505,-0.00013832626302311927,-0.00012632411067242742,-0.00011175214412512347,-0.0001279982180913961,-0.00012685781845988046,-0.0001268749547106291,-0.00014786507189339774,-0.00014251976946566254,-0.00012547863890838181,-0.00011887292463575655,-0.00012758047463317862,-0.00012139992473295644,-0.00011415517975300565,-0.00012666006938834184,-0.00013321428423287204,-0.00012049557837953044,-0.0001177105636765847,-0.00013912361370338518,-0.00013467825351321042,-0.00011580316437317717,-0.00011405366057133736,-0.00011771481789582243,-0.0001329194167711597,-0.00012054091469323414,-0.00012015261093259828,-0.0001460289502174614,-0.00011480323046808157,-0.00010580643962220703,-0.00010554714980825766,-0.00012397968763812212,-0.0001238829349334629,-0.00011022372649877278,-0.00011266222528146156,-0.00011218189616091746,-0.00012119520161068653,-0.0001207819474247764,-0.00010646493296236092,-0.0001123913509808457,-0.00011652261306321802,-0.00011901671469660855,-0.00011276951526318362,-0.00011982686832079407,-0.0001268383361743029,-0.00010972478919217044,-0.00011517459965434073,-0.00011506706876671005,-0.00012064397483016385,-0.00011126515382292189,-0.00010788218285852975,-0.0001230589995047319,-0.00011658604554476877,-0.00011433778187670262,-0.00012921581440979198,-0.0001274925127252442,-0.00011470156618987572,-0.00011178821800715409,-0.00012549783064319046,-0.00012377396971603152,-0.0001217732438808757,-0.00012595184369631145,-0.0001371722074773525,-0.00013320881195602323,-0.00011096618567516652,-0.00012090153671843586,-0.00012028253205254067,-0.00013887869666094954,-0.00010232334856005384,-0.00012777952370749315,-0.00010931394357979594,-0.0001532067024933236,-0.00011178535715645831,-0.00013671607978013722,-9.813441595153594e-05,-0.00014169348766097868,-0.00010691332259209808,-0.00012960094137943697,-0.0001056396254923692,-0.00013684465912362082,-0.00010112068977397186,-0.00011855888200389455,-0.00012450778390394755,-0.00011528264369677198,-0.00011036931469727044,-0.00011638776881452465,-0.00013142548023166917,-0.00012457041607175654,-0.00010911890133708756,-0.00012985479580307545,-0.00014120240011448573,-0.00011114759374687698,-0.00010776046989983542,-0.00011856338327107961,-0.00011848912637149975,-0.00010417978649153038,-0.0001097739177913673,-0.00011932319404244887,-0.00012791494793048974,-0.00012763438998146642,-0.00010753604394201171,-0.00011473594923076969,-0.000123652065829502,-0.00012911643577175093,-0.00011633877532335026,-0.0001154731825667526,-0.0001252769376067791,-0.00012243068392286214,-0.00011664388505826305,-0.0001203505403966391,-0.00012864695971458485,-0.00011068539081244659,-0.00012038920583518152,-0.00012487788417247508,-0.00012151452099096694,-0.00011328084062042303,-0.00013288192167230342,-0.00012125891887179126,-0.00012144011368292243,-0.00012678547259610561,-0.00013908639984829924,-0.00011703687366647813,-0.00012450472813690098,-0.00010671973269381645,-0.0002080214164771963,-0.00011435375879486502,-0.00013039652517909467,-0.00011252864186373857,-0.00014201156357481845,-0.00010558613670697574,-0.00012366828672099914,-0.0001077347116071137,-0.00012910411602396114,-0.0001123945567516621,-0.00015092594507995217,-0.0001227990581588273,-0.00011543058834050091,-0.0001370190025425382,-0.00010602105730222454,-0.00013147304476566996,-0.00012095008098765529,-0.0001400900924025555,-0.00012971940722712066,-0.0001204735089249794,-0.00012556716232737494,-0.00011687614435807325,-0.00011579271111276052,-0.00013599285831669358,-0.00011493227020571744,-0.00014498347690546106,-0.00013332245453732822,-0.0001222435943778431,-0.00012046466402736034,-0.00012841728299064,-0.00013542627264682137,-0.00012687160059129994,-0.00013343724437657863,-0.00012780637124812995,-0.0001466932298276134,-0.00012732527781725582,-0.00011826210633301477,-0.00013698904421785343,-0.00011949825622233125,-0.00013336800788112831,-0.00011979703769551174,-0.00011440041272507657,-0.00011714961187378653,-0.00011124802183387365,-0.0001249896080115214,-0.00011677828972569604,-0.0001153463643384764,-0.00011906748792661246,-0.0001279665649695206,-0.00016402907560012585,-0.00012169958815097226,-0.00010770779044146943,-0.00011440949877050832,-0.0001204499175404973,-0.0001332358260476946,-0.00011212574107158055,-0.00011050357568335778,-0.00011536546818476285,-0.00012051918405186494,-0.00013397599445623184,-0.00011536498202615209,-0.00011633107307471548,-0.00012635783062584307,-0.00011821831403816414,-0.00011546757954538541,-0.00010613534232087679,-0.00011688348265204578,-0.0001141367878406279,-0.0001114276735253121,-0.00011844712594644612,-0.00011893829191830934,-0.00011685435573832992,-0.00010956173852190208,-0.00011822965722521557,-0.0001224034510688852,-0.00011928060977911427,-0.00011761609833682931,-0.00011063176261087155,-0.00012535105469802307,-0.00012039769218635647,-0.00011559413919798944,-0.00011303368664918437,-0.00012272395940270277,-0.00011928823136041222,-0.00011862098338824968,-0.00011736769652507323,-0.00012615184532073368,-0.00012323840072491645,-0.00011627017238638397,-0.00011404505697490258,-0.00011703846799009394,-0.00011477811518638447,-0.00011414702814925008,-0.00011918977092097734,-0.00013282338480443995,-0.0001342393214845889,-0.00011369410888351207,-9.826193992504246e-05,-0.00012006980053681168,-0.00011991857258937046,-0.00013446617291337518,-0.00011774121112190716,-0.0001221163177287476,-0.00012599738753632576,-0.00014738284353230671,-0.00011006056581263687,-0.00012593136327375756,-0.00010626924056640192,-0.0001251345456420842,-0.00010895866152251527,-0.0001330932217412474,-0.00010729466951967888,-0.00014090111167249677,-0.00011629944688820153,-9.893586116672631e-05,-0.0001148172701292658,-0.00012111989769278274,-0.00011715856749925158,-0.00010997530690505195,-0.0001282815809116071,-0.0001193503406703684,-0.00011582070176337675,-0.00011103667457746096,-0.00011004527314919273,-0.0001163359822662264,-0.0001134368377785835,-0.00011440906505419403,-0.0001244251438719288,-0.0001289529579264427,-0.0001152955356975228,-0.00011413193398741559,-0.00012566569325693248,-0.00012949650896965467,-0.00011149112772871864,-0.00011540429450204007,-0.00012119425370842853,-0.0001122681384127413,-0.00010267682651604365,-0.00011730558580989444,-0.0001278968969477512,-0.00011455714685234216,-0.00011211520597021524,-0.00013192767036231148,-0.0001233921080294321,-0.00010558065904533251,-0.00014330917995602425,-0.0001025426592411709,-0.00012791249997571894,-0.00010364379383938904,-0.00013765932724360045,-0.00010299534917820652,-0.00014083395574543314,-0.0001037982527078834,-0.00013098159338634674,-0.00012134791283595411,-0.00010424157411750323,-0.00013691958402600114,-0.00011410216072703896,-0.00015372444465678852,-0.00011472020024562123,-0.00010951179087626335,-0.00014404286182154738,-0.00011582594711752751,-0.00012478421492035743,-0.00010654885252681089,-0.0001679929361389549,-0.00013298337898334033,-0.00011457356682626198,-0.0001321261525283782,-0.0001013162226154511,-0.0001448688596144295,-0.00010450027027042702,-0.00013084016259205642,-0.00010709569526548939,-0.0001284261015408217,-0.00010737977370528796,-0.00014311195242150532,-0.00012650659181728268,-0.00011179768255395643,-0.00012947627750665452,-0.00010857336191652528,-0.0001216691668233581,-0.00011015002918135474,-0.00013284721982026628,-0.00013097052358936623,-0.00011105156804075581,-0.00011784321424725689,-0.0001267053092414126,-0.00013982138615841236,-0.0001293804462058908,-0.00013004483300184722,-0.0001339771427199563,-0.00010485583026985421,-0.00014209235886590522,-9.888433743177142e-05,-0.00013667473084254364,-0.00012222307953387094,-0.00011322350096965939,-0.00010557843015868201,-0.00015926382516716667,-0.0001472023448999222,-0.00015238021587475162,-0.00012021147159825351,-0.00010926559943230703,-0.00011433636633063877,-0.00012447089550717943,-0.0001241021532421696,-0.00012102301557947016,-0.00010896663714311267,-0.00012318260665198212,-0.00014076726352700022,-0.00012111149041248024,-0.00011893730262730764,-0.00011366307555973181,-0.0001158936843547674,-0.00011536147000380518,-0.00013993137423487506,-0.00014112162248528483,-0.0001472786375981315,-0.00011125728305194429,-0.00011851762051677135,-0.00012010827587519447,-0.00013884329968732225,-0.0001314292860820343,-0.00012538615567885773,-0.00010329169082275196,-0.0001273942830600982,-0.00012477898321700868,-0.00012152582729767763,-0.00013508355581195476,-0.00011156772597844896,-0.00011077317401024318,-0.00012043909153788181,-0.00011595006383493209,-0.000126110086422273,-0.00013835907266276034,-0.00010877036363883045,-0.0001443875101521785,-0.00011527078013914206,-0.00012007374843427252,-0.00012727780156792897,-0.00012692077296391505,-0.00013249561291511628,-0.00012687061063682372,-0.000102243320429601,-0.00011078616882726935,-0.00010951635721247871,-0.00011413154150672047,-0.00011898629565255191,-0.00011551307455507489,-0.00011648005453430186,-0.00011248317753548836,-0.00010265788802755384,-0.00010990904816878734,-0.00012230755028659658,-0.00011314964665812574,-0.0001438046314754529,-0.00013561167579187689,-0.0001195912765278687,-0.00010277587838622143,-0.00012436730809095212,-0.0001268496365116532,-0.00012780044058053678,-0.000146936269943618,-0.00012411609940939875,-0.00010194082050535178,-0.00012056753682725118,-0.00011753586908991087,-0.0001356599211148935,-0.00013596424587959745,-0.00012738556950801346,-0.0001111122814383097,-0.00011361960600956283,-0.0001251865602853941,-0.00012314753773309453,-0.00014044442551101286,-0.0001213996903183085,-0.0001350978242975382,-0.00010333403774354685,-0.00011019723728606966,-0.00013172895761605629,-0.00013017844608103666,-0.00012644298907446525,-0.0001119157244115798,-0.00011222719902391239,-0.00012002262995173614,-0.00012092395114666674,-0.00014888657305687898,-0.00014259681160811252,-0.00011940878286124979,-0.00010384470440130275,-0.0001234723527516711,-0.00013108989996622769,-0.00014234294504179517,-0.00013140285594486997,-0.00012737791135190017,-0.00011794814437813227,-0.00013177547832130408,-0.0001349246990801657,-0.000114899644103541,-0.00011527971956936437,-0.0001214878915881549,-0.00012932725667745635,-0.0001313069595712788,-0.00011706192413946192,-0.00011426482040817067,-0.00012652606395759458,-0.00013116701253358266,-0.00012478085111799055,-0.00011734297341187524,-0.0001265321170020892,-0.00013482732041213353,-0.00011646983154727967,-0.00012041994399222993,-0.00012290813954689948,-9.758008089723754e-05,-0.0001161000566879185,-0.00011539668794639158,-0.00011952057782063426,-0.00013748507787436068,-0.0001326122408119448,-0.00011259600789530807,-0.00012343961857466744,-0.00011483159011546532,-0.00011926716781686497,-0.00012974099862429246,-0.0001456046171760385,-0.00011652330715751577,-0.00014227967501871905,-0.00014539520746573398,-0.00013704510048770195,-0.00010703216738417522,-0.00010330356640566019,-0.0001142605220697051,-0.0001245060112583768,-0.00013579319450763297,-0.0001318857650339452,-6.060830230736415e-05,-0.00010302373655499219,-0.0001237897023657387,-0.00012875736877315976,-0.00012583229827378575,-0.0001376769565749924,-0.00012250031523157603,-0.00012745423920800894,-0.00013937910387060656,-0.00012824893413412977,-0.00011763601733322807,-0.00013039145392249027,-0.00010075446219186282,-0.00012651750215104718,-0.0001420017357364897,-0.0001358718694873568,-0.00013844756640278403,-0.0001116609737706936,-0.00016670856412600522,-0.00012727691749648783,-0.0001115908996698654,-0.00011820491570363773,-0.00012522085959860968,-0.00013382733889821967,-0.00011539269656969012,-0.00011046051023507115,-0.0001444023605444163,-0.00011752042684949883,-0.00013763223677026187,-0.00011793470808471907,-0.00014251302530363496,-0.00011694669532286983,-0.0001343961217136893,-0.00012788593346692686,-0.0001467228420344736
3,36616.515655582734,44525.00731081962,25621.411882016353,34966.23452347643,35455.303167512924,38355.033906741184,36339.23213429416,82083.83876156605,41685.23321349548,225726.88778295455,67968.75675114417,85619.76458425394,36885.42476223168,45785.59175202416,37360.88091566338,40128.44795267214,92657.4910203919,36349.73100568917,51278.72409611366,61108.3853823679,47837.92589134938,34801.76523715771,46277.10104610797,38913.67136830034,47521.229645541054,34822.41194949453,589053.7929379278,125153.75453185724,46194.09648514623,37082.623645828506,507070.93200909963,40184.88933204129,42789.378511513285,38569.560897319636,59206.92271495506,38544.3918472762,50044.02369538391,40331.47830382748,34586.111629489715,34633.8781866943,42790.68909646096,34660.12000692709,34963.159986230174,69573.51061334899,38663.80016656887,133806.54332224414,73984.59773583095,138199.33181215363,42952.79405697201,99081.87767406508,55891.125822787406,29577.954189066135,42351.54861267019,174316.36359953164,62646.89281543177,29630.572883085923,40579.75474692495,41812.67654854455,58474.32879381582,34400.09694843833,86325.16526020096,42188.491490546054,101038.37695437101,39598.660059466994,45255.54768520944,57720.65443341763,147128.33379691112,20881.862734478913,50789.004771100794,44321.37731207799,37094.983175082256,49938.31506785188,51841.604482829105,55488.625562168825,47917.30293841598,45229.76053325937,42730.733831605605,44330.48826012756,43828.14199659958,49790.94442701944,58670.42271965207,72509.1199566242,47941.37046266649,37136.90373261334,43901.734065067874,221872.26399020833,46806.02526842489,54461.75598733542,69304.83589299445,33433.5620704084,36924.444349656136,36192.15066868654,41463.6360727465,30962.956221875957,47709.654017999535,43987.35234108918,35151.21223852839,55392.30317998442,36740.2363455149,196660.53777663724,127132.96860590551,45555.779144798966,40821.15998868807,46495.21990349579,53142.379680931794,25027.624705694194,51265.66361236123,42617.166385203935,153909.5683606895,39584.3452993402,318510.5150172121,35564.0229564214,191573.0007049208,49036.7447297259,52211.62344681278,36159.89041627902,42043.159509323224,40356.87272131042,41772.07851958825,39507.139813228416,40270.7975049152,37668.31085543135,96059.53443790163,42307.47725486221,43162.109255538184,69585.40248775743,104180.77715403464,46371.243823612305,59037.72658237314,52128.96748419788,51653.165155619965,53799.24239323371,46254.05399842567,37457.25038554949,36183.70437609772,219094.2296127034,39062.050442469066,91683.47788663027,40736.98912443012,46596.903132013314,75510.03359493834,29713.21320702533,25774.04059991615,42280.85140700226,35034.10028137191,53411.06450662267,41767.72107343799,44716.803057413956,90181.73151430862,74908.48974386064,38081.58307973099,42459.73817560991,41137.47093620938,52028.41787637088,35408.78827779837,6647.948543671843,45749.57463774247,40298.901408279016,36902.38942105316,53070.07501753815,217159.26033856295,59461.53105008139,37117.023197655224,83717.49155769116,117250.58701406204,29279.114044925307,35523.25898343138,38640.08951947843,68902.63089180051,52105.83675762713,42897.06280401979,38013.65101398985,21921.26672010674,44421.71456471078,138508.44526813529,44866.67405490606,47860.1695948105,41072.63645580425,39569.75775909686,35979.59960105184,106813.3477524521,52647.147219836465,62242.76419270804,82642.9049034557,94754.78830788122,62415.74377765857,48045.18472444815,42953.59024585649,84612.24923425025,61739.86157248057,106076.22986704261,132021.97489155194,41490.23770585246,28355.87933068221,62718.20857640866,29539.481089242276,36857.21263084197,44309.79224762882,26534.550665867693,59715.432751905384,37054.77039336608,47019.83148898297,41505.01758873395,40546.426350223635,54767.684467464285,175280.60339228623,36386.10025195936,37186.375705754814,43170.40789074651,48263.506469809305,39646.875017754006,40178.126405270224,54835.85428484064,38172.591461483345,43311.1184401224,39120.34408910785,73742.8045018631,40182.58977443355,40171.039224852895,47113.21438413038,47719.63949203021,39958.86539391949,40784.397338854855,28000.039396041928,96720.39633329154,55301.01743088812,39006.692537237825,139669.18611517362,48794.02173286007,45729.27482989323,38095.51906399036,79659.63711288657,43439.321191119714,40740.3338799328,46496.08834881759,156203.08470104256,30129.196974935643,82181.63358840077,56703.813899427456,56167.21365613462,58928.6175698314,46802.96795818495,54073.47598103101,52489.31753665923,35535.617010402544,38269.42283194353,53944.94767084108,44069.23331047708,40400.00933100946,81932.2088048578,55080.92170785632,39944.544701385224,21046.02070898674,38784.85785533309,43882.440003476535,55278.195366662505,48382.52322799245,327371.0566506436,46576.73764179854,119571.447389026,134469.69401153602,38224.06299777932,184301.28281707875,43151.35139159969,38688.15279406183,100747.4828211987,217978.6924419901,39637.27258908519,43245.38365277455,47624.76836570059,75674.22417621627,39037.05744042579,45509.0834309051,48207.25882996409,108352.63562632659,60667.62960673668,64220.39735409011,47768.44324557266,48383.165744285674,28195.898801659878,28896.994938454085,71992.14745475334,60785.75156864892,51592.786358829806,477039.9778113433,76095.10580380337,39523.818137616785,820623.2071181398,57727.5062168182,47148.95706003314,37651.86908121008,59307.68338879067,53014.91170316226,57321.87963589624,41912.29457004162,44509.54004622344,60527.89663230573,43656.73380482453,40353.21918010214,55765.94364999198,93180.18612254137,80593.30274391013,39103.767383439044,44076.51335454073,53725.62335495228,41678.211006894584,38920.043133293184,113298.09560407867,70150.89007828575,37596.25823812038,52767.616572821265,47708.18638870218,63197.07765774301,36375.471079439434,41342.76573722512,54826.30621580605,46369.7585750163,59529.903335297626,38706.07610310719,165301.43548192552,45415.92185465283,45034.66305264718,43921.684831784005,57315.27043096953,46726.847568415804,43844.770006819126,45914.17804860757,41584.702761859444,49298.93640420208,55506.184199545925,107454.3676228133,55072.21578153836,45389.488579554876,39017.97698519549,40090.838255671115,81219.03825364707,249736.62701211197,76759.86849288215,53903.34885593036,42168.69594949263,206306.19316450157,58697.78599714776,43512.344711099155,38780.70137811871,42445.054829693974,239288.13996197,84042.59493056253,59757.274667493446,56448.054501545994,40873.7692296177,37970.65094887261,58348.12639575785,200652.78602901567,87114.31125059276,228219.4205975716,47060.6682256147,57563.65114815363,55448.67618039265,41393.58093883007,39859.95193616131,27047.80262544974,26308.854714078836,68499.16058082359,51528.403775525934,69114.25794639865,38101.86056347247,44408.45044723866,88294.69397509443,69462.60575665953,42310.51075393076,304784.3596145333,141924.76786841737,165098.00468017283,162501.14547045718,41141.08428211506,107891.71612306463,124548.64150519943,203721.16461726784,50133.42041606874,51397.10193201522,38033.400945179914,113500.46104202978,50789.75995104111,66345.07739656005,40554.82041224223,51122.532948335196,49596.47461135422,72189.54039510417,51770.65533677894,36796.49781654382,49645.4543310143,185021.04856424552,42155.47441697171,46708.725734395855,101239.34164109561,61943.08462969709,43950.93142183527,74091.70448384917,49571.00959175104,52106.636501566085,47227.493353971586,54037.46296627179,50183.20566072663,53264.779569306564,87961.53120079782,47253.047612183895,46554.66568456437,42993.47412213609,43449.41263980292,38224.439486950585,40748.05266628741,44076.217802345665,56370.44357971296,72011.85146512835,79031.29620486152,40025.628881515484,64299.50708301585,32031.091464101693,42254.50644627223,37866.28574873127,47550.581437744964,187092.3687261735,42038.62859785278,43506.1736157078,81470.75565257094,52849.98577478574,54654.88216442205,45032.17466984163,49820.16824378987,48362.758432304574,46449.15761677078,45493.552234603565,484659.0819896514,46464.70620940652,33068.75401184564,66177.59679274763,63274.04263358377,88108.78037375305,44004.52636359259,55366.59687721881,76253.87788862163,35209.00992508985,385622.17536294844,38602.76420315775,62988.594543115054,72952.48219559134,219670.08575465632,60047.75248507059,41332.653217772044,196633.00326042133,40329.9052935334,62316.88767414765,96582.0010554319,44621.9405920006,68310.9257124341,45054.5506890835,47769.98897736649,41716.986403744406,85388.1872247974,107918.17295989035,46632.527604098774,46803.521203276,79106.84981256738,48823.75777684504,61750.66742428901,61454.574977368844,393952.44550965977,44863.0506903007,396833.30559123284,98841.9658801505,193922.39401539258,64690.6129887257,104139.9057259107,46337.48142552867,49899.69099607286,62475.964935319935,41892.641627741505,62679.519806915836,53975.877338241764,69552.78373366731,74212.06300121255,41492.741972900585,45938.06208065731,542374.8827198092,104584.18543810245,65452.62662537136,154648.68490441362,211793.5083858581,163580.19301030965,63140.83393672132,61833.141869024395,78761.37647948189,78432.13463589127,57257.89252533469,39648.67558052291,85850.48739129768,67286.02835517802,213595.83687846552,47463.48558514807,50647.6808615297,45093.75741318991,51411.69199814242,48023.827051587985,183244.24872047614,161568.2028704796,39810.358555970626,65802.26976292349,52945.475830471776,163281.05511894904,52523.908306239784,43353.279459430865,63917.185793976474,49295.74576271838,41550.93652919797,165796.18189052388,214851.73675085703,52966.0584741514,47850.183212416705,53955.089142807476,100042.76484188941,46374.48253645297,42381.4212861142,50015.59517214942,51424.691350180176,39948.25257523041,47637.997648999655,52166.65843471054,44070.67819021071,42624.03313229908,114435.24306255573,48318.24693047054,28688.91880448979,44514.76059993478,59847.905737430214,157358.59739060904,79670.2098249973,50999.563713483294,108071.4475827313,64113.217563001715,48803.10756552431,57892.311542061325,55048.473281130944,61384.91584651334,54151.73458110159,40562.91095623348,54739.817512687354,52905.74454019261,46799.66796142088,53373.06609445247,55289.7140376685,73637.4314565177,57091.79160926446,57447.092475699705,44238.642694265225,57330.179587292114,200225.25143536486,43465.74323946536,51146.76124380806,44415.733847438365,43005.11385267428,45396.345327004536,50974.56452796477,59528.79356596408,43456.16961690289,211285.0384643155,67582.41595461228,42883.28715505536,99852.56560212116,50037.82144401127,46936.11219963973,57692.92682343101,77371.83689831878,130963.74402696584,199119.1764128614,42633.50962389333,55773.48544936833,63018.36562147268,53223.517745732395,48160.378149720855,45493.66560020526,48291.5461632788,73113.38918567951,41134.06340702729,49375.52313290301,41705.97544583401,98874.01020125978,59808.592786360874,49823.73888397515,41559.06572177593,185008.4213289259,38371.011252206976,40450.33464416376,53709.088234481,75656.69539982612,39154.477447843776,46278.98245031043,55503.04927273264,46977.153326347376,268039.48716426396,52774.918630484724,67518.5039873063,44136.63108424759,53534.93498849491,51768.44127873841,45326.82238305675,43915.573987119875,45987.24831338718,79769.79259066304,100279.96888602874,67940.10983985735,42921.903284765336,619427.0451450109,58993.892377207376,68907.46264825268,65357.18397606293,48152.246546157614,57595.35184326384,55357.51467991015,56028.899476566265,46307.35573807874,611496.8603612545,41889.08719383231,67972.40601035577,74431.5864055163,44869.36703795717,44531.773265198884,34770.09872424195,51417.46373121605,63574.885101804924,60588.82635556819,44074.03841875219,57714.393501374216,58738.21997109999,43523.5803572406,82763.49009949534,124639.64963706034,44259.33393027686,43591.75894496786,67840.89887585246,37985.241584918054,46338.58860357835,42955.06516494435,46278.33552122325,83898.27688080221,102288.26267720744,47645.638637442324,123015.29422368157,59033.878994244464,46412.760795147566,60146.141345262666,54296.18557110534,61142.16390444197,53235.45870036059,55946.93005104159,45915.72570189579,53745.10407965089,56670.48893987612,46856.530592600015,40994.87322978306,107372.61287151543,68800.7911123408,65078.14967593475,76626.08684233324,57230.07609764256,244911.74755263736,120790.03585826185,49620.305881247354,54311.982005351434,53482.12281011846,194242.81854296304,36016.27816811716,0.04287797599265132,68969.08274687098,42941.24943838127,78651.81113115606,40239.831838472666,61389.57981377902,62511.864378335085,98899.4741335279,44824.23310196239,44255.70723504236,46339.010398960054,31108.346099008806,0.04187553767278503,65893.06819655189,41466.370342492744,47780.71245415597,48286.4013484896,101476.9873676416,39936.24340580748,41070.92453481767,88555.75310511657,48446.69245755689,261926.93427073892,61838.5041512614,45457.65249240543,57583.86734665483,42352.3479904519,54226.31401464501,43086.25457241663,65626.92439303361,47915.65448974435,52604.65693482552,59121.528743180395,50456.33607992004,43300.876658249974,43980.27368633771,54784.19669052909,43762.50547728858,46153.510268110935,97860.57829086788,44412.84966452855,56861.114540781826,41258.9293752188,56642.18301801478,72893.69441669437,56654.51761707683,66114.56456765498,78371.81867525265,43801.25314941183,55891.04516804399,52047.70631682987,49164.958547981805,48104.213448527225,105538.38886147673,60978.475840950065,41527.84591347605,44355.66336584697,49467.08916843536,66630.77531261311,45014.076296625615,88494.66846478381,47622.10075816251,57893.28859575969,164036.35395936604,52574.746185994176,74422.3306054296,66811.88007886648,70944.56988381078,204544.63829713908,49053.82273453151,60335.17007459114,56984.258629018645,130987.93598687493,62379.72206634418,97431.88829619504,99402.57468597003,54170.46096595799,90067.67031844848,129109.4282329685,67296.2397816177,50486.821873890636,44598.12969984386,99509.1077183497,48847.4164063464,56552.245559992974,48166.782464884,80598.73585072668,46860.699733573114,47607.992611038586,43317.94143478684,54632.602745617376,55565.08236342859,44852.781664665294,43362.454964876895,59535.6601065221,79625.22207639263,43827.724943038804,46448.28631349405,62467.27312883484,43707.11791915558,40246.101761974656,77751.43721742679,69618.72976766428,46952.15822656269,135219.44438745413,70137.15092756473,48759.090755861784,59531.63824058461,421300.611925117,43979.007103000986,155395.9468222059,28642.65995721066,98170.12329475234,45545.23683362917,222922.70002138434,58642.81538480107,106098.51996334479,40306.59065768398,83890.68935870696,99654.86405936978,57437.62820005025,160009.53201037305,42887.32143196073,46032.22395108271,209845.3804410234,117967.57963171313,50169.31315027763,55968.584192583854,109197.59300470533,66714.22845130278,62043.655228868265,73754.15001183283,104250.29563012478,115969.50812222852,43006.936122847146,56416.4753508679,59434.02289392258,63205.22488089848,715989.4430698351,96468.63993909648,516532.0966366523,48747.50854853786,97878.56393189431,91339.27634747444,228074.44843205606,36522.462780303256,52848.055453609464,66499.88537443739,41909.787125771174,55577.93607072907,114650.94408055797,49377.22128691327,58088.69427427517,529520.8540666455,51643.523576644926,47715.45099524129,244188.37487125263,48569.81777580487,107108.58758333727,43676.29402381197,45789.66941164384,47277.39249485992,252185.04396155052,493423.76389694697,176431.64268316957,49599.08357208128,51150.06638379899,49423.57621610847,62417.59908764355,134831.77638524253,58954.361098684865,592966.0685396893,103904.26119241331,72155.61721537248,55540.95264493696,63354.10189097666,46586.7265566516,49297.592002404774,34814.73107943791,57271.63114496414,95507.64676921387,109224.629881216,48035.32965692288,70256.64842911683,59578.934258720605,35746.87883224112,92644.7249024547,76268.13881100519,252094.96376083442,52648.92411605354,124668.26441659432,100589.46117234736,72367.34498822645,35581.45895842607,165995.39572224053,41951.54963461768,51188.61362414814,213800.40021846938,116985.74878069748,83607.14897648408,205423.00179307495,42685.81479964148,45374.069315021516,76050.34381505445,62756.28683288879,122670.1454372706,75064.13365050308,44377.91637777244,47377.74508870382,46503.296947647825,51811.203119241865,109481.55912531601,51885.637919507,51170.83531771108,111458.66589706451,101207.58883665438,46937.66206262682,83565.14172007842,102980.19066752057,57304.52070181583,55903.46220449704,57924.92652154109,87695.24487985337,51689.86325143428,66238.86293738929,133725.8988220905,74056.91379758758,48491.698003430516,123194.72782838669,48334.32728465483,68581.62573760185,66568.8247533995,79653.11944119926,50517.04616936631,100474.57578948227,47086.83765924134,58963.97071452006,51074.19564411049,63593.63592333725,57534.106002007065,394148.9473155407,85472.5538173559,47719.51754946836,123711.51177885846,59891.38977177395,92547.631005527,43468.68945809278,74606.91576538837,67282.24351685999,69300.52597495612,86331.02184239465,94529.04463827655,54463.4132833671,37362.32709030517,50439.268854468195,54892.907842927176,86493.03757626326,60240.05038276837,97610.32533208485,52334.450110277125,111197.42067642265,47128.37606443155,51313.18643739023,45817.60144267674,47465.2149607568,61730.76422402135,107908.06495846761,44728.2611627661,47293.33457564514,109717.97939575234,56641.47808184392,62678.22843644177,52044.09565481703,59049.06531371879,88237.54669937426,48146.161137360476,113957.19439159487,91758.23902454862,36160.04121485456,67290.66051840495,54389.437836786616,156662.36070117186,74665.23019457383,66215.24945222042,613078.511381414,54022.48976002175,621627.0990232795,53992.865280536804,42783.71088733968,70634.15155873053,49747.76997461986,98282.40132083002,90696.4924295522,143367.60507786955,40787.57203864195,466585.250742452,52223.47675098339,78234.36797766686,81667.40327226331,56299.31316953788,15938.278887336754,37054.85410512734,45367.74096897883,111523.42989712243,104865.42726861997,90159.33306322165,47980.20203404084,569752.2719851475,61416.898403306324,664759.1535303011,71087.22836139295,62420.81053761045,56847.23568457732,45963.46375684693,77997.31932462355,63712.46950070918,96076.00476617992,147012.16365340413,80969.04509546922,81017.7970978509,66072.06026940681,47309.69215615833,57110.10158996665,64538.76134157248,44242.45977119733,50477.91466851336,426706.4820555106,42756.07071966703,56555.41767516337,71214.61205470435,70387.05608779643,70972.20321876567,85321.83038304212,87329.81938028237,103104.03517336541
