,0,1,2,3,4,5,6,7,8,9,10,11,12,13,14,15,16,17,18,19,20,21,22,23,24,25,26,27,28,29,30,31,32,33,34,35,36,37,38,39,40,41,42,43,44,45,46,47,48,49,50,51,52,53,54,55,56,57,58,59,60,61,62,63,64,65,66,67,68,69,70,71,72,73,74,75,76,77,78,79,80,81,82,83,84,85,86,87,88,89,90,91,92,93,94,95,96,97,98,99,100,101,102,103,104,105,106,107,108,109,110,111,112,113,114,115,116,117,118,119,120,121,122,123,124,125,126,127,128,129,130,131,132,133,134,135,136,137,138,139,140,141,142,143,144,145,146,147,148,149,150,151,152,153,154,155,156,157,158,159,160,161,162,163,164,165,166,167,168,169,170,171,172,173,174,175,176,177,178,179,180,181,182,183,184,185,186,187,188,189,190,191,192,193,194,195,196,197,198,199,200,201,202,203,204,205,206,207,208,209,210,211,212,213,214,215,216,217,218,219,220,221,222,223,224,225,226,227,228,229,230,231,232,233,234,235,236,237,238,239,240,241,242,243,244,245,246,247,248,249,250,251,252,253,254,255,256,257,258,259,260,261,262,263,264,265,266,267,268,269,270,271,272,273,274,275,276,277,278,279,280,281,282,283,284,285,286,287,288,289,290,291,292,293,294,295,296,297,298,299,300,301,302,303,304,305,306,307,308,309,310,311,312,313,314,315,316,317,318,319,320,321,322,323,324,325,326,327,328,329,330,331,332,333,334,335,336,337,338,339,340,341,342,343,344,345,346,347,348,349,350,351,352,353,354,355,356,357,358,359,360,361,362,363,364,365,366,367,368,369,370,371,372,373,374,375,376,377,378,379,380,381,382,383,384,385,386,387,388,389,390,391,392,393,394,395,396,397,398,399,400,401,402,403,404,405,406,407,408,409,410,411,412,413,414,415,416,417,418,419,420,421,422,423,424,425,426,427,428,429,430,431,432,433,434,435,436,437,438,439,440,441,442,443,444,445,446,447,448,449,450,451,452,453,454,455,456,457,458,459,460,461,462,463,464,465,466,467,468,469,470,471,472,473,474,475,476,477,478,479,480,481,482,483,484,485,486,487,488,489,490,491,492,493,494,495,496,497,498,499,500,501,502,503,504,505,506,507,508,509,510,511,512,513,514,515,516,517,518,519,520,521,522,523,524,525,526,527,528,529,530,531,532,533,534,535,536,537,538,539,540,541,542,543,544,545,546,547,548,549,550,551,552,553,554,555,556,557,558,559,560,561,562,563,564,565,566,567,568,569,570,571,572,573,574,575,576,577,578,579,580,581,582,583,584,585,586,587,588,589,590,591,592,593,594,595,596,597,598,599,600,601,602,603,604,605,606,607,608,609,610,611,612,613,614,615,616,617,618,619,620,621,622,623,624,625,626,627,628,629,630,631,632,633,634,635,636,637,638,639,640,641,642,643,644,645,646,647,648,649,650,651,652,653,654,655,656,657,658,659,660,661,662,663,664,665,666,667,668,669,670,671,672,673,674,675,676,677,678,679,680,681,682,683,684,685,686,687,688,689,690,691,692,693,694,695,696,697,698,699,700,701,702,703,704,705,706,707,708,709,710,711,712,713,714,715,716,717,718
0,-2064.4450029307004,-2003.6127633950339,-2024.0654283960273,-2046.8324121521673,-4136.911093733833,-2004.5255776984545,-2004.5337173828927,-2002.5875096697625,-2006.861937029138,-2125.3052354872443,-2004.4651451714226,-2029.9808326133605,-2049.9904385733444,-2127.31653706344,-2055.881363556899,-2030.4740804653588,-2004.3341408437475,-2061.0065887563114,-2009.2463970747408,-2003.8828302324457,-2003.4911769714276,-2002.5417390026164,-2003.2853035836,-1852.4677703781692,-2006.4964466886313,-1941.4347399292315,-2018.36815693186,-2026.9162126329306,-2019.6182569756115,-2049.9331056826863,-2004.2348012137766,-2004.3606315615393,-2003.794639902183,-2004.7248668832817,-2004.4457809749122,-2042.0854869536201,-2061.4359831207635,-2004.3739971724422,-2063.7519862354525,-2078.2224251730977,-2004.76834495453,-2004.3766161448673,-2003.348384504385,-2003.8029370793624,-2049.0619524474287,-2004.4541258755114,-2039.0874454696102,-2041.2119154114032,-2050.3330615228265,-2051.5509206014867,-2004.5304670324228,-2043.9314214504138,-2083.505691682373,-2003.7918358960617,-2003.9273771070323,-2046.7288848068565,-2004.4895228068517,-2063.803249987926,-2044.4154807084758,-2048.1098763917767,-2047.4053328082941,-2004.7916103414489,-2030.4071906612246,-2004.4635401325734,-2005.430609173279,-2062.1895824270355,-2126.3912861306353,-2057.650106423264,-2096.254580325646,-2022.9066456165333,-2029.540205304042,-2027.5849245442007,-2043.2770150092144,-2107.357700254821,-2004.266285164249,-2051.2349905807923,-2054.594248370598,-2032.0453926771092,-2042.5816821466199,-2022.8055193558555,-2047.55114903809,-1969.158970517838,-2040.9919694278803,-2130.7414161610836,-2069.124306841766,-2053.1281689073794,-2005.0203490715328,-2115.201465113158,-2004.7254290903504,-2056.1679758849446,-2005.4403496852233,-2004.9352902496087,-2085.5008086327466,-2071.6309337247512,-2056.7237574939627,-2004.3641848894065,-2039.968054361509,-2042.343603640948,-2004.3495476851663,-2133.207112913211,-2019.3415185986025,-2064.418194459642,-2051.082027483121,-4417.386657532351,-2021.5024494800514,-2005.1444811237586,-2040.635447111456,-2004.971044865193,-2004.6416880457148,-2034.3718957320405,-2128.7862415929244,-2109.947897485211,-2029.1844130200052,-2039.489385042926,-2004.6384163264047,-2009.560634909251,-2045.328516892491,-2053.242314199222,-2004.7672717783453,-2069.8336287027196,-2045.4830912235275,-2032.5151954732103,-2004.384026119036,-2045.96366306894,-2008.1699817553938,-2005.2507774738674,-2056.1641880407446,-2052.454053661032,-2067.848062160168,-2046.116194800542,-2038.9863385529209,-2052.6802627419715,-2004.3109813017315,-2005.1307028704332,-2085.397431001029,-2032.6097132101625,-2137.386573336692,-2005.3145201677123,-2121.8367709104514,-2071.420643382758,-2112.319876379517,-2059.0222448722907,-2004.232943682292,-2054.8762986540078,-4117.497248863111,-2005.0592858347982,-2064.8619675692335,-2092.6316379611394,-2005.0329819271155,-2066.470345264081,-2041.9773432506527,-2057.11210827447,-2091.9170812845473,-2160.7912370166523,-2049.628306164284,-2258.5729661935816,-2005.2616042204888,-2056.5863716124845,-2042.210049597778,-2134.054344961439,-2121.2714477658533,-2004.9532229708561,-2054.467808294285,-2048.164302679037,-2052.1229310083318,-2005.0192392890863,-2005.711721978771,-2244.0465056383605,-2053.4797878333416,-2035.2599673603129,-3952.5768170238644,-2001.5917435179276,-2285.393471990218,-2045.8315864277822,-2004.4967225605105,-2016.7437504495958,-2054.496765904324,-2004.621040585215,-2005.2060788799956,-2004.9392174273712,-2068.6502976758607,-2004.9239609907206,-2005.1484475117236,-2058.2878193552165,-2066.1926446223074,-2057.748127465899,-2081.1144531914088,-2052.8732973640836,-2105.225776610302,-2102.4270893286753,-2059.050942588495,-2049.6651433163947,-2004.5138962355038,-2005.079655970155,-2056.7908044887913,-2005.0754332266256,-2110.6337864477127,-2053.9666712609805,-2004.7574736849758,-2005.324340239761,-2021.9773279426786,-2038.296332987608,-2016.3146497280682,-2020.2919095060668,-2004.952684871392,-2004.3887032472182,-4453.932997677916,-2034.3169368055262,-2004.712549225667,-2004.2125598471835,-2039.7401649561507,-2046.8575618643165,-2004.9647492778213,-2079.169510890409,-4306.000795756937,-2074.976519635043,-2005.0071533690766,-2110.902879514546,-2087.7372825437496,-2005.2246179437711,-2030.0820334328746,-2020.2016994331145,-2040.082492455348,-2005.2736187856167,-2010.1120862697064,-2004.2374971258512,-2040.7295356868422,-2039.246969522719,-2085.1947942006627,-2041.5643774518521,-2097.332110282463,-2004.664061181089,-2005.1058318337684,-2072.654366011298,-2004.9650229471179,-2047.0969187626977,-2025.5049119203927,-2058.5454720139014,-2005.0945968451797,-2048.8913387321495,-2022.9644497485185,-2004.3817009636543,-2004.822391302297,-2009.76427476743,-2103.5922624543196,-2037.7584533448946,-2033.584012523202,-2040.1783563111906,-2005.0139908882973,-2096.7492765098596,-2092.821634682293,-2099.6200322862683,-2109.6232669570104,-2033.3940890083836,-2004.1140738151366,-2045.587348987294,-2004.8411283269788,-2057.8469194937993,-2034.266296921753,-2036.10125902562,-2004.2735451641183,-2124.6340383286765,-2004.978039681296,-2004.8069701549393,-2004.796256000373,-2109.2304085122128,-2089.199384355787,-2064.218661235169,-2004.507764469642,-2031.412895481778,-2063.2662068760465,-2079.733081183762,-2005.1599639621138,-2068.220259762987,-4335.435359908242,-2059.3242599934015,-2005.1438035267,-2004.8341858834049,-2092.4417805196927,-2048.534168650802,-2004.9871404638664,-2058.5264854254497,-2005.1061846566042,-2049.4381985559594,-2048.870589894996,-2101.7735797388514,-2046.350087740662,-2004.9546464498014,-2048.1289814252254,-2017.9641175790364,-2165.75948534434,-2109.719270645436,-2032.4598900472954,-2086.29100188444,-2024.7029648266223,-2039.62247340315,-2031.1069287167797,-3386.4591532679433,-2063.004555526581,-2005.101019255251,-2005.2363135006235,-2084.51158660765,-2005.0851387678188,-2004.7089586636866,-2004.8227325145842,-2004.9365903833384,-2036.8547918956158,-2005.0471166743391,-2086.840360598499,-2044.7871656266313,-2057.8408878905807,-2116.7994260202554,-2108.0974504332344,-2039.2959714270096,-2081.1150512444283,-2038.322495163521,-2046.5630145002058,-2037.406221065559,-2065.42014983532,-2005.0031718507573,-2122.360712516465,-2131.3890102167843,-2069.421496496789,-2051.6424300316785,-2104.3118268301155,-2053.7989759499164,-2113.796033612726,-2060.6479409729022,-2005.1754949566446,-2047.8615016491117,-2106.3727463767746,-2062.629045996919,-2036.980355789816,-2124.0445856821525,-2085.8403088167324,-2093.786074415127,-2207.1060454146777,-2055.9592492072265,-2004.9671780732192,-2109.5728270163027,-2062.743467216302,-2038.5992857588733,-2005.134043845432,-2102.0814540635856,-2104.0902891964943,-2101.966034309227,-2061.094205207583,-2062.59706740828,-2005.0240182707241,-2100.012619026687,-2071.2551053661914,-2124.8757637879585,-2047.8577555162663,-2084.553360771692,-2029.611706175743,-2109.907462266169,-1997.6745544983833,-2005.0784900955343,-5204.276482093477,-2320.0150129203944,-2057.729676141065,-2005.167081528406,-2053.9121182121435,-2011.0624397387999,-2005.166790917479,-2053.456181297177,-2038.0832569251293,-2031.788882006491,-2045.6914606405692,-2005.1695565671923,-2005.1660997396957,-2112.481289843146,-2045.50583242276,-2074.9258806415323,-2057.1012080125342,-2102.795463829526,-2105.6619327576273,-2064.251834077481,-2121.360713247112,-2005.1943511985048,-2071.0443074423556,-2031.0953470872757,-2041.950845595798,-2070.9112703267283,-2005.1633606384873,-2041.271765239259,-2005.1347572412392,-2157.4837211436984,-2005.0548902106832,-2144.03749083527,-2032.0197665452151,-2005.1474939871748,-2106.352122789264,-2005.2559439410038,-2082.998197818271,-2005.2201541682887,-2065.311022810917,-2050.512032494498,-2034.1877362930993,-2092.590643895829,-2057.643285111494,-2040.9146556033263,-2104.771621231301,-2014.4214108593048,-2017.3999076947207,-2046.7734426959755,-2054.5086567485096,-2005.2372302974477,-2035.45384028354,-2053.9997718447903,-2120.687406190391,-2049.5591083313366,-2033.5686538582631,-2059.9869661538123,-2005.1011916262396,-2065.8410464438066,-2054.7796894430344,-2133.1883393885796,-2005.1803852138707,-2005.0238135342508,-2048.094681706125,-2054.79874195537,-2061.3874531899874,-2300.7050729136945,-2005.1434466413034,-2038.9410749503982,-3579.722017353156,-2101.8519488541338,-2048.59214946247,-2052.758595720164,-2053.511695747309,-2061.2655834213633,-2058.350745694948,-2005.1819878774013,-2033.0890609382632,-2064.7866104947225,-2035.3991291889865,-2005.1968910641065,-2108.8958990233946,-2005.1662231726268,-2135.514034457319,-2041.6334017435152,-2045.2954852898524,-2005.1778907876549,-2005.166007128185,-2060.70467845123,-2055.1887454947932,-2119.4576813160083,-2037.3899255199285,-2036.8892421169471,-2062.2281535351835,-2045.5015186854976,-2005.2043194882997,-2043.6801276942667,-2053.713723746569,-2005.1989659769429,-2056.855900917991,-2056.5556455845126,-2005.1940369259148,-2032.115857023282,-2067.0871526713663,-4243.646554331668,3816.7970329370414,-2083.2005061289397,-2124.799253834565,-2106.409249923159,-2132.6030377603624,-2138.1370423948797,-2054.3438748524554,-2109.2629279595244,-2065.315833246397,-2145.3211423428993,-2044.9864135412993,-2113.9043544118954,-2066.104783188149,-2107.050619613769,-2021.0928678737905,-2046.1424495158774,-2056.1501785275004,-2111.504129477114,-2096.7681897849357,-2129.460753130317,-2040.218209708381,-5025.92734397202,-2015.864489352085,-2127.5478260713758,-2119.5357066960996,-2066.071422213034,-2124.1479236312766,-2053.1375359263607,-4588.063818161381,-2055.301291760391,-2083.0580245157885,-2010.447646850625,-2112.8287203235,-2062.101109508055,-2142.569269110178,-2039.8283295069539,-2084.4009545414374,-2085.8349926032283,-2072.927313065862,-2066.0185885576484,-2128.5537639305567,-2131.8985085851746,-2063.464022746129,-2079.052834629286,-3645.8468402035382,-1990.4872762676403,-2042.9163990234913,-2088.540687576144,-2117.019033380913,-2031.6010320895277,-2051.672009278578,-2067.8689602811983,-2090.7957418936894,-2079.7445955905832,-2135.188088750404,-2120.0280874206323,-1983.7958752711174,-2129.825865629135,-2030.3171271406547,-2099.6352564458216,14071.698526729335,-2158.235093166253,-2058.193313855529,-2045.0014452729067,-2089.7647750357023,-2102.93577319574,-2059.0281652308786,-2150.4777756045783,-2077.8924856077388,-2096.057614909305,-2102.0973142094626,-2092.471390638678,-2115.7554474367043,-2130.918174965425,-4299.572536957251,-2062.2933772119404,-1966.9802500436758,-2016.6584273801834,-2094.497237424854,-2076.1461838907253,-2095.988720419221,-2038.1125544183335,-2079.2955907964297,-2100.983484048519,-2123.5105021794816,-2043.0430618304526,-2108.26342204553,-2104.4839894687107,-2089.8466104094123,-2065.282047628216,-2070.3592737870254,-2101.6487469896974,-2151.433114833047,-2135.7136176165377,-4394.739817970049,-2110.680343293912,-2056.1237059607815,-2027.328195756527,-2048.104589991112,-2082.4735644336984,-2071.4175486593685,-2065.504635068866,-2094.5836777222444,-2054.5290182346193,-2081.7276728344655,-2152.4029929144353,-2045.5714224977633,-2030.3929185495185,-2087.3480006444806,-2141.568540269123,-1996.85665609237,-2051.265738514225,-2155.667544800553,-2112.7320473102795,-2013.5134013194422,4017.988823868816,-2038.813027850285,-2078.331453046923,-2045.9574469292193,-2015.484366049298,-2112.021098622865,-1963.6040435114937,-2061.1356777781616,-2109.677727658325,-2077.719014682675,-2054.8109317278436,-2113.428132780838,-2098.085917317526,-2084.272947499401,-2010.8240238833685,-2100.420380065244,-2180.928542455934,-2120.630192943396,-5071.391357489463,-2061.046587738527,-2203.7048889060566,-2057.9781807406393,-2186.790903620547,-2179.6532724299714,-2062.8177741074305,-2222.346281608193,-2081.9819119270555,-2131.6129229626154,-2117.2875804110395,-2081.2219734293203,-2062.03100545061,-2087.4121442029864,-2160.425542290891,-2202.0082996090077,-2122.4706349308785,-2054.40510018708,-2098.4535438735243,-2053.7348362940365,-2132.3614269646046,-2214.446414533506,-2088.662179549942,-2022.5496039256643,-2068.7844923484154,-2075.5383205539592,-2082.3935024467132,-2156.577452396802,-4456.567903823192,-2058.9371276228017,-2117.3659283641314,-2060.9715665948947,-2124.923812063269,-2084.840097546525,-2079.76994999086,-2111.8370330074345,-2054.875046537284,-2150.185942820283,-2061.379143008134,-2012.8390805102022,-2179.18852479604,-2085.851211523539,-2108.2061552796567,-2031.8507118913972,-2056.117988829432,-2115.8051107914257,-2050.8415159407787,-2153.751925355574,-2113.3006748015773,-2063.8598861786145,-2127.409518863827,-2050.2579459338344,-2124.559523163783,-2095.14983662577,-2107.839985052901,-2050.1927431202093,3145.4065685580254,-2098.7702133352623,-2116.080106804099,-2113.1391710253793,-2085.6522092960786,-2041.548915351283,-2040.5250774228716,-2153.8367434867328,-2066.747381956381,-2096.415932077077,-2141.480869198353,-2115.692792165915,-2032.3737935296804,-2100.6870962087064,-2080.1396590418262,-2035.9797816791531,-2132.0942551465255,-2062.388616056825,-2024.1684165806128,-2123.648642378954,-2047.396501797264,-2097.437137659332,-2105.8736124452007,-2116.167819746518,-2160.403838547595,-2077.642847768764,-2055.2963302921003,-2042.782624741081,-2101.2753709782887,-2115.2181369849914,-2008.965394142147,-2065.0278849641527,-2194.1941647342196,-2085.8879054035788,-2098.2439404437187,-2063.6572432934927,-2057.905275007782,-2078.8018667316824,-2054.662455802993,-2114.8954619756255,-2083.640959055016,-4600.5310646783855,-2000.0577968650273,-2053.1472735373736,-2136.914075920439,-2374.7341836382207,-2121.453199382422,-2127.2878393076144,-1978.0513280204086,2775.5138086917505,-2103.666785368196,-2088.334379082711,-2050.5426031448783,-2050.189121694293,-2158.731340967494,-2103.7166789198836,-2124.9063721406906,-2098.0235287602027,-2101.595476547065,-2038.9997479169206,-2046.4136101338468,-2036.6355354508446,-2059.2827758026897,-2056.012338407275,-2061.792699936076,-2077.5290062499034,-2132.585784368421,-2053.1263530037104
1,348.3874019101293,348.38751567340057,348.38741714445814,348.3871366170894,328.3649061427054,349.38834446339354,349.3890262713624,349.3884018696471,349.38824637697047,347.38620950593355,349.3882210514878,347.3865241859998,348.3871737978911,347.38610062827263,348.38751323608045,348.3878910077788,349.3882721824219,347.387485726772,348.38876421714184,349.3882779913103,349.3884977257937,349.389036346367,349.38836916625394,348.3873740009385,348.3883550312704,348.3884545700551,348.38818880639946,348.3873076816834,348.387453229799,348.3873799884987,349.38846236736305,349.38834631081477,349.38919359475284,349.38826553692724,349.388379132405,348.38731829019696,348.38845085237506,349.3887604716341,347.38714424291646,347.3861862261273,349.38830766477514,349.3891271987627,349.38854261248525,348.38770078734456,348.3874319517185,349.3882589709584,348.38718553479896,348.3876065499903,348.3878540059495,348.3877298133321,349.38847181337565,348.3874763985364,347.38701737578907,349.3883635360992,349.38850369381447,348.38725698152325,349.3884577048724,348.38718489762465,348.3871952838681,348.3876545285593,348.3871364374429,349.3882316327024,348.3875310011047,349.3889413933841,349.38836639396965,348.3872140387234,347.38697069999273,348.38732333696447,347.38622983254123,348.387464753851,348.38812489977295,348.38746617138986,348.3872502951774,347.38676102737065,349.388249405052,348.3871701426275,347.38600061908215,347.38611782651384,348.387232434547,348.38759750373816,348.38730934368,347.38712785275163,348.38835409187726,347.3863886685385,348.3884792788615,348.38726888886305,349.3890104654834,347.3864820584039,349.388270025519,348.3874628376358,349.3886801108184,349.3884914848175,347.38645206638387,347.3860521518402,348.38717440586,349.388680379483,348.3884675958564,348.3878711615573,349.3886298205932,345.38378145452884,347.38616567136984,348.3872223841197,348.3872603479651,328.36491513346743,348.3880198776492,349.38845744027356,348.387478445768,349.3886199838874,349.38848748845646,348.3871003265722,347.3860085896366,347.38642516406213,348.38788798884246,348.38854735802823,349.3883175276731,348.387793044863,348.3891690923808,348.38756053005073,349.3883851176919,347.38633212045,347.38609909629685,348.3875466800259,349.38871007828044,348.38848754002953,348.3879181386266,349.3884679213382,348.3873580745523,347.38604244049793,346.38491433031214,348.3878048068402,348.38724590866514,347.38677177859546,349.3882760708318,349.3886540615103,347.3863898312263,348.3873225442077,347.386168407106,349.38847702302843,347.3876709440259,347.3863907477279,347.38605660573467,348.38879427069605,349.3884963447044,348.3881793286923,328.3648815857582,349.38873545093617,347.38610573303635,347.3860058130454,349.38832431839694,348.3875326236885,348.3876679455701,346.3854237369891,347.38733087582386,346.3856782460101,348.38729202251074,345.383839050686,349.3882473709288,348.3877225604732,347.38608769517356,347.3864886296507,347.38612268038804,349.38921720104645,347.38720138905194,348.38734191955524,348.3874551712714,349.38917454529,349.3882543414136,345.3849629897533,348.387465275483,348.38826138180144,329.36612121364396,348.3877750979075,345.38384476091244,348.38793229861545,349.38826616033566,348.38743470809936,348.388670873789,349.3888826675707,349.38822101098475,349.38837785860323,348.3871193967918,349.3883879137937,349.38825055899804,348.38811902659,348.3877923872354,348.3871523350475,348.3877698466661,348.38716710454526,347.3867374848521,347.38603165306563,348.3871819112334,348.38741951302177,349.3882985018417,349.3886052295116,348.38715718981086,349.3889801249549,347.38688270713794,348.3875027874295,349.38841969534394,349.3882751334657,348.3875859811232,348.3875305758044,348.38929075882794,348.38787047391565,349.38821862235415,349.3891447822929,329.36606242969225,348.3876492135527,349.38845429818247,349.38956086472143,348.38869079957044,348.38722453380143,349.3882356218075,347.3864010172126,328.3648876264893,347.38669616056114,349.388221617493,347.3861672517072,347.38638380335044,349.3884326183009,348.3873495292258,348.3872667595189,348.3872978070656,349.3883977578032,348.3891433058877,348.38796339950983,348.3879648317366,348.38774512388676,347.3861739399948,348.3872244992498,347.3863813914379,349.38821917252244,349.38830281606624,347.38608738103324,349.3886706706047,348.3871626700144,348.3871558826981,348.388431372674,349.3886726396639,348.3872830226463,348.3871629947087,349.3882106349353,349.3887171303657,348.38753890019774,347.38621718240387,348.38733526924057,348.387248300894,348.38784974646757,349.38904704289035,347.38613843829324,347.38626783387275,347.38697501376294,347.38711009213995,348.38731689660307,349.38835600417457,348.3872342122584,349.38876022330044,347.38660852871305,348.38770008403816,348.38750097884883,349.38826624454714,347.3863976747478,349.38824752513426,349.3885422493888,349.38883209810433,347.38670004113845,347.38668110973254,348.38724978333425,349.3886316527216,346.38506120451206,347.38617278850444,347.386597662377,349.38909530153785,348.38836216997277,329.36626287357456,348.38845577437206,349.3882348841653,349.38883941454225,347.386464842489,348.387781394251,349.38823322188273,348.38727910096003,349.3882410314689,348.3872754043858,348.38782151689156,347.3860472235412,348.38710797240157,349.3883907605509,348.38794341303645,347.38680699751325,346.38582918584814,347.38646251824366,348.3877671982416,347.38669325338435,348.38810682983745,348.38719353759564,348.3880710328479,330.3675026541364,348.3873150497566,349.38878340929347,349.38839735805806,347.38611667430524,349.3887036494815,349.38870663637385,349.38885367771206,349.38852846399914,348.3877254810676,349.38875663008747,347.3870186166427,348.38770597658424,348.3872293077502,347.3865161639811,347.3865755417723,348.3873344081813,347.386559021186,348.38713994319005,348.38720273869126,348.38783306221745,348.3871321578414,349.3883258637962,346.38505734661857,346.38487995035973,347.38639650189407,348.38719236214007,347.386980308497,348.3872631799634,347.386285843643,348.38722744994027,349.38848760082857,348.38848017302774,347.3865321179747,347.38657888335257,348.3881665271462,347.3863137607904,347.3866226799958,347.3868112974794,345.3841984873351,348.3872054577228,349.3886839406621,347.3860596380498,348.38773444892684,348.38725357062464,349.388657103854,347.38631545223524,347.38664002258474,347.3861202015912,348.3871006392534,348.38727257267925,349.38833996371034,347.38650932021864,348.3876251286146,347.38606454672015,348.388132349022,347.38629320318057,348.38734095009335,347.38610753140875,348.38740649597656,349.38860475929994,328.36485970464764,344.3828945446759,348.3872527793683,349.38857572906903,348.387223025258,348.3882262541119,349.3887985344656,348.3879900939918,348.38719360357544,348.38778191390077,348.38833170183483,349.38897309030443,349.38825812965854,347.38616109635933,348.38731474712137,347.3862936145431,348.387433602253,347.3863695766803,347.38686467760346,348.38734999726825,347.386625030763,349.3885238926512,347.3867040800995,348.38734497240466,348.3879599621405,347.3862542435099,349.3884263390077,348.38755135234067,349.38862395613296,346.38497289977795,349.38846688790846,347.38655373721974,348.3872104651113,349.3884374898559,347.3870443749981,349.38848850147286,347.3862139681485,349.3883318672031,348.387837796991,348.3872615919137,348.3889046177594,347.38602442189654,348.3873032725784,348.3882502196926,347.38605151180866,348.3871083086306,348.3871191932939,348.38762965171685,348.38729264869414,349.3887188602188,348.3874747906362,348.3875033113031,347.3871570044956,348.3870972013882,348.387435789983,348.387110196386,349.3882391908553,348.3872751822339,348.3878063877638,347.3860490385683,349.388454266055,349.3890667718481,348.387126637359,348.38715805351234,348.3875704438425,345.3849070387995,349.3893488760958,348.38723867453433,329.3660393960715,347.3864821170952,348.3871549389533,348.3875005529698,348.3879103444732,348.3873171326791,348.3873671797985,349.38913422323566,347.3869932806727,348.3881876903815,348.3873058904805,349.388402759735,347.38654785836064,349.3891223255574,347.3861017450823,347.3875607358898,348.38812882438384,349.3890614497355,349.389013724268,348.38713354552766,348.38776919758186,347.38611364945666,348.3887764262895,348.38731109357764,348.387216482938,348.38760632365967,349.38848416718923,348.3873467097907,347.3860675305926,349.3883535354656,348.38729199068416,348.3884674430702,349.3884933207465,347.3863295305779,347.38628325961207,328.36489869054236,295.32822291969177,347.3865432061392,347.3865278360529,347.3862107924779,346.3856151072701,347.3866313364338,348.38894958994103,347.3859936765173,347.386388045408,346.3854879078209,346.3858245652528,347.3860996200701,348.3881935739677,347.3868959248575,347.38755015080767,348.38727953511267,347.38608562319973,347.38641460242695,347.3868396446694,347.3860038625643,347.38702031770816,327.3638224162877,348.38912478256003,346.3850905353087,346.385363199768,348.3877208319907,346.38523264800716,348.38720167993745,328.36508881734784,348.38723345540086,347.3862187828164,348.3872041670006,347.3866404402259,348.38776433850813,347.3863286756628,348.3874942927008,348.3877470216583,346.38698209039546,347.38603678632415,348.3872932340324,347.3862219257024,347.38609834881254,348.38721948146775,347.38710495650645,331.3682518926638,347.38616713506576,348.3875743611623,347.38628809685525,347.38662476846304,348.3880001553461,348.3882980506341,348.3881527481259,347.38673732601006,346.3857573381047,347.3865972785715,347.3865484421204,346.38617044779687,347.3860334973224,347.3865439196409,347.38657345573245,303.3370610740682,346.38590103370905,348.3881431753255,348.38722030422963,347.38653953848683,347.38607806955895,348.38724012867937,346.3854264658254,347.38646461429346,347.38646370020143,346.3853696738404,347.3861299368432,347.38673405046285,347.3861025380877,328.365036664793,348.38750769142007,346.3865175616474,348.3883001827105,347.38670901272195,347.3863095692067,347.38680199483497,347.387313887942,347.38611720480327,347.3860380572117,347.38636815407403,347.3867686203699,347.3863912150918,347.3868353988023,347.3860384656327,348.3873996689864,348.3875451804659,347.3860868940062,346.3852501274087,346.3854469316988,328.36487492593824,347.38623814608167,348.38746224746876,347.3866102502768,348.38788888648065,347.3861886760931,348.3871651381129,347.386025382351,347.3862765606458,348.3871361155309,347.38701665856286,346.3858347687546,348.3875935367108,348.3872681753092,347.38604400383537,346.3855468855445,348.3875557942209,347.3863957638152,345.38487656579906,347.38629612731813,348.3877927501985,297.330466418252,348.3873830283043,347.38644500409026,347.38599185979876,348.3873312089768,347.3860498973383,346.385513144552,347.38686611238694,347.3862864650766,347.386454155981,347.38601749411725,347.3867878095383,347.38665124038727,347.3868899471162,348.3878601326792,347.3860476913827,346.38568970294284,347.3863163843343,328.3648778341189,348.38771016028915,346.38520090575986,348.38727571619177,346.38507760927575,346.3852065788263,348.38710781462936,344.38322747222315,347.3866672589183,346.38562893735303,347.3859989661232,347.38601923521645,348.3875520881688,347.3864513761842,347.38640009618166,346.3850280082054,347.38603313685974,346.38659813704754,347.38655949678076,348.38757353212895,347.3865927756057,346.38492841423755,347.38741783049994,348.3875660315816,347.38672450996324,347.3872221149971,347.38605147179857,346.3851895436037,328.365043476664,348.3879300475865,347.38616007701,348.3871274012298,347.3866286719644,347.38617542283487,347.38670923853505,347.3872772523818,348.38756012560066,346.38512860040487,348.38750643485224,348.3878347877007,346.3859253066096,347.38619673308824,347.3860026062081,348.3878496775463,348.3883938344066,347.38656271376766,347.38608771803257,346.38513674694855,346.3855768618974,347.3870025625333,346.3849845797976,347.3867305592833,347.3861342317255,347.3872909901912,347.38677569459696,348.3871364597294,295.3284751792186,347.3872326225303,347.38654544016725,347.3862314025361,347.3873822800517,346.38572320500657,348.3872382906301,346.38590369211715,347.38643083618507,347.38644525135857,346.38502812989674,347.3861447129906,348.38847789000596,347.3860940799355,347.3864326996093,348.3871497988721,346.3858830985829,348.3885516308677,348.38747846170105,347.38676981121546,348.3872840707791,347.3864134234034,347.3863289792972,347.38603991294633,346.38487550790177,347.3861080212244,346.3859266620944,348.3882344074097,347.38658126990765,347.38665500723454,348.38729669371355,348.3874469659882,346.38581019345213,347.3863078831944,346.3855339408385,347.3868249393203,347.3862294772989,347.38606618443544,348.38722304672444,347.3860672477058,347.3870934669689,328.36493751849366,348.3877583950682,348.3876591818511,346.3858326208584,345.38446519831274,347.38648971272266,347.3861437376643,347.38618651610926,301.33488875405345,347.38606144135406,347.38660599842535,348.38730925717846,348.3876359108575,346.38510836666785,347.3860034868422,347.38646485198586,347.38656484014086,347.3862889792047,347.3860197559562,348.38750426433774,348.3872372893001,348.38711054058314,348.38773182692046,348.3871584776612,347.38682720711495,347.38599929346,348.38797794333
2,-0.002640534509643857,-0.002530439870588631,-0.002608196240154353,-0.0026471883767862784,-0.015586340234437302,-0.0030380878775141318,-0.003036412247072501,-0.0030301268066883227,-0.003042156426516712,-0.0023453243469922615,-0.0030360484113652665,-0.0025496782379808808,-0.0026388340025445957,-0.002458805525034998,-0.0027386748948989696,-0.0026103197990643427,-0.0030349624209036604,-0.0025028561080717776,-0.0025703052259682065,-0.003037788471428775,-0.0030341725387695367,-0.00303217288564861,-0.0030399956438945212,-0.002711556710437218,-0.0026103240200874393,-0.00249894263626656,-0.002549954029158727,-0.0025598998464195356,-0.002606617180547299,-0.0025947592979623443,-0.003035465033687941,-0.003038682124352058,-0.0030333515860173216,-0.0030365123951966205,-0.0030374766665471416,-0.0026946753302496806,-0.0026266679693235095,-0.003035715040048807,-0.002519155373911542,-0.002480556285346067,-0.0030377600435450183,-0.0030366780072330554,-0.0030358454643014568,-0.0025357484595171648,-0.0025832031529328327,-0.003036179302736616,-0.0026572723958122146,-0.002592796587277728,-0.002585722933212539,-0.0026128730089167943,-0.003038356793559259,-0.0025950119756690203,-0.0024911916301267323,-0.0030341956631839656,-0.003034905717653254,-0.0026046817457271026,-0.0030363539993672624,-0.0026166682603824794,-0.002611426628977174,-0.0026295012849092306,-0.002623352936151836,-0.0030369328862523658,-0.0025753573796507305,-0.0030387774992500314,-0.003039050209456785,-0.002595394979393276,-0.002525512228976422,-0.002710067036926915,-0.002494861854628278,-0.0026339195276200494,-0.0025564570271956162,-0.002692714681777792,-0.002648352796998825,-0.002494179462084942,-0.0030361089418052345,-0.0026453520790161163,-0.0024921331170684553,-0.0025803463365280613,-0.002705251807225849,-0.002554229344883446,-0.0026527352397088364,-0.002642920478615446,-0.0026049057440227694,-0.0024462003592607526,-0.002680583533134989,-0.002699723276865547,-0.0030380530441586695,-0.0024313400851543403,-0.0030378030874306694,-0.0026112126899769826,-0.003038524416227332,-0.003037954467214461,-0.0025446893975436206,-0.002508477531417627,-0.0026429858134983286,-0.003036007685468312,-0.002555022695540976,-0.002565565669979715,-0.0030371800364046913,-0.0026333543821015805,-0.0025838102175834163,-0.0026425396398191783,-0.002663951749891017,-0.015647597804294755,-0.002561104062521136,-0.003040615420147885,-0.0026449564462941834,-0.0030400959808599653,-0.003039825713035836,-0.0026093212475359296,-0.002479089184827931,-0.0024633096125807447,-0.0026949156115800366,-0.0025922479459265413,-0.0030380482185657126,-0.002490455124923578,-0.002625212190379542,-0.002585381987354248,-0.0030380999716153245,-0.0025432869011439885,-0.002544329294082769,-0.0025683878960087985,-0.003038411420340513,-0.0026488835367810184,-0.002567632489473736,-0.003039695058105776,-0.002591074637190036,-0.0024922334456492874,-0.0026652375184865393,-0.002611335424087318,-0.002581455952894595,-0.002525734929117085,-0.0030379850772813645,-0.0030394099563700997,-0.002489430551020305,-0.002599556133073417,-0.0023735995726862254,-0.003040623148281502,-0.00244572119376376,-0.0024715876436533224,-0.0024816156952945463,-0.0026875829954070484,-0.0030387119511005576,-0.0026249757405303648,-0.012911666131533047,-0.0030413549634167323,-0.0026758519246485534,-0.0024912525383389414,-0.003040872552722509,-0.0026526941628698484,-0.002588692769715493,-0.0027146099048362495,-0.002491921826064681,-0.002506105151617545,-0.0025985004253983126,-0.002800093640242999,-0.003041684070367287,-0.0025942074575358593,-0.002495930193921321,-0.0025564768738138522,-0.0024277928641869414,-0.0030405751088455097,-0.0025210898757708987,-0.0026932694592126474,-0.0026344427324582853,-0.0030418527778809986,-0.003043502405053393,-0.0028911433182094446,-0.0026286846891652037,-0.0026015989285626245,-0.01563555080505773,-0.0025617372568944616,-0.0027237370880317975,-0.0026570716534629725,-0.003042045227214222,-0.0025722017998960865,-0.0026629312725310037,-0.003041623102029335,-0.003043369058308962,-0.0030415426025676207,-0.002692266825182866,-0.0030426868736732914,-0.003042723235377396,-0.002658513260021962,-0.0026554805445077293,-0.0027180421553572253,-0.002694963153944855,-0.002648411251350966,-0.0025448973566102625,-0.0025525441397081967,-0.002619894253482488,-0.002615992008003026,-0.003041291556503247,-0.0030443615865354233,-0.002620691875072812,-0.0030430355212240664,-0.0025083465682039807,-0.0026970895940644597,-0.003041669487818858,-0.0030440015393157264,-0.0025727770279247125,-0.002571612023679077,-0.002568508698971818,-0.0025794244334984527,-0.003043084186876159,-0.003041407253738939,-0.012719579614753259,-0.002684200984648177,-0.0030430085696713906,-0.003043405493458156,-0.002624979319002819,-0.002601826197446787,-0.003043092248428933,-0.002511661420005388,-0.014341369888071574,-0.002607510891018267,-0.0030454206584865713,-0.0025535227565698887,-0.0024929326340566104,-0.003045325884419986,-0.002544252513068376,-0.002580096400663796,-0.0026354623862986214,-0.003045777365678006,-0.0026165233550985876,-0.0025730408898766476,-0.0026987657895854366,-0.002609624134737748,-0.002580408799722745,-0.0026985613705890277,-0.002492266563123029,-0.0030439465751092003,-0.0030455673167677547,-0.0024333188591699564,-0.0030442269241739853,-0.002594565867038564,-0.0025904471061914806,-0.002723034031625382,-0.0030449834319170653,-0.0026414645766676516,-0.002589867819696981,-0.0030426521387943296,-0.0030448149799940883,-0.0025939380388051232,-0.002463541301521085,-0.0026036407464924078,-0.0025798690587209645,-0.0026963600500401782,-0.0030452638646908275,-0.0024252162702407794,-0.0023897353914569402,-0.002525832580343296,-0.0024729675874040884,-0.002607020100517986,-0.0030427614367368426,-0.0025865622665426262,-0.0030447176212743893,-0.0026329631062894693,-0.002572810169449479,-0.002576254093633774,-0.0030433902809626177,-0.0024970080996797243,-0.0030453515313392772,-0.003045863697891553,-0.003044731362594576,-0.002483411051158196,-0.0025523866605286437,-0.0026493235474154488,-0.0030436223369845277,-0.0027169308762840854,-0.0025147544003315367,-0.0024807390887898835,-0.003045750576531491,-0.002679207133328753,-0.014281601960717046,-0.0026224399612346802,-0.0030462391403625797,-0.003046778379891917,-0.002538092912747714,-0.0026059361676825338,-0.0030461098073756012,-0.002617049272268894,-0.0030465323102560004,-0.0026335664539283176,-0.002609068338456379,-0.0024479748144604005,-0.0025793036368110035,-0.0030462817927524675,-0.0026480504808089112,-0.0024950273813453285,-0.0025095605642811067,-0.00243189559108157,-0.00259606903636004,-0.0026019433909925727,-0.002621296915437398,-0.0026276630130225237,-0.0025986369303099095,-0.010120275247568002,-0.002656666620697784,-0.0030476972896636913,-0.0030482794092378833,-0.0024881413643376552,-0.0030477267095325913,-0.003046509898708502,-0.003047974277848747,-0.003047493645758669,-0.002646001947760998,-0.003047574792942704,-0.0025571111142606265,-0.00260495718829698,-0.0026095380457306643,-0.0025101174765160992,-0.0025065207014750104,-0.0026790638960973324,-0.00250532899794506,-0.002603093536419477,-0.0026651318219177546,-0.0025937148114121007,-0.0026518106339113736,-0.0030474152464738885,-0.0025576891142425843,-0.0024053962691590477,-0.002511325010498446,-0.002642151333655495,-0.00246630614731379,-0.0026060349076249714,-0.0024564393655342144,-0.0026425403787063598,-0.0030482938916533316,-0.002687935508195862,-0.0023640964802695143,-0.002518842341550087,-0.0025713183332375703,-0.002471851895890661,-0.002486532513013227,-0.002436774027077343,-0.0027825898473661115,-0.002656132404707234,-0.0030477524268162524,-0.002319769022175494,-0.0027299323126278117,-0.002624199613199914,-0.0030483021753867573,-0.002568377784121942,-0.0025080145941143786,-0.002411079761122014,-0.002633949847554667,-0.002700354333363796,-0.0030477461013870178,-0.002643225477181944,-0.0026899909101020577,-0.0024650012260993095,-0.0026309291812723905,-0.002505662671228314,-0.002552168266468177,-0.0024454734260947845,-0.002600427835196046,-0.0030481785903625565,-0.015019359430733964,-0.0027305213764884178,-0.0026164902162119892,-0.0030495104806562974,-0.002690710576282615,-0.002665405208547767,-0.003049664292892319,-0.002633378239727788,-0.0027005128016969198,-0.0026837910612736945,-0.0026119361670674498,-0.003049750279673978,-0.003049403570247235,-0.0025252331280250077,-0.0026094346018279394,-0.0025073689496884575,-0.0026410368361392557,-0.0024758634981698006,-0.002564860281088842,-0.002643149548183529,-0.0025494932962012748,-0.0030498459294420427,-0.0026695897664863427,-0.00261444816787261,-0.002630483572676952,-0.0025943908476240784,-0.0030497813941376298,-0.0026249053036490884,-0.003049878157923685,-0.0028058384339942444,-0.003049481605089748,-0.0025028603106359466,-0.0025948432598511175,-0.003049807017571839,-0.002474527755620507,-0.0030503418514602927,-0.0024447646205282524,-0.0030497236084707753,-0.002650368546061904,-0.002608758175563102,-0.0025782236395836063,-0.002376878980081251,-0.00265429702663943,-0.002615299576989555,-0.002462582903409376,-0.0025088231605001144,-0.0026006162438722137,-0.0026053872158755967,-0.0026743671484503904,-0.003050083732798334,-0.0026410222088810516,-0.002703556139781095,-0.002340794433075772,-0.0025999696721835056,-0.0025884253908782014,-0.0027250242989160177,-0.003049705408100409,-0.0026486905081262286,-0.0026924443989939824,-0.002467514912144634,-0.0030499811657443993,-0.0030499586865668435,-0.0025935307658204823,-0.0026253541673604635,-0.0026979036413214085,-0.0026960628553971996,-0.0030506014074011744,-0.002647132279924239,-0.011901207917140003,-0.002561232746326074,-0.002562057264190346,-0.0027261850390367876,-0.0026969163035443456,-0.002661837699893796,-0.0026129298564734537,-0.0030515461143135487,-0.002567757356763512,-0.002691177951292201,-0.0025542192334038153,-0.003051173120755986,-0.0024363858235993087,-0.003051507563192054,-0.002516799857417722,-0.002558702818917603,-0.0026260164645700904,-0.003051550961869278,-0.0030514854848646238,-0.0026633507711750436,-0.0026196947388207326,-0.0024456786274460723,-0.0026040412247581805,-0.0026225319756153775,-0.0026501847217959068,-0.0026171891604687453,-0.0030513272898233424,-0.00261991996705908,-0.0025957179038528784,-0.0030512805583845165,-0.002642244730163207,-0.002644128778527749,-0.003051369727747094,-0.002549396301026555,-0.002499378766998818,-0.013655623846528655,-0.005643323168632447,-0.0024766920127397797,-0.0024220667038360893,-0.002497849235911998,-0.0027547955491858435,-0.0025704858774054074,-0.0026020377182208046,-0.002469192573789876,-0.0025401027910806986,-0.0025205358896333175,-0.0026838688836649813,-0.002443082715166382,-0.0027256191338255248,-0.0025505590033513387,-0.002590647592956161,-0.0026718167861565435,-0.0026199604242438173,-0.0025149858918659413,-0.002546706143865094,-0.0025178481801019447,-0.002607697256449003,-0.020457789185092553,-0.0027060728306408325,-0.0027780186323171896,-0.0027689789770845635,-0.0027133184377396463,-0.002717234866875632,-0.002622515666447806,-0.014352254607285207,-0.002671842721637384,-0.0025834692435986336,-0.0025714207036837207,-0.0024987315498637727,-0.002626491524331164,-0.0025643586098696757,-0.002591071134600627,-0.0026620938929788327,-0.002684957995120296,-0.002622291798428563,-0.0027023908182831945,-0.002503464009254892,-0.002501566894666626,-0.002665128317032273,-0.002623581977298253,-0.008582158286500842,-0.0025898589566685486,-0.0025677580568622014,-0.0025639434330601086,-0.002409708089842517,-0.002575096410927779,-0.0026388336509390307,-0.002770036865936915,-0.0023806770308270287,-0.0026017565755122947,-0.0025091987653130944,-0.0024404544668579693,-0.0025353667817551114,-0.0026237076904550203,-0.0025240134112144218,-0.002397259804254141,-0.0019275982763462683,-0.0027391782436206593,-0.00259675124165946,-0.002631657727716222,-0.0024908571587956784,-0.0025495000973103634,-0.0026852230301363184,-0.0027701953854259087,-0.0024912814898149353,-0.0024170832172441463,-0.0027529185280631553,-0.0025404417189118177,-0.0025784502280447267,-0.0025419301616638875,-0.01382828679797337,-0.002704009881966843,-0.002551183880689519,-0.00259632133418386,-0.0024861207213837137,-0.002526172259706068,-0.0025015079026522013,-0.0025619529977241964,-0.0025015676343176623,-0.0023840405404929716,-0.0023328880743290663,-0.002543872031045949,-0.0025158308637398684,-0.002308235988010239,-0.0025364114164106257,-0.002723636653017187,-0.002710738503878184,-0.0024285648230832984,-0.0025057096229879794,-0.0027412415905282935,-0.013178476971380484,-0.002589701927606486,-0.002682463616956611,-0.002626649655709399,-0.0026893024986431183,-0.0025114297399171158,-0.002706767652849294,-0.0026663798126221306,-0.0025790672293101082,-0.002732505513509337,-0.0026472116779927266,-0.0025001747106432924,-0.0026220567687941145,-0.0025789053283414545,-0.0025613790820142104,-0.002777117343978238,-0.0024664116389259494,-0.0026503941180897337,-0.0028010714608069994,-0.002512357590852179,-0.0026588835622843184,-0.0037521795149860963,-0.0027154087620166888,-0.002611223289662951,-0.0025377612317385606,-0.0027358497633121525,-0.0026326392984364145,-0.002760998600100757,-0.0026028127954245694,-0.0025443667921056998,-0.0024740637004161507,-0.0025516086246148055,-0.0025457602729783858,-0.0026002370628072148,-0.002481309808072673,-0.0026199856549293616,-0.0024939592781923433,-0.0025522436857286445,-0.0025397182472893342,-0.013687910677755852,-0.0027114238447601266,-0.002521650348872632,-0.002628510994758802,-0.00252522984585929,-0.0025403080076341197,-0.0026788413682867847,-0.002914907239077836,-0.0024843986827622613,-0.002566485723789613,-0.0025414293640029072,-0.002535339491361707,-0.002635086236945475,-0.0025371569017418882,-0.0026331760990989557,-0.0027552408968287726,-0.00248086814562784,-0.002722491224539547,-0.0024544686626389524,-0.0026940979694305136,-0.002447174903624392,-0.0026372941808018363,-0.00257679430322482,-0.0027086967474514827,-0.0025676238909503792,-0.0025378762936725846,-0.0023806389778329913,-0.0024539697357783092,-0.014284566853289727,-0.0026614914742136156,-0.0023847873355166823,-0.002634834727062837,-0.0025765970220921488,-0.002482380189291273,-0.0025702758950371576,-0.002517496510281053,-0.0027356430499288894,-0.002621427674297711,-0.0026789965027771753,-0.0025692882006656003,-0.0028216419931708626,-0.0026375439467093177,-0.0023773112372909807,-0.002691841672668206,-0.002715068521060921,-0.002375151362632138,-0.002525643979963683,-0.0026298573625850134,-0.0026542005693637547,-0.0024905205871650032,-0.0026874040130282933,-0.002577730274228045,-0.0025160506213121486,-0.0025829429687225414,-0.0024751088783812837,-0.002713002980210805,-0.0032525768833876756,-0.002534598337958085,-0.0024712831849692573,-0.0024442075482063413,-0.002588371454265167,-0.002691152345148404,-0.002714581516947087,-0.0026979965710281838,-0.0024657491876130034,-0.0026484700131691463,-0.0027666737162465654,-0.0025443415468023307,-0.002706276628553194,-0.0024504618603462826,-0.002461016274820848,-0.002571609516670635,-0.0027637393449995136,-0.0027098942708512264,-0.0026708552696148745,-0.00242662827490058,-0.00263012151312066,-0.0025463190352482713,-0.0025506375165711115,-0.002396001077921992,-0.0026331759835884366,-0.002469900197629437,-0.002701043859122229,-0.00259046200475282,-0.00244468738379343,-0.002602909630601337,-0.0025798985743799414,-0.0027011284613827767,-0.00263612852825015,-0.002587197096857406,-0.002678826027381692,-0.002513106057235403,-0.002546685018476313,-0.0024633425302639073,-0.0026287687156003156,-0.0025158388215622105,-0.00259931995545243,-0.0143223826672408,-0.002644422871211934,-0.002605604034933775,-0.0025559153607251786,-0.002828850430543905,-0.002430079523264686,-0.00251808804706561,-0.002631554399948932,-0.0014179638032455458,-0.0024273208052073654,-0.0025411150297680375,-0.0026154434364772136,-0.0027783836062141073,-0.002570951814833974,-0.0025285003887603164,-0.002496061261387315,-0.002538264991806641,-0.0024943211320265684,-0.002494929040825166,-0.0027223685205653766,-0.0026469352531080354,-0.0027238529628613893,-0.002617397339065479,-0.0027170401720288733,-0.002506704050860889,-0.0025168168266427237,-0.0026891708950259325
3,-13164169.376181941,-13164169.376181941,-13164169.376181943,-13164169.376181943,-13164169.376181943,-13164169.376181943,-13164169.376181945,-13164169.376181945,-13164169.376181945,-13164169.376181945,-13164169.376181947,-13164169.376181947,-13164169.376181947,-13164169.376181947,-13164169.376181949,-13164169.376181949,-13164169.376181949,-13164169.37618195,-13164169.37618195,-13164169.37618195,-13164169.37618195,-13164169.376181953,-13164169.376181953,-13164169.376181953,-13164169.376181953,-13164169.376181955,-13164169.376181955,-13164169.376181955,-13164169.376181955,-13164169.376181956,-13164169.376181956,-13164169.376181956,-13164169.376181956,-13164169.376181958,-13164169.376181958,-13164169.376181958,-13164169.37618196,-13164169.37618196,-13164169.37618196,-13164169.37618196,-13164169.376181962,-13164169.376181962,-13164169.376181962,-13164169.376181962,-13164169.376181964,-13164169.376181964,-13164169.376181964,-13164169.376181964,-13164169.376181966,-13164169.376181966,-13164169.376181966,-13164169.376181966,-13164169.376181968,-13164169.376181968,-13164169.376181968,-13164169.376181968,-13164169.37618197,-13164169.37618197,-13164169.37618197,-13164169.376181971,-13164169.376181971,-13164169.376181971,-13164169.376181971,-13164169.376181973,-13164169.376181973,-13164169.376181973,-13164169.376181973,-13164169.376181975,-13164169.376181975,-13164169.376181975,-13164169.376181975,-13164169.376181977,-13164169.376181977,-13164169.376181977,-13164169.376181977,-13164169.376181979,-13164169.376181979,-13164169.376181979,-13164169.376181979,-13164169.37618198,-13164169.37618198,-13164169.37618198,-13164169.376181982,-13164169.376181982,-13164169.376181982,-13164169.376181982,-13164169.376181984,-13164169.376181984,-13164169.376181984,-13164169.376181984,-13164169.376181986,-13164169.376181986,-13164169.376181986,-13164169.376181986,-13164169.376181988,-13164169.376181988,-13164169.376181988,-13164169.376181988,-13164169.37618199,-13164169.37618199,-13164169.37618199,-13164169.37618199,-13164169.376181992,-13164169.376181992,-13164169.376181992,-13164169.376181992,-13164169.376181994,-13164169.376181994,-13164169.376181994,-13164169.376181995,-13164169.376181995,-13164169.376181995,-13164169.376181995,-13164169.376181997,-13164169.376181997,-13164169.376181997,-13164169.376181997,-13164169.376182,-13164169.376182,-13164169.376182,-13164169.376182,-13164169.376182001,-13164169.376182001,-13164169.376182001,-13164169.376182001,-13164169.376182003,-13164169.376182003,-13164169.376182003,-13164169.376182003,-13164169.376182005,-13164169.376182005,-13164169.376182005,-13164169.376182005,-13164169.376182007,-13164169.376182007,-13164169.376182007,-13164169.376182009,-13164169.376182009,-13164169.376182009,-13164169.376182009,-13164169.37618201,-13164169.37618201,-13164169.37618201,-13164169.37618201,-13164169.376182012,-13164169.376182012,-13164169.376182012,-13164169.376182012,-13164169.376182014,-13164169.376182014,-13164169.376182014,-13164169.376182014,-13164169.376182016,-13164169.376182016,-13164169.376182016,-13164169.376182016,-13164169.376182018,-13164169.376182018,-13164169.376182018,-13164169.376182018,-13164169.37618202,-13164169.37618202,-13164169.37618202,-13164169.37618202,-13164169.376182022,-13164169.376182022,-13164169.376182022,-13164169.376182023,-13164169.376182023,-13164169.376182023,-13164169.376182023,-13164169.376182025,-13164169.376182025,-13164169.376182025,-13164169.376182025,-13164169.376182027,-13164169.376182027,-13164169.376182027,-13164169.376182027,-13164169.376182029,-13164169.376182029,-13164169.376182029,-13164169.376182029,-13164169.37618203,-13164169.37618203,-13164169.37618203,-13164169.37618203,-13164169.376182033,-13164169.376182033,-13164169.376182033,-13164169.376182033,-13164169.376182035,-13164169.376182035,-13164169.376182035,-13164169.376182035,-13164169.376182036,-13164169.376182036,-13164169.376182036,-13164169.376182036,-13164169.376182038,-13164169.376182038,-13164169.376182038,-13164169.37618204,-13164169.37618204,-13164169.37618204,-13164169.37618204,-13164169.376182042,-13164169.376182042,-13164169.376182042,-13164169.376182042,-13164169.376182044,-13164169.376182044,-13164169.376182044,-13164169.376182044,-13164169.376182046,-13164169.376182046,-13164169.376182046,-13164169.376182046,-13164169.376182048,-13164169.376182048,-13164169.376182048,-13164169.376182048,-13164169.37618205,-13164169.37618205,-13164169.37618205,-13164169.37618205,-13164169.376182051,-13164169.376182051,-13164169.376182051,-13164169.376182051,-13164169.376182053,-13164169.376182053,-13164169.376182053,-13164169.376182053,-13164169.376182055,-13164169.376182055,-13164169.376182055,-13164169.376182055,-13164169.376182057,-13164169.376182057,-13164169.376182057,-13164169.376182057,-13164169.376182059,-13164169.376182059,-13164169.376182059,-13164169.37618206,-13164169.37618206,-13164169.37618206,-13164169.37618206,-13164169.376182063,-13164169.376182063,-13164169.376182063,-13164169.376182063,-13164169.376182064,-13164169.376182064,-13164169.376182064,-13164169.376182064,-13164169.376182066,-13164169.376182066,-13164169.376182066,-13164169.376182066,-13164169.376182068,-13164169.376182068,-13164169.376182068,-13164169.376182068,-13164169.37618207,-13164169.37618207,-13164169.37618207,-13164169.37618207,-13164169.376182072,-13164169.376182072,-13164169.376182072,-13164169.376182072,-13164169.376182074,-13164169.376182074,-13164169.376182074,-13164169.376182074,-13164169.376182076,-13164169.376182076,-13164169.376182076,-13164169.376182076,-13164169.376182077,-13164169.376182077,-13164169.376182077,-13164169.376182077,-13164169.37618208,-13164169.37618208,-13164169.37618208,-13164169.37618208,-13164169.376182081,-13164169.376182081,-13164169.376182081,-13164169.376182081,-13164169.376182083,-13164169.376182083,-13164169.376182083,-13164169.376182083,-13164169.376182085,-13164169.376182085,-13164169.376182085,-13164169.376182087,-13164169.376182087,-13164169.376182087,-13164169.376182087,-13164169.376182089,-13164169.376182089,-13164169.376182089,-13164169.376182089,-13164169.37618209,-13164169.37618209,-13164169.37618209,-13164169.37618209,-13164169.376182092,-13164169.376182092,-13164169.376182092,-13164169.376182092,-13164169.376182094,-13164169.376182094,-13164169.376182094,-13164169.376182094,-13164169.376182096,-13164169.376182096,-13164169.376182096,-13164169.376182096,-13164169.376182098,-13164169.376182098,-13164169.376182098,-13164169.376182098,-13164169.3761821,-13164169.3761821,-13164169.3761821,-13164169.3761821,-13164169.376182102,-13164169.376182102,-13164169.376182102,-13164169.376182102,-13164169.376182104,-13164169.376182104,-13164169.376182104,-13164169.376182104,-13164169.376182105,-13164169.376182105,-13164169.376182105,-13164169.376182105,-13164169.376182107,-13164169.376182107,-13164169.376182107,-13164169.376182107,-13164169.37618211,-13164169.37618211,-13164169.37618211,-13164169.37618211,-13164169.376182111,-13164169.376182111,-13164169.376182111,-13164169.376182111,-13164169.376182113,-13164169.376182113,-13164169.376182113,-13164169.376182113,-13164169.376182115,-13164169.376182115,-13164169.376182115,-13164169.376182115,-13164169.376182117,-13164169.376182117,-13164169.376182117,-13164169.376182117,-13164169.376182118,-13164169.376182118,-13164169.376182118,-13164169.376182118,-13164169.37618212,-13164169.37618212,-13164169.37618212,-13164169.37618212,-13164169.376182122,-13164169.376182122,-13164169.376182122,-13164169.376182122,-13164169.376182124,-13164169.376182124,-13164169.376182124,-13164169.376182124,-13164169.376182126,-13164169.376182126,-13164169.376182126,-13164169.376182126,-13164169.376182128,-13164169.376182128,-13164169.376182128,-13164169.376182128,-13164169.37618213,-13164169.37618213,-13164169.37618213,-13164169.37618213,-13164169.376182131,-13164169.376182131,-13164169.376182131,-13164169.376182131,-13164169.376182133,-13164169.376182133,-13164169.376182133,-13164169.376182133,-13164169.376182135,-13164169.376182135,-13164169.376182135,-13164169.376182135,-13164169.376182137,-13164169.376182137,-13164169.376182137,-13164169.376182137,-13164169.376182139,-13164169.376182139,-13164169.376182139,-13164169.376182139,-13164169.37618214,-13164169.37618214,-13164169.37618214,-13164169.37618214,-13164169.376182143,-13164169.376182143,-13164169.376182143,-13164169.376182143,-13164169.376182145,-13164169.376182145,-13164169.376182145,-13164169.376182145,-13164169.376182146,-13164169.376182146,-13164169.376182146,-13164169.376182146,-13164169.376182148,-13164169.376182148,-13164169.376182148,-13164169.376182148,-13164169.37618215,-13164169.37618215,-13164169.37618215,-13164169.37618215,-13164169.376182152,-13164169.376182152,-13164169.376182152,-13164169.376182152,-13164169.376182154,-13164169.376182154,-13164169.376182154,-13164169.376182154,-13164169.376182156,-13164169.376182156,-13164169.376182156,-13164169.376182156,-13164169.376182158,-13164169.376182158,-13164169.376182158,-13164169.376182158,-13164169.37618216,-13164169.37618216,-13164169.37618216,-13164169.37618216,-13164169.376182161,-13164169.376182161,-13164169.376182161,-13164169.376182161,-13164169.376182163,-13164169.376182163,-13164169.376182163,-13164169.376182163,-13164169.376182165,-13164169.376182165,-13164169.376182165,-13164169.376182165,-13164169.376182167,-13164169.376182167,-13164169.376182167,-13164169.376182167,-13164169.376182169,-13164169.376182169,-13164169.376182169,-13164169.376182169,-13164169.37618217,-13164169.37618217,-13164169.37618217,-13164169.37618217,-13164169.376182172,-13164169.376182172,-13164169.376182172,-13164169.376182172,-13164169.376182174,-13164169.376182174,-13164169.376182174,-13164169.376182174,-13164169.376182176,-13164169.376182176,-13164169.376182176,-13164169.376182176,-13164169.376182178,-13164169.376182178,-13164169.376182178,-13164169.376182178,-13164169.37618218,-13164169.37618218,-13164169.37618218,-13164169.37618218,-13164169.376182182,-13164169.376182182,-13164169.376182182,-13164169.376182182,-13164169.376182184,-13164169.376182184,-13164169.376182184,-13164169.376182184,-13164169.376182185,-13164169.376182185,-13164169.376182185,-13164169.376182185,-13164169.376182187,-13164169.376182187,-13164169.376182187,-13164169.376182187,-13164169.37618219,-13164169.37618219,-13164169.37618219,-13164169.37618219,-13164169.376182191,-13164169.376182191,-13164169.376182191,-13164169.376182191,-13164169.376182193,-13164169.376182193,-13164169.376182193,-13164169.376182193,-13164169.376182195,-13164169.376182195,-13164169.376182195,-13164169.376182195,-13164169.376182197,-13164169.376182197,-13164169.376182197,-13164169.376182197,-13164169.376182199,-13164169.376182199,-13164169.376182199,-13164169.376182199,-13164169.3761822,-13164169.3761822,-13164169.3761822,-13164169.3761822,-13164169.376182202,-13164169.376182202,-13164169.376182202,-13164169.376182202,-13164169.376182202,-13164169.376182204,-13164169.376182204,-13164169.376182204,-13164169.376182204,-13164169.376182206,-13164169.376182206,-13164169.376182206,-13164169.376182206,-13164169.376182208,-13164169.376182208,-13164169.376182208,-13164169.376182208,-13164169.37618221,-13164169.37618221,-13164169.37618221,-13164169.37618221,-13164169.376182212,-13164169.376182212,-13164169.376182212,-13164169.376182212,-13164169.376182213,-13164169.376182213,-13164169.376182213,-13164169.376182213,-13164169.376182215,-13164169.376182215,-13164169.376182215,-13164169.376182215,-13164169.376182217,-13164169.376182217,-13164169.376182217,-13164169.376182217,-13164169.376182219,-13164169.376182219,-13164169.376182219,-13164169.376182219,-13164169.37618222,-13164169.37618222,-13164169.37618222,-13164169.37618222,-13164169.376182223,-13164169.376182223,-13164169.376182223,-13164169.376182223,-13164169.376182225,-13164169.376182225,-13164169.376182225,-13164169.376182225,-13164169.376182226,-13164169.376182226,-13164169.376182226,-13164169.376182226,-13164169.376182228,-13164169.376182228,-13164169.376182228,-13164169.376182228,-13164169.376182228,-13164169.37618223,-13164169.37618223,-13164169.37618223,-13164169.37618223,-13164169.376182232,-13164169.376182232,-13164169.376182232,-13164169.376182232,-13164169.376182234,-13164169.376182234,-13164169.376182234,-13164169.376182234,-13164169.376182236,-13164169.376182236,-13164169.376182236,-13164169.376182236,-13164169.376182238,-13164169.376182238,-13164169.376182238,-13164169.376182238,-13164169.37618224,-13164169.37618224,-13164169.37618224,-13164169.37618224,-13164169.376182241,-13164169.376182241,-13164169.376182241,-13164169.376182241,-13164169.376182243,-13164169.376182243,-13164169.376182243,-13164169.376182243,-13164169.376182245,-13164169.376182245,-13164169.376182245,-13164169.376182245,-13164169.376182247,-13164169.376182247,-13164169.376182247,-13164169.376182247,-13164169.376182247,-13164169.376182249,-13164169.376182249,-13164169.376182249,-13164169.376182249,-13164169.37618225,-13164169.37618225,-13164169.37618225,-13164169.37618225,-13164169.376182253,-13164169.376182253,-13164169.376182253,-13164169.376182253,-13164169.376182254,-13164169.376182254,-13164169.376182254,-13164169.376182254,-13164169.376182256,-13164169.376182256,-13164169.376182256,-13164169.376182256,-13164169.376182258,-13164169.376182258,-13164169.376182258,-13164169.376182258,-13164169.37618226,-13164169.37618226,-13164169.37618226,-13164169.37618226,-13164169.376182262,-13164169.376182262,-13164169.376182262,-13164169.376182262,-13164169.376182264,-13164169.376182264,-13164169.376182264,-13164169.376182264,-13164169.376182264,-13164169.376182266,-13164169.376182266,-13164169.376182266,-13164169.376182266,-13164169.376182267,-13164169.376182267,-13164169.376182267,-13164169.376182267,-13164169.37618227,-13164169.37618227,-13164169.37618227,-13164169.37618227,-13164169.376182271,-13164169.376182271,-13164169.376182271,-13164169.376182271,-13164169.376182273,-13164169.376182273,-13164169.376182273,-13164169.376182273,-13164169.376182275,-13164169.376182275,-13164169.376182275,-13164169.376182275,-13164169.376182277,-13164169.376182277,-13164169.376182277,-13164169.376182277,-13164169.376182279,-13164169.376182279,-13164169.376182279
