,0,1,2,3,4,5,6,7,8,9,10,11,12,13,14,15,16,17,18,19,20,21,22,23,24,25,26,27,28,29,30,31,32,33,34,35,36,37,38,39,40,41,42,43,44,45,46,47,48,49,50,51,52,53,54,55,56,57,58,59,60,61,62,63,64,65,66,67,68,69,70,71,72,73,74,75,76,77,78,79,80,81,82,83,84,85,86,87,88,89,90,91,92,93,94,95,96,97,98,99,100,101,102,103,104,105,106,107,108,109,110,111,112,113,114,115,116,117,118,119,120,121,122,123,124,125,126,127,128,129,130,131,132,133,134,135,136,137,138,139,140,141,142,143,144,145,146,147,148,149,150,151,152,153,154,155,156,157,158,159,160,161,162,163,164,165,166,167,168,169,170,171,172,173,174,175,176,177,178,179,180,181,182,183,184,185,186,187,188,189,190,191,192,193,194,195,196,197,198,199,200,201,202,203,204,205,206,207,208,209,210,211,212,213,214,215,216,217,218,219,220,221,222,223,224,225,226,227,228,229,230,231,232,233,234,235,236,237,238,239,240,241,242,243,244,245,246,247,248,249,250,251,252,253,254,255,256,257,258,259,260,261,262,263,264,265,266,267,268,269,270,271,272,273,274,275,276,277,278,279,280,281,282,283,284,285,286,287,288,289,290,291,292,293,294,295,296,297,298,299,300,301,302,303,304,305,306,307,308,309,310,311,312,313,314,315,316,317,318,319,320,321,322,323,324,325,326,327,328,329,330,331,332,333,334,335,336,337,338,339,340,341,342,343,344,345,346,347,348,349,350,351,352,353,354,355,356,357,358,359,360,361,362,363,364,365,366,367,368,369,370,371,372,373,374,375,376,377,378,379,380,381,382,383,384,385,386,387,388,389,390,391,392,393,394,395,396,397,398,399,400,401,402,403,404,405,406,407,408,409,410,411,412,413,414,415,416,417,418,419,420,421,422,423,424,425,426,427,428,429,430,431,432,433,434,435,436,437,438,439,440,441,442,443,444,445,446,447,448,449,450,451,452,453,454,455,456,457,458,459,460,461,462,463,464,465,466,467,468,469,470,471,472,473,474,475,476,477,478,479,480,481,482,483,484,485,486,487,488,489,490,491,492,493,494,495,496,497,498,499,500,501,502,503,504,505,506,507,508,509,510,511,512,513,514,515,516,517,518,519,520,521,522,523,524,525,526,527,528,529,530,531,532,533,534,535,536,537,538,539,540,541,542,543,544,545,546,547,548,549,550,551,552,553,554,555,556,557,558,559,560,561,562,563,564,565,566,567,568,569,570,571,572,573,574,575,576,577,578,579,580,581,582,583,584,585,586,587,588,589,590,591,592,593,594,595,596,597,598,599,600,601,602,603,604,605,606,607,608,609,610,611,612,613,614,615,616,617,618,619,620,621,622,623,624,625,626,627,628,629,630,631,632,633,634,635,636,637,638,639,640,641,642,643,644,645,646,647,648,649,650,651,652,653,654,655,656,657,658,659,660,661,662,663,664,665,666,667,668,669,670,671,672,673,674,675,676,677,678,679,680,681,682,683,684,685,686,687,688,689,690,691,692,693,694,695,696,697,698,699,700,701,702,703,704,705,706,707,708,709,710,711,712,713,714,715,716,717,718,719,720,721,722,723,724,725,726,727,728,729,730,731,732,733,734,735,736,737,738,739,740,741,742,743,744,745,746,747,748,749,750,751,752,753,754,755,756,757,758,759,760,761,762,763,764,765,766,767,768,769,770,771,772,773,774,775,776,777,778,779,780,781,782,783,784,785,786,787,788,789,790,791,792,793,794,795,796,797,798,799
0,-2317.2095570672004,-2198.468587499994,-3958.283836694391,-3571.3092876675337,-2136.4334766641323,-2076.5457874562235,-3109.2111838235433,-2740.2871521710986,-2205.666726455412,-3426.222174149542,-1904.3935596387375,-2092.105171596982,-3168.8340374482036,-2223.8452780462085,-3257.7636547477427,-1711.1660160134272,-2075.647272733564,-3406.6730861186415,-2785.8439822982996,-2393.098229931662,-2122.757822592649,-1894.6208503594796,-3102.07897210505,-1944.4235294989335,-2186.889708720263,-3734.4461890106404,-2966.0612897521864,-2215.7817952338282,-1737.356054866401,-3298.293509569001,-3397.0719957744477,-2105.3034650706213,-3009.5602575846106,-2232.5817466797594,-1806.432166298053,-3351.838469656267,-3267.726849551434,-2134.6150579686378,-2087.746830927218,-3410.5247157685244,-2191.719280461776,-2067.7037943636947,-3183.3514891764835,-3336.5696336645606,-2036.0574522433826,-3254.9510541179425,-3358.1824733113285,-3495.6320154995647,-2210.7964939263197,-3031.5544316168475,-3284.0487848120133,-1887.252504628291,-3704.252292079779,-2922.1669332914794,-2040.808615122457,-2496.8885557669705,-3652.5778612178487,-2080.0628832024513,-2120.2737570640297,-3387.4606390964414,-1976.7509398663335,-2023.3966451643716,-1922.2178207425404,-2542.809712066975,-2255.6311076937777,-2189.2605091540404,-1790.08944059289,-1719.1337068020737,-2394.014873530006,-2010.863301341959,-1989.417852091989,-2880.7833934189234,-2375.240785425265,-2296.4641294939643,-3642.729199188957,-2515.9027724199937,-2345.3870317279116,-1800.7565877691009,-1943.0596963195053,-3148.7283598996446,-1916.486923430563,-2105.657453495206,-2304.164772178335,-3499.1980972785514,-3344.0911029184363,-1787.3055646071361,-3724.9099671425456,-3104.8765992986296,-2182.9205563954924,-3656.4293308286747,-3550.091300651942,-2097.7234207636106,-2070.4055494604536,-2017.802832957826,-2923.8657286281164,-2271.76693448709,-2056.409174713326,-3628.6544118198067,-1747.2216992052547,-1789.7466422667694,-1724.1219215432388,-1676.8763278090562,-2174.1070990708395,-3503.3044151750305,-3460.4614635062194,-2081.141977264681,-1742.9878192977342,-3758.970617413376,-2084.609607935111,-2114.8843191186993,-3556.734705829681,-3679.2968277425202,-2046.9032459259734,-2233.7326962946136,-3569.9965906188886,-2065.9442055676886,-1805.5539546404818,-3594.8166353614984,-3362.6426630967267,-1803.8866426442314,-2381.757789465654,-3036.9464244618744,-2137.3657009760273,-1850.7461060432108,-3668.354009969074,-2699.506463312629,-1977.665762559642,-3340.8217925419412,-1971.870312690597,-2160.1429092152357,-3625.086478465393,-2452.4698365810873,-2174.6496314503556,-3525.1373035602696,-3540.561445979647,-1996.4331700980063,-2123.1166667945413,-1860.8274833252572,-2763.2067768603392,-2208.048272796386,-3646.2876289024357,-2054.9188929605125,-2219.315281167723,-2135.10407569028,-2131.462066865828,-3100.6400943608214,-2247.5360784908544,-3263.293828393176,-3509.6855355997195,-2124.6328981685233,-3618.0747796046694,-3144.8650465579167,-2862.9305084801895,-2147.081423755708,-3220.027964679296,-3072.7010250048315,-3424.408591864861,-2126.348464152295,-1799.014822553055,-3813.558878272464,-1908.292464430932,-2042.257305905345,-1713.7058584091078,-2863.6992326726186,-2161.7540937853846,-2099.1464235345084,-3569.2074529993156,-3016.683762106817,-1994.2270930756624,-2298.609594919979,-3729.9164449448867,-2071.073954912958,-2003.1342195567706,-3277.9461290070403,-3464.230755409628,-2192.6206216620244,-2022.3644417422984,-3698.9970508079323,-1919.9499553600465,-2410.848632565596,-3729.4589813690222,-2197.912026678594,-1920.6648938216417,-3869.9687633366643,-3867.0556017799086,-3664.3996744968217,-2261.9250749639177,-2451.6022164583733,-3575.5187183097682,-3362.392854775159,-2109.1492021727236,-2251.7028665464263,-1662.7702087335042,-2279.308778826796,-1869.1053022590397,-3580.3013970089282,-1984.9356614230912,-1954.7718722348486,-3014.5757758454515,-3473.74970835857,-2956.5368850927193,-2298.4447318488315,-3499.843712190609,-3383.201059406707,-1828.557719702423,-3546.696903452708,-3671.96542810777,-3113.9386505492466,-3060.540028989579,-3324.7151496622882,-1773.069879316633,-2111.1642937428596,-2193.5011174352567,-1702.9844608146173,-1664.5231896908133,-1959.5242107969266,-3472.5166045573174,-3309.9715160120604,-2069.6601585969934,-3245.1740341724,-3234.0921367555493,-3209.3105769818594,-2070.720611558783,-1696.7892869574973,-3046.993432793247,-3289.1278671661757,-1980.2277580852924,-1756.0832580341464,-3539.4490304652927,-1788.844164102044,-2250.969490625424,-1688.8248769177906,-3159.010545295216,-2017.5180421006812,-1612.6971844315085,-3353.6205547000545,-3438.9116655906996,-2224.5287893474315,-1902.1083697235754,-3229.7276571517477,-1965.3906371723867,-1644.0044338751086,-3402.511251756133,-2041.8123526219024,-1930.4042552236021,-2705.7502617458636,-1823.7844883904736,-2379.5844543472303,-3358.0458029358797,-2188.395701297871,-2052.537203625901,-3253.955779334516,-3079.430405863642,-1834.1944672677398,-2225.2609181969106,-2924.361259969803,-3440.7775997055464,-2148.693593272292,-1884.206855834888,-1978.4112196255328,-2556.009512204358,-2118.916783887138,-3181.7698535185473,-2389.747002398998,-2356.306094082901,-3424.6490966265737,-3293.136214509485,-1691.4907789495533,-2091.5425668499333,-3728.7154090699582,-1999.316904419406,-1749.5415026901742,-3132.215872642147,-2171.1512709848002,-2101.563246910018,-3847.091716607417,-2170.874166168064,-2097.0228741706997,-3402.678971456315,-1757.5274809269513,-2019.9141894051347,-3559.671459635311,-1893.7464854209315,-1931.1648722473174,-3534.2517874346045,-1782.4446106241503,-2302.4281035787108,-3919.001891987638,-2175.4754950694164,-2360.6136391841537,-3867.9501166866917,-3764.917361647815,-3035.3178671075416,-3544.325624561081,-2246.2504932393244,-3802.032547595874,-3382.6137293013803,-1805.5487142172633,-2035.601789426124,-3652.9144246927667,-2510.9419074878156,-2072.376716683033,-3381.2663824607666,-1917.3065779852634,-2006.7396804213292,-3771.7894842503206,-2255.911652298743,-1763.0936019853248,-3382.6353058443196,-1635.0015328694813,-2154.9022649633775,-2041.4898275081403,-3703.7611122837416,-1910.8962102129344,-1752.897433573481,-2149.421005307683,-3396.271901852755,-2782.7604075600316,-2132.7266452680706,-3234.557477498703,-3870.577619806594,-2207.1152341059355,-1666.4372164450356,-1917.6156485571455,-2946.0830742126536,-1818.8937679692017,-1835.056310267482,-3922.8949929952664,-3485.0303575081102,-2169.553352021595,-3563.5084110215203,-2009.4180182308555,-2009.9913662527008,-3423.9629306469433,-1613.9614378909664,-2102.8452869672797,-3366.8072159529456,-3610.840717536056,-2062.147939596943,-3798.225192638138,-3677.3489008717506,-2066.8053144537653,-2135.539757665411,-3230.095390423816,-1876.7863525971322,-2028.3037057226497,-3702.250181019812,-2378.95163817461,-1947.3427313950867,-3848.5584565210197,-3652.582875998707,-3413.0924538834197,-2091.089082685634,-2075.041696290738,-1688.181739228068,-3240.421467205537,-1828.1703867368774,-1687.485694544681,-3443.505316970207,-3283.301408693242,-2170.3037673702293,-2139.4740165288554,-3748.4085190855058,-2837.1746907634283,-2206.8106041390442,-1916.7268990452596,-3331.0159657357076,-3344.9237367229907,-1793.1542932576488,-1720.3748174176617,-3164.007368000709,-3286.67084801849,-1733.043569693503,-1749.4777273262428,-3381.7052159858736,-3331.2598648168255,-2104.389488988071,-2473.8599119205837,-3317.7861392513073,-2267.2112237075094,-1933.775960331107,-3404.797038417972,-1781.5035419245992,-2177.195730257413,-3742.6331970372958,-3489.198966036555,-1811.5187951792936,-2276.787253878379,-3543.3925657780933,-1913.354331726077,-1828.0382572586882,-3369.1250289788036,-2020.7539480084413,-2293.543423307751,-1985.755372270594,-1884.5494916360105,-3183.231786661781,-2195.1496115255463,-1774.1742207041334,-3305.4647134588786,-3416.291531703634,-1804.1555272969601,-2008.640655159867,-3630.0642808536813,-1739.9429600388664,-1813.2258564514123,-2133.0568322506106,-1986.396279109568,-1842.916028095807,-2139.585696248876,-2216.213269734112,-2268.0410147400075,-3394.0344421415944,-2353.7945838994187,-2087.2647067026173,-2008.934060310077,-1987.286048761652,-2653.0083176478433,-2232.7928158527516,-1812.7110898622177,-2135.306991599302,-1816.9159798670232,-2191.0377218858866,-3474.8869220940196,-3509.92064751346,-3367.7721581452024,-2130.1190244968575,-2007.08501307702,-2354.805704696808,-3308.0757774275003,-1939.6125344723282,-1835.3050648474295,-1894.846282275219,-2328.1932857041884,-1809.4729191628212,-3255.784009046488,-2089.657369477505,-2080.1913878903288,-3297.529046648427,-2217.6202548004826,-2369.715206324516,-3589.8104888603275,-2268.680507085913,-1778.509505939276,-3639.302166876325,-1716.5299836137665,-2097.9862252789812,-3359.508099807286,-2527.609116545358,-3237.9358467392794,-2094.39616804853,-2265.015495581257,-3322.694321690239,-1702.0369439892245,-1890.2536481368136,-2869.055021714309,-3159.2636571204703,-3115.0864837233307,-3024.151255437128,-1888.6851793237197,-1687.3323439262936,-3078.1357928964494,-3377.4157853738625,-2057.295385413786,-3425.5902873805458,-3527.4390325401805,-2097.509999889588,-2003.8398635753954,-3300.667778730717,-1715.2337943121752,-1969.537719852326,-1628.8764726869176,-3535.2357386765952,-2198.4746784021977,-2249.910957734642,-3842.5438150097993,-3479.0796669201163,-2562.2336652824943,-1743.3982876641192,-3367.9787585625486,-1904.7013899720625,-1921.662826763175,-1811.428941840311,-1847.1813529680735,-3763.795495709911,-3465.281135681186,-1832.8369647471493,-2618.275243002111,-3064.871695125695,-2316.7620456029013,-1891.4333374913192,-3336.6976112366947,-3083.872016374191,-1807.4803525938505,-2285.0649506838417,-1885.728238070605,-3335.8827398410554,-2389.0915513154505,-2005.5240385716365,-3434.3983444652667,-2123.6794390796463,-2000.575661578866,-1926.8405887103752,-3348.6664997092557,-2185.383190932877,-1999.1973320986306,-3267.73652270117,-1980.662571126745,-2004.2819016520687,-2033.2003983227708,-3482.8232097981295,-2603.7587057557207,-1809.0021149644438,-2048.3631117036275,-3598.666247929696,-1770.8060211498391,-2363.9813206079584,-3632.569088288585,-1846.80786675495,-1959.6054206074775,-1772.0173951045128,-3575.213702091716,-1862.4749808850233,-1899.0448234191688,-2828.690138108204,-2949.057121402099,-1920.3472780311786,-2277.8464428324414,-3202.5154885958095,-3885.421544472672,-2007.7168741436305,-2228.5524183939633,-3742.0438589647842,-3461.523849274814,-1810.3107609077952,-3594.162534465494,-2040.7158434485762,-1754.8002936960968,-3209.5913115665885,-3043.5414644830826,-2269.596902834459,-1792.1170217573883,-3346.8704834133064,-2645.9528889887406,-3220.732706585168,-2075.040795536119,-3855.27312881727,-3389.233712453524,-2374.974440064399,-2988.089138705139,-2591.0804898105066,-2002.6548082818128,-1976.5073809420423,-3838.4738755121552,-2202.234318788881,-2186.8267266271746,-3363.5289702965993,-2394.266783394425,-1830.7087970027005,-3412.4842991785945,-3598.361432111974,-1895.8447521279465,-1794.8654229797685,-3358.081746146082,-2969.4582833295844,-2013.1096371409237,-3803.155475479506,-2079.429221907817,-2319.0558847303223,-3612.842445807115,-3374.2416076444765,-3752.1036742827127,-2084.1422282790104,-2339.255587404523,-3961.0472938848907,-3660.3390006074274,-2503.538024154029,-3626.9652520798722,-3171.70222535711,-3703.9886336746426,-1938.4588861818424,-2067.5657794780645,-3818.309830031333,-3646.2896021512433,-3559.7796813711457,-1840.6198399824677,-1808.325200882069,-2980.583347228683,-2531.517910057478,-3297.529127662954,-1842.091059026063,-1992.8229565460629,-3470.743812140532,-3278.5872858521743,-1785.5830713450853,-2018.89262766132,-2628.0861956879794,-3537.723900936548,-2922.3898287239663,-2175.5116889399455,-2070.3933475409467,-3829.198307974788,-1790.3874540152885,-1793.410984939885,-3412.692161518475,-3424.11862939211,-2223.7286617049585,-2560.001407638621,-2805.917675944911,-1950.7435148118695,-1781.8362465756525,-3199.140736134094,-3368.3024977278455,-1802.7427654714204,-2141.1530413369906,-3244.1388313579628,-3558.603643993066,-1853.4895855806942,-3766.647695180628,-3650.7993763574113,-2588.2415899238554,-1946.4285631255113,-2338.276271536456,-3576.6419062890495,-3088.7266407760467,-3510.9699050515187,-4093.5992020026715,-3330.4315951675558,-2023.7935579634825,-3962.048954353529,-2801.836836700493,-2251.740355784753,-2147.3191277833116,-2331.75924370054,-3765.504102525225,-1809.5862607215881,-2366.0788214055274,-3735.0713691022993,-1904.4191259312206,-2280.269525827883,-3794.808813010034,-3677.01264221154,-2479.446619009701,-3606.8367021987697,-3836.8556639844796,-3207.629748372687,-2214.042474983897,-2139.286626900132,-3797.1575752188255,-3687.0338128293397,-2211.8883556400183,-2169.832822738576,-3837.220734199007,-3611.45627275143,-2340.959404544291,-1933.8639510713222,-3654.226068597217,-3255.670949737857,-3087.6502966786234,-2164.4229806414996,-3386.6438308051384,-3576.813701264862,-3000.0296029156134,-2165.2871286505965,-2169.439133228483,-3742.503128589226,-3134.7100472369243,-1950.5811664028965,-2162.5430156092325,-3753.5115567927774,-3562.5199437707342,-2238.782946501019,-1915.5887418309203,-3266.186752278601,-3534.8169767224463,-2417.8833545298467,-1919.364646294346,-3200.0331221721094,-3661.861635296272,-2333.142440659071,-2326.9911289724655,-2150.209823066554,-3513.6762257048294,-2378.8849212368427,-2203.9272470002925,-3601.26803427438,-3485.000201789428,-1912.0715366395602,-2286.7995516752535,-2043.6286223687362,-3143.50285731841,-2438.8045439207663,-3553.479150856398,-3112.3370304576065,-2023.2566294003298,-3568.982403319893,-3936.240503571304,-3802.3721127349445,-2380.8814650640716,-2223.8437383858063,-3891.035043341387,-3612.462999495757,-1964.735254154172,-2245.3512620494416,-3059.9677378855627,-3344.107694051795,-1834.3479628453688,-2141.8613653039656,-2547.414395109107,-3732.7900128588653,-3056.115276828507,-2190.107970877832,-3476.0428470735988,-1977.2490517909487,-3426.273832122515,-2204.8913997586533,-3391.5486133877375,-3949.7559962672062,-2037.1718058730355,-2063.323564529139,-2273.7278227834395,-3150.6313317847876,-2977.3678686143453,-1827.9430163051088,-2325.0774368027264,-1913.5888759827096,-3869.5817056945534,-3897.21717591788,-2054.7902750158596,-1706.0908418407448,-2050.261261497382,-3362.747524011276,-3427.07477392865,-3135.0011167294824,-1727.514721543144,-2189.711081766502,-3709.897221702527,-3552.9307387924673,-1818.8255589220612,-1940.2403961386747,-3387.6692809662004,-3344.0788648536413,-3444.785868926536,-3111.6064768225237,-2149.437142877228,-3469.268602787962,-3644.9845981065464,-2418.5542982762513,-1686.2355184142577,-1845.2363233955139,-1982.0792028801977,-2102.535897722391,-3896.948247493045,-2246.6957678607987,-3322.9850225328455,-2791.6052209043946,-1812.8904539500386,-2189.26511441477,-3916.0978665598223,-2533.829846322559,-1989.3493248719449,-2156.3176062408097,-3459.5230181204493,-3513.5739314895886,-2038.441622052277,-2596.6004098656754,-3810.385554859892,-2308.804951356228,-2352.7191540649646,-3318.4554651126978,-3617.955975740683,-2431.0061835806446,-2015.165641710042,-2729.4720003221946,-2303.6247302558263,-2162.425189747491,-3626.362067221768,-4036.818326058664,-2512.4527404715113,-2085.2014344768554,-2467.0917739294464,-3303.2997385296676,-2286.7253892413773,-2200.7887592134143,-3467.048374224684,-3641.4235502077163,-2607.5928683284938,-2319.4729208244303,-2977.2626240458917,-2907.3417264123023,-1908.2560856240727,-2221.0555082154974,-3754.0968477312977,-2043.2690140390926,-2018.652125170532,-3316.07991560591,-2136.5408472333525,-2040.0696509868808,-2362.0132030223194,-3498.7015539184113
1,338.3764489778179,340.37860908826127,327.363787661308,329.3659781999571,340.37843260880385,339.3771507014513,330.3671059055219,332.36941173585484,339.37770186085055,328.3648763201691,342.3806891335045,340.3784202445613,329.3661679856568,337.3751063142723,330.36716280381586,344.38301004243834,340.3788142791866,328.364972311504,332.3693209627693,336.3743527037203,340.37866623320616,340.3787834004587,331.3684274255208,341.38038415984835,339.3771784157317,327.364148623035,332.3699377196647,338.37697765920495,344.38273718684985,329.3660172140125,329.3663685858173,339.3773056405055,331.3682058684497,337.3752302910079,343.38202644563967,329.3660541340068,330.3672529143436,339.37740288243947,339.37735415775927,328.3648715516782,336.3739236071959,338.37598451304535,328.36499409225974,326.36276630916893,338.3759885386682,328.36485706788494,327.3638466284039,328.3648843558434,336.37455176279377,328.3649718398363,328.36494061281695,341.3794170482211,327.36407597798063,331.36841162453294,341.3793823617246,336.37445777259705,328.36508168237515,339.3770983334305,339.3771964337428,329.3659976928623,340.3782642082168,341.3799849801978,341.380177339936,334.37157328386934,337.37541231892476,339.37741139350277,342.380644309535,344.3829660715789,337.3748753292577,341.3795308425622,340.37848531468757,331.36860046932867,336.3746442872979,338.3767095454392,328.36486148355925,335.37294494150296,336.3740539409826,344.38283164572135,341.380071691079,330.36719965544864,341.379318890576,340.3783556424145,337.3755087645314,329.36627382827095,330.36713040172043,344.3833788832389,328.36494292860067,331.36836387671633,339.3772144095543,328.3649259915446,328.3648829725368,340.37860028284786,340.37849313865286,338.37602523401074,331.36822226195204,338.3759806647437,340.37856877335406,328.3648896906538,344.3826606010272,344.38330932433394,344.382841175071,345.3857565181199,339.377110544047,329.3661692204662,329.3659974615074,340.3790362454413,345.3839169123237,327.3639561169907,340.3783947885413,340.3782714793431,329.36598592816813,328.36534202853346,338.37646496634966,337.3753066853554,330.36708814727643,340.37825778858274,343.38220161971503,328.3651283298729,329.36618978509614,343.3832434976521,337.37516551252776,330.3674172864947,339.37753214226507,343.3824275435728,328.3648535098023,333.37065571728215,342.38081684984354,329.36616276128143,340.37830907916106,339.37718859612545,328.3649830701459,336.3740008222121,339.3772147370219,328.36492068773043,329.3660278395681,341.37992873919933,340.3788297344685,342.3804793758376,333.3705531028911,340.3782888231829,329.3660367627723,340.37838083143987,338.3762324872191,339.37759970470165,338.37603768418285,331.3683951337665,338.37638329828144,330.36707807184337,329.36605582136724,341.3794169627173,328.3652023965853,330.36717146510495,332.3695394213795,339.37727256456645,329.3663300540485,331.36835782775916,329.3660336680182,340.3788421628305,343.3816541078714,327.36382924329223,343.3818442402384,342.38186809043185,344.38267684506246,331.3684325459238,339.3771102169366,340.378352990112,328.36495153141993,331.36820791698517,341.3795381739117,338.37602315726565,328.3648877834575,340.3783049536046,340.37884324567784,329.36628565123743,329.36601258748874,339.37737424802526,342.3808534036097,327.3638009549359,343.38166849352484,336.37430559055804,328.36500677857026,338.3763011829097,341.37932432682425,328.3648886236473,328.3649344059803,329.36609051535703,339.3779924839349,337.37506102909657,329.3660011730697,330.3672139514618,339.37709007795564,338.37622026250295,345.3843991418474,338.3761584978305,342.3807229237444,328.3649324722369,341.379853713832,341.37951729994955,330.3670758928723,329.3660630676456,329.3660092862074,335.37302424827703,328.36495050300476,328.3648833756675,340.37822115008476,328.36504053215964,326.36265466034865,328.3649099594225,329.3661835568639,328.3649446217235,341.37974228319865,336.3737580457121,336.3738617927817,342.3814895713801,343.38291902563003,339.3777737612173,327.36378147612584,329.36600094115715,338.3763409629272,328.3649240390992,328.3651751405325,328.364978535,338.37647856922723,343.38177622474825,329.36609177093317,329.36600358902774,339.3770938895901,343.3821648087132,328.3650756062186,342.3804235593569,336.37400317011736,343.3833372683714,328.36487241074707,338.3768284239604,345.38402575582955,328.365004370366,328.36494503644394,337.37486343581656,340.378651962729,329.3659803397105,340.37896588140717,344.3827317013518,329.36606249056973,339.37714715085696,341.38001801279245,333.37051030675093,342.3804808250586,335.37275132059574,329.3660610225329,337.37532727514105,339.37753866131186,328.3651130360185,328.3650236432254,341.37948870488924,337.37488085016037,331.36836309266886,329.36605540664067,340.37831211513134,341.37971347998564,340.37843281368674,335.37318085229606,341.3793797495669,330.3672695554327,336.3738344149023,338.3764351796957,329.36602218492266,329.3664875193084,345.3837986143808,340.378252178141,328.3649306984735,341.3796614620527,344.38342532996575,331.3683095658399,341.3799925126617,341.3799317226243,327.3639915289164,338.3764614527338,340.37883629848784,328.3650513529728,344.3830877733086,341.3795005312257,328.36534712527845,341.3802736091306,339.3777526237717,328.36491288606317,342.3809868389166,336.37381721775796,327.3637859472369,340.3782664689032,338.37608672913126,328.3648808729241,329.3660330867342,331.36822894155966,329.36597928332833,340.378353087338,327.3637761153963,329.366119105595,344.3830271603878,340.3784458556762,328.36490897172115,335.37292995164466,341.37953640417294,328.364861119976,342.38070618335405,340.3783817725164,328.364960103205,339.3773803306465,343.3822700246773,329.36599314129495,345.38488030765836,340.3782938882075,340.37844213809547,328.36487757275285,341.38033075664896,343.38161836548437,339.37783171716194,328.3649178641001,332.36986915092467,340.3790140454601,329.36611290691076,326.3628239925781,339.37718381962316,345.3848541125128,340.37820275490463,331.36834085524004,344.38330333966496,342.3823089227691,326.3628005346676,329.3659690063489,339.3771051753441,328.3649481662099,340.3782302061565,340.37824157918834,328.36494502975944,346.38499803496734,340.3784412115083,328.36487614181834,329.36597472738396,340.3782701264204,327.36388630838354,327.3638183727344,340.37843751424435,338.3760650190283,329.3659992376606,342.3808099610584,341.3796503439694,327.3637512930962,337.3756336268355,342.3804447868091,327.36383889181735,327.363797981595,328.3649286058025,340.3783702588125,339.37732632617906,345.38392403979924,329.36619121818376,341.3796004438321,343.38188264106003,326.3627914717327,327.363867450785,337.37495228064245,338.37610466468385,328.3651800786517,331.3683760075682,338.3769784642598,339.37862864283437,327.3639757322941,328.36492374580166,342.38227433277433,344.38415039388724,330.3674540436952,331.3684105820111,344.38314570620076,344.3826823371554,329.3659672588188,329.36600200296607,340.37840633440965,335.3726835144831,329.3660514069145,338.3762465503016,342.38103969691286,329.3663852797165,343.3815722356059,339.37769800536466,327.3638227912123,329.36630269130274,344.382966770937,337.37507232703587,328.3651654451993,341.37940168894943,344.3828846570764,329.36601448369225,340.3796772418283,337.3752465374459,342.38058393358057,342.38073388141885,329.36604659406214,338.3762167418822,344.38328482709954,329.36634731520456,329.36619247017813,344.3827422854988,341.3800570520899,328.36490103431066,344.38430380247655,343.38225266970824,338.37631078190185,343.38180845325945,344.38266606704246,338.3761249849324,340.3783187591143,338.37603869442694,328.3648596066745,337.3749007913958,340.3789591529457,339.3771318127839,342.3805334691184,333.3705035456697,338.37605094589145,344.3828945159774,338.3769909890516,343.3819520523544,340.3783272608993,329.366075772973,329.36597482858616,329.3659682578096,338.37655697616077,341.3795747609322,337.3751681250434,329.3663542389021,341.3798111727414,343.3822280128115,341.3793966648292,337.37570786716987,344.3839344152068,329.36616638391627,340.37844881276635,340.37841879525536,329.3662943787717,339.3779034192471,337.3752226898882,328.36486045328644,337.3750978113908,344.384063331918,329.36601268362045,344.3826916826607,339.3772145114977,328.3649560290063,334.37179372204196,329.36597839996114,340.378871927096,337.37493075194647,328.364947657122,344.3832877519085,340.3788456071742,329.366015692502,328.3650762349368,329.3661027110532,330.3670981834642,340.3783088384317,344.3828822737595,327.36377339850685,328.364993267675,337.37572849309237,328.36488872995443,329.36602762948706,340.3787769752168,341.37955381440327,329.36599550341356,344.3829803300736,342.38088432756604,346.38500277578095,328.3648778418055,340.3786610939488,339.3774370434707,327.363995906863,328.36502897584757,334.3718492464602,344.3827061950866,329.36604221191686,341.37939113811836,341.37963655515205,344.38279060428306,344.38270538226385,328.3649123405459,328.3648535583047,343.381723269565,334.371752227414,330.36741775499024,337.37508345505603,343.3820012828079,329.3661208937126,329.3662256896255,344.3827918507716,339.37726629061314,343.38219896626,329.36611302677653,336.3739293665016,342.3811443252241,329.36610294037496,339.37709043263834,341.37946072857886,341.37998781510476,329.3660674210708,339.3772410498254,342.38054341646097,329.3661083379331,341.3798713321836,341.3797104772546,340.37832243080595,329.3659914614664,334.37161056316177,344.3834284894779,339.3771452083282,328.3648853095591,344.38385310528065,336.37393367481536,328.36511672872854,343.38165514266814,342.38079538290907,343.38202807136685,328.3649393154941,343.3832489274845,343.381590438216,332.36959672916316,331.36848257380814,342.38066746983105,337.37516831548146,330.36715096079394,327.3637934176212,341.37957447958405,338.376364946237,327.3638041377253,328.36486603653134,344.3827449565394,328.36488628486063,339.3771050541494,344.38458352575515,330.3671710899728,332.36946968086687,338.376337418826,344.3826489302384,329.36620675043116,333.3707648524194,329.36604634065185,340.37842797185687,327.36391342139444,328.36487260370626,336.373956745424,331.36869917643514,334.3716435854866,341.38076370538477,339.37731483031587,327.3641056624486,338.3769746501832,338.3762656586662,329.36620536441234,336.37389571657155,344.3831934126642,329.3660450857667,328.36489248578425,343.3815355381605,344.3830762098455,329.36625319654644,330.36709573793763,339.37772972010526,328.3648687781029,341.379411993007,339.3771560270882,329.36604765396453,330.3672125600523,328.3648795230985,341.3803080192357,338.3764996029902,327.3637784325541,329.36608979755636,336.3739928976096,328.3649513575223,330.3671027629347,328.3649822188241,342.38074430144167,341.3794072090354,328.3648586831521,328.36506579227955,329.36609034735375,343.3818213017322,344.3827914286052,331.36825428237694,334.3716377736442,329.3663346762289,343.38171769327084,341.3800077650802,328.3650294703738,329.3660264639388,343.3827194805214,341.3793942999759,333.370566127774,328.3651024533278,332.369327684468,339.37737968306357,339.37732577120255,327.3640232079935,344.3828368494241,344.38287355505906,329.3661539501416,329.36596217909903,338.3768595768876,335.37301085452145,332.3694355013843,342.3805598772664,344.3827967213394,330.3671607261489,329.36601456347256,344.3834749427911,340.378345667468,330.3671003751351,328.3649167509219,344.3826745627397,328.364881865061,329.3661338133471,334.3716209480399,342.3804567312542,338.37624405359,329.36621825431837,332.36945424232744,328.3649605279964,328.3649649603364,331.3682118855887,342.38135692551003,328.3649276903774,333.3705671463307,338.3762995683609,340.3782958618674,337.37486660509416,328.36502701150107,344.382947159936,337.3752226118215,328.3648572737661,343.38175499035253,339.3771100185967,328.3648734505358,328.3649811945049,337.37494878427043,328.36497681413357,328.36496232577946,331.36830951189484,338.37665092663053,339.3776621309787,328.3649019833989,328.36501786317973,338.3760107570051,339.3771371600259,328.3650163415175,328.3649426226836,337.3751068779776,342.3811723949658,328.36489775331665,330.36721462717196,330.3672213764487,339.3773880439671,328.3649050061757,328.364902252592,328.36490204201067,339.3772073507565,340.379469156717,328.36497930391766,330.3674633019157,341.379313230392,339.37758770573595,328.36491443183775,328.3650406602398,337.37535754283374,342.3811677164942,330.36726934650534,329.3660988508794,335.37281993838553,342.3804478594898,330.36732211611655,329.3660043506979,337.37509391269174,338.37628406453285,338.3773050553306,329.3659687846797,336.3739114384696,339.3771184318778,329.3662817591654,329.3662284433898,342.3817229057329,338.3760953874612,340.3783359320206,331.3682605437207,337.37496965726325,329.36601252226086,331.36825522333845,341.3793208678779,329.36602333433325,328.3650470745477,328.36490590282415,336.3737718811036,338.3763412280848,327.36380082611356,328.3649245949513,341.3796556401589,339.37720137531744,331.368245670127,330.36718617400436,344.38362399865736,340.3785021605636,335.37271211057674,328.364879943088,331.36828895636006,339.3771745690739,329.36614426929094,340.3785201019583,329.3664624102018,339.3773158986519,329.36606793363524,329.36601103967564,341.3800024064361,341.3794789385905,337.3748976269842,330.36709961691423,332.3693110924596,344.3827619463564,340.3788594451952,342.38069788116087,328.3651446237688,326.36299970683154,340.37841235621636,345.3847535563228,338.376007536661,328.36515470726977,328.36501244500363,329.3660041650101,343.3817490959283,337.37579985293445,327.3637802689426,327.3638785244794,342.3806729733791,340.3791548189039,328.36513392982533,328.3652349792119,328.36485125432705,330.36707825390897,339.3772132421182,329.36604324797884,328.3648919503176,336.3743990707501,345.3841728522426,343.38186151382064,340.3782743715532,339.3775699879013,328.3648700230619,338.37670135360895,330.36712740265426,332.36935007799656,343.38231542927855,339.377626578383,329.36606394467685,335.37276534080195,341.3794723196542,339.37712113330076,329.3660792880698,329.36603951756206,341.37936844620026,335.37281438287596,328.36488222682755,337.37516207612856,338.37637213876354,330.3672026574527,329.3659625060925,337.37508571556737,342.38066048618106,333.3707750559903,337.37597407090357,340.37836938725417,329.36613037614495,327.3638424570911,335.37288268020933,341.3805369538524,335.37311491191826,330.36725916958477,338.37604840200254,339.37718524083283,329.36599497671205,328.365070222072,335.37287318909847,339.3773445421026,331.36819030863256,332.36933666299444,342.3809707101309,338.37607661078306,328.36487418762187,340.37832370088466,341.37993746832177,329.366037077601,338.3762999534577,340.3784846600277,337.37503828269513,328.3649575891158
2,-0.002921426813032159,-0.0024591712582573404,-0.00916360224068788,-0.006857220297754903,-0.0025078221193001017,-0.0026874489350978705,-0.005954960788853168,-0.005136822061334188,-0.0028440753461180268,-0.007233688163051164,-0.0023274570939673376,-0.0026248870741441624,-0.0073253393245720074,-0.0031559431069085623,-0.005616202265687923,-0.0020692245115674023,-0.002732105469884614,-0.007050992418366475,-0.004905848523837168,-0.00336519775013402,-0.0025851687407696775,-0.0024904904119384674,-0.005557604136762065,-0.002303233146966835,-0.002787699753078564,-0.008133192280552256,-0.004922193336305353,-0.002997364100043355,-0.002026215134160776,-0.006297907510484256,-0.007204574650064103,-0.002817237356832088,-0.0055033148253649765,-0.003142676423495588,-0.0021348246708140063,-0.006816093472176307,-0.006161747470650617,-0.0026756648713431204,-0.0026924994905408286,-0.008096837755738755,-0.0036926388865671116,-0.003188646845787271,-0.007840621141553806,-0.011741608071789833,-0.0032905630747898343,-0.008269839573808665,-0.008953843630608263,-0.009065068951288727,-0.003544535489468977,-0.007534925400716815,-0.008766935062840339,-0.002714101379166003,-0.00828044138858578,-0.004917233043723198,-0.0024551777728422466,-0.0033566398526664386,-0.007661541840973212,-0.0027277663727014218,-0.0027649383509601674,-0.006930538036493242,-0.002502914223580229,-0.0023444649700052073,-0.0023567985159918176,-0.0036294545213734855,-0.003072155593460289,-0.0029106190638930646,-0.0021981534531129933,-0.0018421371693540431,-0.0031666921478410307,-0.002435204261967316,-0.0025026159874568157,-0.0047803050818396855,-0.00358834510578087,-0.0028962630709428554,-0.008275056643731536,-0.0037509357046547113,-0.003308782243476951,-0.002221267811229899,-0.0023189926329448365,-0.005551281822730668,-0.002318973894147477,-0.0026471377085308862,-0.0031622669210045287,-0.00726291806271935,-0.006769677161286486,-0.002252224340063811,-0.007959860173899718,-0.005939654487930557,-0.002781632499247374,-0.007254842958908281,-0.007567360407928237,-0.0026290594283818903,-0.002660769091631926,-0.0026967602517686405,-0.0053335546375537285,-0.002912166909527526,-0.002568184564856989,-0.007970482780644612,-0.002006841395793108,-0.00226411896353748,-0.0020916407241959828,-0.0018743745483109518,-0.0029225791369638576,-0.007303541212809852,-0.007181077415592444,-0.0027707054591687417,-0.0018660992823566777,-0.008995994689741932,-0.0025823269063919405,-0.0026228094076931633,-0.007532597446337904,-0.007939345728347768,-0.00286631622149827,-0.003095261534408177,-0.006841389363302503,-0.002533380722967991,-0.002089928096709628,-0.007914524802744525,-0.0070065271334719265,-0.002157741896002239,-0.003222805499770941,-0.0052063015429805815,-0.002635210104241223,-0.0020824231805220725,-0.007367037907029461,-0.004236886418629409,-0.0023096921626287533,-0.006428822695250247,-0.002509809650905455,-0.002815164701080523,-0.008449061256616,-0.003439403649787621,-0.002847956200919004,-0.007171403348822353,-0.007426041491263236,-0.0023181158624020113,-0.002621982421569836,-0.002136853763243744,-0.004498211845187002,-0.002544499269629225,-0.007578864267188502,-0.002551600163900372,-0.0029677881019283766,-0.0027325180777847064,-0.002915454077737894,-0.005903168762133219,-0.0029558747980572534,-0.006027577164143729,-0.007255764461589377,-0.0023852562037612254,-0.007248503676520846,-0.005814328265025814,-0.005029222042979069,-0.0029111878816821726,-0.006572989749886022,-0.006075613336623072,-0.007631289861932289,-0.0026650024133192656,-0.002200650711554743,-0.008959209936229614,-0.0020872840920892885,-0.0022155919470707233,-0.0019051575366589644,-0.0051051710705350495,-0.0027582199874612557,-0.002553033001661363,-0.007114293885462358,-0.005214135495694455,-0.0023205106995565924,-0.0029291856559516645,-0.008304947607029059,-0.0025607833374242297,-0.0025472329564294226,-0.006895988721090304,-0.006694576089466133,-0.0028437901113786777,-0.002201408647112296,-0.008401887322331133,-0.0020398934171785227,-0.0034362025371420055,-0.00884982493065236,-0.003059372393709574,-0.002305382678045236,-0.007542134270289318,-0.007898020877741755,-0.006773829188624393,-0.0025009258905654167,-0.003110499991787672,-0.006771598241311952,-0.0065548984460835815,-0.0027995191172159903,-0.0030141544655755284,-0.0019683682631015335,-0.003162971710868682,-0.0022825598075506826,-0.00776136606434227,-0.0023990156744600213,-0.002364540691413771,-0.0054498501802770025,-0.006798930325118343,-0.008356460553893254,-0.004120083481054979,-0.009534964205790964,-0.00956283633675209,-0.0029279881048896346,-0.010001659136296043,-0.010863972335513384,-0.00843131236348891,-0.008529231271705576,-0.008311944995235137,-0.002723141406260425,-0.003581867695456419,-0.0035684259067068824,-0.002513048485758453,-0.002358165536435412,-0.002962360779044294,-0.00984202155952816,-0.008845115130099456,-0.003167426789189364,-0.008634565780687059,-0.007751687346147551,-0.007624853533663575,-0.0031475122192355627,-0.002282548906929663,-0.006970372047929547,-0.008109684783716166,-0.003156685049465271,-0.002292243757011061,-0.00910571379238484,-0.0025498377591348558,-0.0035325147774634205,-0.0023241500613837506,-0.008572901424228875,-0.003551726686879946,-0.0020436889092496175,-0.008099681822668434,-0.008816688585124294,-0.0033047174171348423,-0.002778584449533096,-0.007909752724981326,-0.0027771305647760836,-0.002123164850423399,-0.00874674102382257,-0.002894967008354513,-0.002401171509564868,-0.00442869250918669,-0.002291195906108764,-0.003894913453541462,-0.007311661486041524,-0.0033739632191483243,-0.0029901140186553844,-0.0085867360519159,-0.007889114161164392,-0.0027546181009772993,-0.003483478059546088,-0.0049328201430768855,-0.007354302890780734,-0.0026242704828739532,-0.002308911364840667,-0.0025439526838409742,-0.0037564406299886045,-0.0024228893004971793,-0.006010343569125384,-0.0033856717641336884,-0.002979401736999415,-0.007167078368870962,-0.006383897726028159,-0.001858612280223954,-0.002632529408104904,-0.008909993239053128,-0.002374248921620249,-0.0020359127729593215,-0.006074868591600776,-0.0023786766905223066,-0.0024495602247334206,-0.008708254386030359,-0.002919390855278431,-0.0025455763473078417,-0.006732768887566583,-0.001984975149857401,-0.002412334701506279,-0.00938564492121353,-0.002448947036205194,-0.0027906538841698616,-0.009311177329100221,-0.002573731530480197,-0.00368555061190204,-0.009288138676919928,-0.0026010184065921814,-0.0029083643445502183,-0.008455092438025556,-0.007318862724485187,-0.00482537646236191,-0.006722685602327028,-0.0024505033038608455,-0.00901668819273645,-0.0067353559934999275,-0.002184123599467003,-0.0025907440683283728,-0.007214835768138502,-0.0037921144066478713,-0.0024743753639397533,-0.006957575175081255,-0.0020961493392803606,-0.002365373344346536,-0.008293104616645241,-0.0027302281395090947,-0.00207991771909049,-0.00726862888410141,-0.0018528799298592874,-0.002620871504430639,-0.002629779146661561,-0.008014761185442566,-0.002398435027234819,-0.002113733528529488,-0.0029778723090157894,-0.007008319335151484,-0.004915974756853027,-0.0025513412511817225,-0.006175256595517083,-0.009447911459125241,-0.0028298838566277592,-0.0018989313416771822,-0.002342384993711299,-0.005451231567218433,-0.002233870439742563,-0.002222600721752991,-0.009687935023266833,-0.007959306892326939,-0.00275795001243922,-0.007633422221510244,-0.0026788634886433663,-0.0026463389807442686,-0.007620083281861514,-0.0017638880619505685,-0.002695562522304324,-0.0071733023099758205,-0.008702815425062524,-0.0027050781716677847,-0.009388173138620325,-0.00942258614174825,-0.0027753173820031654,-0.002958663043583813,-0.006549682152396706,-0.0023160604427493446,-0.0023803018709362767,-0.009337480265358187,-0.00363438559838979,-0.0025192278318222393,-0.008436248053325225,-0.008327135120842629,-0.006552655574597256,-0.0025782679955190344,-0.0027732053470456803,-0.0019507905635012454,-0.008494210814801832,-0.00272149139454904,-0.0022926714908393514,-0.010876008524675804,-0.008979839357898213,-0.00340391556238999,-0.0032288911072753342,-0.008935129547059413,-0.005228693468898165,-0.0031148845743086797,-0.003149401188167347,-0.010404764184604216,-0.008681631429557402,-0.002398534195937637,-0.0023603455374970645,-0.006592427982926529,-0.0067268205985519,-0.002130393217267424,-0.0023329165632209356,-0.007361749276288173,-0.007045547040565171,-0.00271217379834994,-0.003773031243139548,-0.0065160303587607615,-0.0031687811459697734,-0.002346302508297948,-0.0070541670762338205,-0.0021940317085257528,-0.0028219472997241322,-0.009308097167739983,-0.0070757209653993765,-0.002175677994736884,-0.003061082366570558,-0.007242389578791182,-0.002413568619363896,-0.0021947016878740397,-0.006956891506334159,-0.0025309617418134435,-0.0033268704561831126,-0.002264543350122569,-0.0023098282508375047,-0.006813477371482273,-0.003104868481231032,-0.0022318452450812883,-0.006359641780491117,-0.007237209019199242,-0.0020148527364107966,-0.0025416251316876114,-0.00779286858674517,-0.002217432121991034,-0.002161129947967408,-0.0027689307160790786,-0.002142516477937192,-0.002169086325208684,-0.002822131091885121,-0.002575561709581984,-0.002915002033862932,-0.007135061839195318,-0.0035365954427667187,-0.002777476787027037,-0.002748983208279833,-0.002277577074820061,-0.0044086613263477235,-0.0029700675962247244,-0.002274066756205531,-0.002922290180209096,-0.0021530568386814502,-0.0025508389691052103,-0.006636392203917976,-0.0069693261919830975,-0.006339494023588665,-0.0026677730639162005,-0.002373623560619475,-0.0029732185240952413,-0.006447095816730203,-0.00230533749154464,-0.002127907643080178,-0.002417301143751619,-0.0033607643756138434,-0.0020287355816362962,-0.0070283912749986585,-0.002499716091131669,-0.002524898305530147,-0.0069447672788368765,-0.002784057632292972,-0.003302747485659454,-0.007687832605332576,-0.003259844963370579,-0.002269166301728379,-0.00797504137433639,-0.002115384619776569,-0.0031079670161954696,-0.007446199785418201,-0.004069800601038501,-0.006896744782239917,-0.0028059649633614034,-0.0031290096035934602,-0.006982966651812949,-0.0020748779989431102,-0.0029303045971306968,-0.006660866450095383,-0.008730547490984189,-0.0075552113061138,-0.007223139009996937,-0.0028924820890566735,-0.0024023815329362206,-0.008542930037077545,-0.00952874410210908,-0.0035977362221557866,-0.0074723475059820825,-0.007426709557222629,-0.0027618422214490336,-0.002635071028047741,-0.007014728283403393,-0.0019849953344529487,-0.002347712531186247,-0.001865504728539177,-0.007126117078546083,-0.0025624337500974857,-0.002765576949078353,-0.00913577804961656,-0.006981255428616743,-0.004130224346826239,-0.002219386530924393,-0.007154138378611878,-0.002376650852282626,-0.00228275099086638,-0.0022390466702442735,-0.0022099957864070317,-0.0077338856530113,-0.007319951955048803,-0.002224102194101548,-0.004260133401100348,-0.005917115360718097,-0.003217248299386844,-0.0021190139066196174,-0.006952540754589728,-0.005926042937916956,-0.0020147577130001215,-0.0027611793885733266,-0.0022151959337311,-0.0065436455281129065,-0.003442152841267922,-0.0022431504719199287,-0.0071787511087889,-0.0027532965432127085,-0.0024969984453490825,-0.002385581779196794,-0.006834401885498812,-0.002839196055727748,-0.0022788822727421534,-0.006963579930310403,-0.0023931926109670544,-0.00250139059116772,-0.002482448687120359,-0.007244772372978386,-0.003997103651712972,-0.002178019728267988,-0.0026781880127257776,-0.007498699342453513,-0.002195555851010409,-0.0033011471038294736,-0.008396068372020395,-0.002220303934927773,-0.002237618964520059,-0.0020677393778023136,-0.007574048210373378,-0.002208740005595251,-0.002078155767287214,-0.004554127436076267,-0.005380905328042781,-0.0024399018744041363,-0.0031409323790295143,-0.006230675407163254,-0.008587401305074504,-0.0022196233980988876,-0.002702272922873622,-0.007007790547051315,-0.006953026789773283,-0.0022295661033364593,-0.007747249605864291,-0.0027609528915632005,-0.00225712891688953,-0.006023991077104219,-0.005274570027509888,-0.0032873798100035343,-0.0022045618431051454,-0.006965852951994426,-0.004219210067670996,-0.006837469185086773,-0.0026054708341968842,-0.008921037697945333,-0.007612305267472604,-0.003462069902400225,-0.005861531056306098,-0.004144784584686794,-0.002552398227643348,-0.0026452840337030784,-0.009101076399720739,-0.0028778596453019603,-0.0028756766193654814,-0.007170323474496786,-0.0034685199347852724,-0.002184177151969204,-0.007010797170258928,-0.007783285806856247,-0.0021062055731564332,-0.0021839518945117936,-0.006477266441642532,-0.005669733924488942,-0.003262071112448009,-0.009379898344149469,-0.002329409671416564,-0.002567792821509814,-0.006756720636412923,-0.005531007084749846,-0.00775968061607284,-0.00232321882268327,-0.0029555170664005157,-0.008595369057333215,-0.00682501338339763,-0.003465152900575576,-0.008042439777167896,-0.0059137845515256915,-0.008019874088090951,-0.002467400377392346,-0.002545881654865549,-0.00879007701752358,-0.008496603477145483,-0.007897591869665977,-0.0022677826525530726,-0.002189235481820309,-0.005184944961067909,-0.004047260729575404,-0.006943150688426352,-0.0022812446710983444,-0.0025524719280284745,-0.008136420763524447,-0.0069792299423831194,-0.0022011259463963696,-0.0025251146906777565,-0.004365525882169661,-0.007307534037985993,-0.005024899287790916,-0.0029351328499588837,-0.002626017401094909,-0.00868743048884234,-0.0022461901014648312,-0.0022498396604754183,-0.007117129809058222,-0.00729202925555581,-0.002980262292777779,-0.003880824276754298,-0.004732012789149094,-0.002291446994491051,-0.002159959471962224,-0.006478049258712654,-0.007152879335193521,-0.0022535431788019483,-0.0025069489368251124,-0.005978528167677394,-0.00793318991952739,-0.0019106144301832167,-0.0074716098698553125,-0.007636540739965327,-0.003925047623529533,-0.002255945423850628,-0.002968177674153354,-0.006755004406471343,-0.005187007596979088,-0.0070656243302624515,-0.008262281791230643,-0.005304653214452576,-0.0022433571461970355,-0.008721373834086488,-0.004181218003637757,-0.002883883220403994,-0.0024438634688435257,-0.0029177123091842336,-0.007384167483544088,-0.0018927520789798202,-0.0030785504698212216,-0.0073547542692336135,-0.002103758541340991,-0.0028139844378231365,-0.007894391239018923,-0.007658870435497838,-0.0031232435312651442,-0.007052624931908834,-0.0075004053861221255,-0.005310154710429905,-0.002801984627788009,-0.0026027756061508425,-0.007669355813391427,-0.007488114806293176,-0.0027967503058084695,-0.002788053421069551,-0.008286798542813709,-0.0075929856829181595,-0.0031457132439699493,-0.0023003877653344842,-0.007902318023647216,-0.0059815508117309355,-0.006261483349869483,-0.0028986963601908837,-0.0069408736335357735,-0.007441124135165218,-0.009186764698165697,-0.0027988995818906148,-0.0025040034316425822,-0.00838957878517347,-0.00605486785212884,-0.0024724498406886743,-0.002837828569578394,-0.008562948202512584,-0.007414966869157889,-0.003147535339632979,-0.0024132788965549098,-0.006520947359652924,-0.007329981960382101,-0.0037176959266741454,-0.002317077098453199,-0.006209917592523747,-0.007730006335847965,-0.0032620088950613547,-0.0029557475906903477,-0.002938879436730144,-0.007362520046797246,-0.0033207015495212433,-0.0028075087633173384,-0.00729404037288662,-0.007096694815602298,-0.002245287854720956,-0.0029723066096912407,-0.002542670192697339,-0.004903442198777403,-0.003051059327258993,-0.007214664967115743,-0.005093142514125794,-0.0022515663009242937,-0.006431519181647287,-0.007841289741056516,-0.007283241548300209,-0.003109474601919173,-0.0028144558820118637,-0.00877085027359122,-0.007360437413907412,-0.002435330753684544,-0.002800000654950399,-0.005125714372993536,-0.006776241382529344,-0.001989338543958122,-0.0025807626127724776,-0.0035389769185747914,-0.0076344403781889985,-0.005081685101335048,-0.0027634292598897013,-0.007122425601813869,-0.002434557727109913,-0.007451668858826392,-0.002747258938787858,-0.006857985821866854,-0.008549734902277973,-0.002428114521479617,-0.002546963306237102,-0.0030747353907544153,-0.006178469589838125,-0.004680165175209758,-0.002066166846441399,-0.0023490923675203073,-0.00210398146835379,-0.008354333611700253,-0.008548707259172323,-0.0026686207995779802,-0.00197670564152122,-0.0034758956870765637,-0.00858482897381747,-0.009144562509484793,-0.007067819944044886,-0.0023893035696664015,-0.0034188455758520893,-0.011403396207720655,-0.010311125163027322,-0.002332592067210975,-0.003213572488617195,-0.008032824280901825,-0.007835280279059638,-0.008286403465892392,-0.00655929241983907,-0.0027087281405185,-0.00681134586116302,-0.008233057897141705,-0.0032228515588743805,-0.0022153369827458357,-0.0020982148828902984,-0.0024646625808002563,-0.002676105773926053,-0.008947181548702453,-0.0028877581497591936,-0.006501005941128285,-0.004836629482281498,-0.0021801317991235157,-0.0027558504418027296,-0.008671869319951437,-0.003710889217176854,-0.00245935366887647,-0.0027461250742807897,-0.006684153618476092,-0.007861844502604921,-0.0025180930996576063,-0.003872494792611349,-0.007864181260526742,-0.003091665686394658,-0.002941931081872301,-0.005929827887842982,-0.007154388348814708,-0.0033570123751494063,-0.0022549345382526067,-0.004336478145161326,-0.003259462248487966,-0.0025844156828062036,-0.0067667173373932256,-0.009441488745623755,-0.0037953846104563957,-0.0025711018014320636,-0.0036626688530697086,-0.005673448047893935,-0.002854101926871691,-0.002779053378996834,-0.0069802045185245265,-0.007467589862009291,-0.003692493610223588,-0.0026769746009219298,-0.0049000172892761425,-0.00469415327430219,-0.0022690748156755734,-0.0028106544812548694,-0.00814669026080711,-0.002506515640168553,-0.002655532777199512,-0.006542631887682435,-0.002792615778976657,-0.0025182746351690454,-0.0031341149629065582,-0.007296652516765832
3,-13164169.376177229,-13164169.376177229,-13164169.37617723,-13164169.376177233,-13164169.376177233,-13164169.376177235,-13164169.376177235,-13164169.376177236,-13164169.376177238,-13164169.376177238,-13164169.37617724,-13164169.376177242,-13164169.376177242,-13164169.376177244,-13164169.376177246,-13164169.376177246,-13164169.376177248,-13164169.37617725,-13164169.37617725,-13164169.376177251,-13164169.376177253,-13164169.376177253,-13164169.376177255,-13164169.376177257,-13164169.376177257,-13164169.376177259,-13164169.376177259,-13164169.37617726,-13164169.376177263,-13164169.376177263,-13164169.376177264,-13164169.376177266,-13164169.376177266,-13164169.376177268,-13164169.37617727,-13164169.37617727,-13164169.376177272,-13164169.376177274,-13164169.376177274,-13164169.376177276,-13164169.376177276,-13164169.376177277,-13164169.37617728,-13164169.37617728,-13164169.376177281,-13164169.376177283,-13164169.376177283,-13164169.376177285,-13164169.376177287,-13164169.376177287,-13164169.376177289,-13164169.37617729,-13164169.37617729,-13164169.376177292,-13164169.376177292,-13164169.376177294,-13164169.376177296,-13164169.376177296,-13164169.376177298,-13164169.3761773,-13164169.3761773,-13164169.376177302,-13164169.376177303,-13164169.376177303,-13164169.376177305,-13164169.376177307,-13164169.376177307,-13164169.37617731,-13164169.37617731,-13164169.376177311,-13164169.376177313,-13164169.376177313,-13164169.376177315,-13164169.376177317,-13164169.376177317,-13164169.376177318,-13164169.37617732,-13164169.37617732,-13164169.376177322,-13164169.376177324,-13164169.376177324,-13164169.376177326,-13164169.376177326,-13164169.376177328,-13164169.37617733,-13164169.37617733,-13164169.376177331,-13164169.376177333,-13164169.376177333,-13164169.376177335,-13164169.376177337,-13164169.376177337,-13164169.376177339,-13164169.376177339,-13164169.37617734,-13164169.376177343,-13164169.376177343,-13164169.376177344,-13164169.376177346,-13164169.376177346,-13164169.376177348,-13164169.37617735,-13164169.37617735,-13164169.376177352,-13164169.376177352,-13164169.376177354,-13164169.376177356,-13164169.376177356,-13164169.376177358,-13164169.37617736,-13164169.37617736,-13164169.376177361,-13164169.376177363,-13164169.376177363,-13164169.376177365,-13164169.376177365,-13164169.376177367,-13164169.376177369,-13164169.376177369,-13164169.37617737,-13164169.376177372,-13164169.376177372,-13164169.376177374,-13164169.376177376,-13164169.376177376,-13164169.376177378,-13164169.376177378,-13164169.37617738,-13164169.376177382,-13164169.376177382,-13164169.376177384,-13164169.376177385,-13164169.376177385,-13164169.376177387,-13164169.37617739,-13164169.37617739,-13164169.376177391,-13164169.376177391,-13164169.376177393,-13164169.376177395,-13164169.376177395,-13164169.376177397,-13164169.376177398,-13164169.376177398,-13164169.3761774,-13164169.3761774,-13164169.376177402,-13164169.376177404,-13164169.376177404,-13164169.376177406,-13164169.376177408,-13164169.376177408,-13164169.37617741,-13164169.376177412,-13164169.376177412,-13164169.376177413,-13164169.376177413,-13164169.376177415,-13164169.376177417,-13164169.376177417,-13164169.376177419,-13164169.37617742,-13164169.37617742,-13164169.376177423,-13164169.376177423,-13164169.376177425,-13164169.376177426,-13164169.376177426,-13164169.376177428,-13164169.37617743,-13164169.37617743,-13164169.376177432,-13164169.376177434,-13164169.376177434,-13164169.376177436,-13164169.376177436,-13164169.376177438,-13164169.37617744,-13164169.37617744,-13164169.376177441,-13164169.376177443,-13164169.376177443,-13164169.376177445,-13164169.376177445,-13164169.376177447,-13164169.376177449,-13164169.376177449,-13164169.37617745,-13164169.376177453,-13164169.376177453,-13164169.376177454,-13164169.376177454,-13164169.376177456,-13164169.376177458,-13164169.376177458,-13164169.37617746,-13164169.376177462,-13164169.376177462,-13164169.376177464,-13164169.376177464,-13164169.376177466,-13164169.376177467,-13164169.376177467,-13164169.37617747,-13164169.376177471,-13164169.376177471,-13164169.376177473,-13164169.376177473,-13164169.376177475,-13164169.376177477,-13164169.376177477,-13164169.376177479,-13164169.37617748,-13164169.37617748,-13164169.376177482,-13164169.376177482,-13164169.376177484,-13164169.376177486,-13164169.376177486,-13164169.376177488,-13164169.37617749,-13164169.37617749,-13164169.376177492,-13164169.376177492,-13164169.376177493,-13164169.376177495,-13164169.376177495,-13164169.376177497,-13164169.3761775,-13164169.3761775,-13164169.376177501,-13164169.376177501,-13164169.376177503,-13164169.376177505,-13164169.376177505,-13164169.376177507,-13164169.376177508,-13164169.376177508,-13164169.37617751,-13164169.37617751,-13164169.376177512,-13164169.376177514,-13164169.376177514,-13164169.376177516,-13164169.376177518,-13164169.376177518,-13164169.37617752,-13164169.37617752,-13164169.376177521,-13164169.376177523,-13164169.376177523,-13164169.376177525,-13164169.376177525,-13164169.376177527,-13164169.376177529,-13164169.376177529,-13164169.37617753,-13164169.376177533,-13164169.376177533,-13164169.376177534,-13164169.376177534,-13164169.376177536,-13164169.376177538,-13164169.376177538,-13164169.37617754,-13164169.376177542,-13164169.376177542,-13164169.376177544,-13164169.376177544,-13164169.376177546,-13164169.376177547,-13164169.376177547,-13164169.37617755,-13164169.37617755,-13164169.376177551,-13164169.376177553,-13164169.376177553,-13164169.376177555,-13164169.376177557,-13164169.376177557,-13164169.376177559,-13164169.376177559,-13164169.37617756,-13164169.376177562,-13164169.376177562,-13164169.376177564,-13164169.376177564,-13164169.376177566,-13164169.376177568,-13164169.376177568,-13164169.37617757,-13164169.376177572,-13164169.376177572,-13164169.376177574,-13164169.376177574,-13164169.376177575,-13164169.376177577,-13164169.376177577,-13164169.37617758,-13164169.37617758,-13164169.376177581,-13164169.376177583,-13164169.376177583,-13164169.376177585,-13164169.376177587,-13164169.376177587,-13164169.376177588,-13164169.376177588,-13164169.37617759,-13164169.376177592,-13164169.376177592,-13164169.376177594,-13164169.376177594,-13164169.376177596,-13164169.376177598,-13164169.376177598,-13164169.3761776,-13164169.376177602,-13164169.376177602,-13164169.376177603,-13164169.376177603,-13164169.376177605,-13164169.376177607,-13164169.376177607,-13164169.376177609,-13164169.376177609,-13164169.37617761,-13164169.376177613,-13164169.376177613,-13164169.376177615,-13164169.376177615,-13164169.376177616,-13164169.376177618,-13164169.376177618,-13164169.37617762,-13164169.376177622,-13164169.376177622,-13164169.376177624,-13164169.376177624,-13164169.376177626,-13164169.376177628,-13164169.376177628,-13164169.37617763,-13164169.37617763,-13164169.376177631,-13164169.376177633,-13164169.376177633,-13164169.376177635,-13164169.376177635,-13164169.376177637,-13164169.376177639,-13164169.376177639,-13164169.37617764,-13164169.37617764,-13164169.376177642,-13164169.376177644,-13164169.376177644,-13164169.376177646,-13164169.376177648,-13164169.376177648,-13164169.37617765,-13164169.37617765,-13164169.376177652,-13164169.376177654,-13164169.376177654,-13164169.376177656,-13164169.376177656,-13164169.376177657,-13164169.37617766,-13164169.37617766,-13164169.376177661,-13164169.376177661,-13164169.376177663,-13164169.376177665,-13164169.376177665,-13164169.376177667,-13164169.376177667,-13164169.376177669,-13164169.37617767,-13164169.37617767,-13164169.376177672,-13164169.376177672,-13164169.376177674,-13164169.376177676,-13164169.376177676,-13164169.376177678,-13164169.37617768,-13164169.37617768,-13164169.376177682,-13164169.376177682,-13164169.376177683,-13164169.376177685,-13164169.376177685,-13164169.376177687,-13164169.376177687,-13164169.376177689,-13164169.37617769,-13164169.37617769,-13164169.376177693,-13164169.376177693,-13164169.376177695,-13164169.376177697,-13164169.376177697,-13164169.376177698,-13164169.376177698,-13164169.3761777,-13164169.376177702,-13164169.376177702,-13164169.376177704,-13164169.376177704,-13164169.376177706,-13164169.376177708,-13164169.376177708,-13164169.37617771,-13164169.37617771,-13164169.376177711,-13164169.376177713,-13164169.376177713,-13164169.376177715,-13164169.376177715,-13164169.376177717,-13164169.376177719,-13164169.376177719,-13164169.37617772,-13164169.37617772,-13164169.376177723,-13164169.376177724,-13164169.376177724,-13164169.376177726,-13164169.376177726,-13164169.376177728,-13164169.37617773,-13164169.37617773,-13164169.376177732,-13164169.376177732,-13164169.376177734,-13164169.376177736,-13164169.376177736,-13164169.376177737,-13164169.376177737,-13164169.37617774,-13164169.376177741,-13164169.376177741,-13164169.376177743,-13164169.376177743,-13164169.376177745,-13164169.376177747,-13164169.376177747,-13164169.376177749,-13164169.376177749,-13164169.37617775,-13164169.376177752,-13164169.376177752,-13164169.376177754,-13164169.376177754,-13164169.376177756,-13164169.376177758,-13164169.376177758,-13164169.37617776,-13164169.37617776,-13164169.376177762,-13164169.376177764,-13164169.376177764,-13164169.376177765,-13164169.376177765,-13164169.376177767,-13164169.37617777,-13164169.37617777,-13164169.376177771,-13164169.376177771,-13164169.376177773,-13164169.376177775,-13164169.376177775,-13164169.376177777,-13164169.376177777,-13164169.376177778,-13164169.37617778,-13164169.37617778,-13164169.376177782,-13164169.376177782,-13164169.376177784,-13164169.376177784,-13164169.376177786,-13164169.376177788,-13164169.376177788,-13164169.37617779,-13164169.37617779,-13164169.376177792,-13164169.376177793,-13164169.376177793,-13164169.376177795,-13164169.376177795,-13164169.376177797,-13164169.376177799,-13164169.376177799,-13164169.3761778,-13164169.3761778,-13164169.376177803,-13164169.376177805,-13164169.376177805,-13164169.376177806,-13164169.376177806,-13164169.376177808,-13164169.37617781,-13164169.37617781,-13164169.376177812,-13164169.376177812,-13164169.376177814,-13164169.376177816,-13164169.376177816,-13164169.376177818,-13164169.376177818,-13164169.37617782,-13164169.37617782,-13164169.376177821,-13164169.376177823,-13164169.376177823,-13164169.376177825,-13164169.376177825,-13164169.376177827,-13164169.376177829,-13164169.376177829,-13164169.37617783,-13164169.37617783,-13164169.376177832,-13164169.376177834,-13164169.376177834,-13164169.376177836,-13164169.376177836,-13164169.376177838,-13164169.37617784,-13164169.37617784,-13164169.376177842,-13164169.376177842,-13164169.376177844,-13164169.376177844,-13164169.376177846,-13164169.376177847,-13164169.376177847,-13164169.37617785,-13164169.37617785,-13164169.376177851,-13164169.376177853,-13164169.376177853,-13164169.376177855,-13164169.376177855,-13164169.376177857,-13164169.376177859,-13164169.376177859,-13164169.37617786,-13164169.37617786,-13164169.376177862,-13164169.376177862,-13164169.376177864,-13164169.376177866,-13164169.376177866,-13164169.376177868,-13164169.376177868,-13164169.37617787,-13164169.376177872,-13164169.376177872,-13164169.376177873,-13164169.376177873,-13164169.376177875,-13164169.376177875,-13164169.376177877,-13164169.376177879,-13164169.376177879,-13164169.37617788,-13164169.37617788,-13164169.376177883,-13164169.376177885,-13164169.376177885,-13164169.376177887,-13164169.376177887,-13164169.376177888,-13164169.37617789,-13164169.37617789,-13164169.376177892,-13164169.376177892,-13164169.376177894,-13164169.376177894,-13164169.376177896,-13164169.376177898,-13164169.376177898,-13164169.3761779,-13164169.3761779,-13164169.376177901,-13164169.376177903,-13164169.376177903,-13164169.376177905,-13164169.376177905,-13164169.376177907,-13164169.376177907,-13164169.376177909,-13164169.37617791,-13164169.37617791,-13164169.376177913,-13164169.376177913,-13164169.376177914,-13164169.376177916,-13164169.376177916,-13164169.376177918,-13164169.376177918,-13164169.37617792,-13164169.376144877,-13164169.37617792,-13164169.37617792,-13164169.376177922,-13164169.376177922,-13164169.376177924,-13164169.376177924,-13164169.376177926,-13164169.376177927,-13164169.376177927,-13164169.37617793,-13164169.37617793,-13164169.376177931,-13164169.376177933,-13164169.376177933,-13164169.376177935,-13164169.376177935,-13164169.376177937,-13164169.376177937,-13164169.376177939,-13164169.37617794,-13164169.37617794,-13164169.376177942,-13164169.376177942,-13164169.376177944,-13164169.376177944,-13164169.376177946,-13164169.376177948,-13164169.376177948,-13164169.37617795,-13164169.37617795,-13164169.376177952,-13164169.376177954,-13164169.376177954,-13164169.376177955,-13164169.376177955,-13164169.376177957,-13164169.376177957,-13164169.37617796,-13164169.376177961,-13164169.376177961,-13164169.376177963,-13164169.376177963,-13164169.376177965,-13164169.376177965,-13164169.376177967,-13164169.376177968,-13164169.376177968,-13164169.37617797,-13164169.37617797,-13164169.376177972,-13164169.376177974,-13164169.376177974,-13164169.376177976,-13164169.376177976,-13164169.376177978,-13164169.376177978,-13164169.37617798,-13164169.376177981,-13164169.376177981,-13164169.376177983,-13164169.376177983,-13164169.376177985,-13164169.376177985,-13164169.376177987,-13164169.376177989,-13164169.376177989,-13164169.37617799,-13164169.37617799,-13164169.376177993,-13164169.376177993,-13164169.376177995,-13164169.376177996,-13164169.376177996,-13164169.376177998,-13164169.376177998,-13164169.376178,-13164169.376178,-13164169.376178002,-13164169.376178004,-13164169.376178004,-13164169.376178006,-13164169.376178006,-13164169.376178008,-13164169.376178008,-13164169.37617801,-13164169.376178011,-13164169.376178011,-13164169.376178013,-13164169.376178013,-13164169.376178015,-13164169.376178017,-13164169.376178017,-13164169.376178019,-13164169.376178019,-13164169.37617802,-13164169.37617802,-13164169.376178022,-13164169.376178024,-13164169.376178024,-13164169.376178026,-13164169.376178026,-13164169.376178028,-13164169.376178028,-13164169.37617803,-13164169.376178032,-13164169.376178032,-13164169.376178034,-13164169.376178034,-13164169.376178036,-13164169.376178036,-13164169.376178037,-13164169.37617804,-13164169.37617804,-13164169.376178041,-13164169.376178041,-13164169.376178043,-13164169.376178043,-13164169.376178045,-13164169.376178045,-13164169.376178047,-13164169.376178049,-13164169.376178049,-13164169.37617805,-13164169.37617805,-13164169.376178052,-13164169.376178052,-13164169.376178054,-13164169.376178056,-13164169.376178056,-13164169.376178058,-13164169.376178058,-13164169.37617806,-13164169.37617806,-13164169.376178062,-13164169.376178063,-13164169.376178063,-13164169.376178065,-13164169.376178065,-13164169.376178067,-13164169.376178067,-13164169.376178069,-13164169.37617807,-13164169.37617807,-13164169.376178073,-13164169.376178073,-13164169.376178075,-13164169.376178075,-13164169.376178076,-13164169.376178078,-13164169.376178078,-13164169.37617808,-13164169.37617808,-13164169.376178082,-13164169.376178082,-13164169.376178084,-13164169.376178086,-13164169.376178086,-13164169.376178088,-13164169.376178088,-13164169.37617809,-13164169.37617809,-13164169.376178091,-13164169.376178091,-13164169.376178093,-13164169.376178095,-13164169.376178095,-13164169.376178097,-13164169.376178097,-13164169.376178099,-13164169.376178099,-13164169.3761781,-13164169.376178103,-13164169.376178103,-13164169.376178104,-13164169.376178104,-13164169.376178106,-13164169.376178106,-13164169.376178108,-13164169.37617811,-13164169.37617811,-13164169.376178112,-13164169.376178112,-13164169.376178114,-13164169.376178114,-13164169.376178116,-13164169.376178116,-13164169.376178117,-13164169.37617812,-13164169.37617812,-13164169.376178121,-13164169.376178121,-13164169.376178123,-13164169.376178123,-13164169.376178125
