,0
0,1603
1,537
2,527
3,528
4,529
5,530
6,531
7,532
8,533
9,534
10,535
11,536
12,538
13,600
14,539
15,540
16,541
17,542
18,543
19,544
20,545
21,546
22,547
23,548
24,526
25,525
26,524
27,523
28,502
29,503
30,504
31,505
32,506
33,507
34,508
35,509
36,510
37,511
38,512
39,513
40,514
41,515
42,516
43,517
44,518
45,519
46,520
47,521
48,522
49,549
50,550
51,551
52,576
53,578
54,579
55,580
56,581
57,582
58,583
59,584
60,585
61,586
62,587
63,588
64,589
65,590
66,591
67,592
68,593
69,594
70,595
71,596
72,597
73,598
74,577
75,575
76,552
77,574
78,553
79,554
80,555
81,556
82,557
83,558
84,559
85,560
86,561
87,562
88,563
89,564
90,565
91,566
92,567
93,568
94,569
95,570
96,571
97,572
98,573
99,501
100,500
101,499
102,425
103,427
104,428
105,429
106,430
107,431
108,432
109,433
110,434
111,435
112,436
113,437
114,438
115,439
116,440
117,441
118,442
119,443
120,444
121,445
122,446
123,447
124,426
125,424
126,449
127,423
128,402
129,403
130,404
131,405
132,406
133,407
134,408
135,409
136,410
137,411
138,412
139,413
140,414
141,415
142,416
143,417
144,418
145,419
146,420
147,421
148,422
149,448
150,450
151,498
152,475
153,477
154,478
155,479
156,480
157,481
158,482
159,483
160,484
161,485
162,486
163,487
164,488
165,489
166,490
167,491
168,492
169,493
170,494
171,495
172,496
173,497
174,476
175,474
176,451
177,473
178,452
179,453
180,454
181,455
182,456
183,457
184,458
185,459
186,460
187,461
188,462
189,463
190,464
191,465
192,466
193,467
194,468
195,469
196,470
197,471
198,472
199,599
200,601
201,1602
202,738
203,728
204,729
205,730
206,731
207,732
208,733
209,734
210,735
211,736
212,737
213,739
214,602
215,740
216,741
217,742
218,743
219,744
220,745
221,746
222,747
223,748
224,749
225,727
226,726
227,725
228,724
229,703
230,704
231,705
232,706
233,707
234,708
235,709
236,710
237,711
238,712
239,713
240,714
241,715
242,716
243,717
244,718
245,719
246,720
247,721
248,722
249,723
250,750
251,751
252,752
253,777
254,779
255,780
256,781
257,782
258,783
259,784
260,785
261,786
262,787
263,788
264,789
265,790
266,791
267,792
268,793
269,794
270,795
271,796
272,797
273,798
274,799
275,778
276,776
277,753
278,775
279,754
280,755
281,756
282,757
283,758
284,759
285,760
286,761
287,762
288,763
289,764
290,765
291,766
292,767
293,768
294,769
295,770
296,771
297,772
298,773
299,774
300,702
301,701
302,700
303,626
304,628
305,629
306,630
307,631
308,632
309,633
310,634
311,635
312,636
313,637
314,638
315,639
316,640
317,641
318,642
319,643
320,644
321,645
322,646
323,647
324,648
325,627
326,625
327,650
328,624
329,603
330,604
331,605
332,606
333,607
334,608
335,609
336,610
337,611
338,612
339,613
340,614
341,615
342,616
343,617
344,618
345,619
346,620
347,621
348,622
349,623
350,649
351,651
352,699
353,676
354,678
355,679
356,680
357,681
358,682
359,683
360,684
361,685
362,686
363,687
364,688
365,689
366,690
367,691
368,692
369,693
370,694
371,695
372,696
373,697
374,698
375,677
376,675
377,652
378,674
379,653
380,654
381,655
382,656
383,657
384,658
385,659
386,660
387,661
388,662
389,663
390,664
391,665
392,666
393,667
394,668
395,669
396,670
397,671
398,672
399,673
400,401
401,400
402,399
403,136
404,126
405,127
406,128
407,129
408,130
409,131
410,132
411,133
412,134
413,135
414,137
415,398
416,138
417,139
418,140
419,141
420,142
421,143
422,144
423,145
424,146
425,147
426,125
427,124
428,123
429,122
430,101
431,102
432,103
433,104
434,105
435,106
436,107
437,108
438,109
439,110
440,111
441,112
442,113
443,114
444,115
445,116
446,117
447,118
448,119
449,120
450,121
451,148
452,149
453,150
454,175
455,177
456,178
457,179
458,180
459,181
460,182
461,183
462,184
463,185
464,186
465,187
466,188
467,189
468,190
469,191
470,192
471,193
472,194
473,195
474,196
475,197
476,176
477,174
478,151
479,173
480,152
481,153
482,154
483,155
484,156
485,157
486,158
487,159
488,160
489,161
490,162
491,163
492,164
493,165
494,166
495,167
496,168
497,169
498,170
499,171
500,172
501,100
502,99
503,98
504,24
505,26
506,27
507,28
508,29
509,30
510,31
511,32
512,33
513,34
514,35
515,36
516,37
517,38
518,39
519,40
520,41
521,42
522,43
523,44
524,45
525,46
526,25
527,23
528,48
529,22
530,1
531,2
532,3
533,4
534,5
535,6
536,7
537,8
538,9
539,10
540,11
541,12
542,13
543,14
544,15
545,16
546,17
547,18
548,19
549,20
550,21
551,47
552,49
553,97
554,74
555,76
556,77
557,78
558,79
559,80
560,81
561,82
562,83
563,84
564,85
565,86
566,87
567,88
568,89
569,90
570,91
571,92
572,93
573,94
574,95
575,96
576,75
577,73
578,50
579,72
580,51
581,52
582,53
583,54
584,55
585,56
586,57
587,58
588,59
589,60
590,61
591,62
592,63
593,64
594,65
595,66
596,67
597,68
598,69
599,70
600,71
601,198
602,199
603,200
604,325
605,327
606,328
607,329
608,330
609,331
610,332
611,333
612,334
613,335
614,336
615,337
616,338
617,339
618,340
619,341
620,342
621,343
622,344
623,345
624,346
625,347
626,326
627,324
628,349
629,323
630,302
631,303
632,304
633,305
634,306
635,307
636,308
637,309
638,310
639,311
640,312
641,313
642,314
643,315
644,316
645,317
646,318
647,319
648,320
649,321
650,322
651,348
652,350
653,300
654,375
655,377
656,378
657,379
658,380
659,381
660,382
661,383
662,384
663,385
664,386
665,387
666,388
667,389
668,390
669,391
670,392
671,393
672,394
673,395
674,396
675,397
676,376
677,374
678,351
679,373
680,352
681,353
682,354
683,355
684,356
685,357
686,358
687,359
688,360
689,361
690,362
691,363
692,364
693,365
694,366
695,367
696,368
697,369
698,370
699,371
700,372
701,301
702,299
703,201
704,225
705,227
706,228
707,229
708,230
709,231
710,232
711,233
712,234
713,235
714,236
715,237
716,238
717,239
718,240
719,241
720,242
721,243
722,244
723,245
724,246
725,247
726,226
727,224
728,249
729,223
730,202
731,203
732,204
733,205
734,206
735,207
736,208
737,209
738,210
739,211
740,212
741,213
742,214
743,215
744,216
745,217
746,218
747,219
748,220
749,221
750,222
751,248
752,250
753,298
754,275
755,277
756,278
757,279
758,280
759,281
760,282
761,283
762,284
763,285
764,286
765,287
766,288
767,289
768,290
769,291
770,292
771,293
772,294
773,295
774,296
775,297
776,276
777,274
778,251
779,273
780,252
781,253
782,254
783,255
784,256
785,257
786,258
787,259
788,260
789,261
790,262
791,263
792,264
793,265
794,266
795,267
796,268
797,269
798,270
799,271
800,272
801,800
802,801
803,802
804,1340
805,1330
806,1331
807,1332
808,1333
809,1334
810,1335
811,1336
812,1337
813,1338
814,1339
815,1341
816,1203
817,1342
818,1343
819,1344
820,1345
821,1346
822,1347
823,1348
824,1349
825,1350
826,1351
827,1329
828,1328
829,1327
830,1326
831,1305
832,1306
833,1307
834,1308
835,1309
836,1310
837,1311
838,1312
839,1313
840,1314
841,1315
842,1316
843,1317
844,1318
845,1319
846,1320
847,1321
848,1322
849,1323
850,1324
851,1325
852,1352
853,1353
854,1354
855,1379
856,1381
857,1382
858,1383
859,1384
860,1385
861,1386
862,1387
863,1388
864,1389
865,1390
866,1391
867,1392
868,1393
869,1394
870,1395
871,1396
872,1397
873,1398
874,1399
875,1400
876,1401
877,1380
878,1378
879,1355
880,1377
881,1356
882,1357
883,1358
884,1359
885,1360
886,1361
887,1362
888,1363
889,1364
890,1365
891,1366
892,1367
893,1368
894,1369
895,1370
896,1371
897,1372
898,1373
899,1374
900,1375
901,1376
902,1304
903,1303
904,1302
905,1228
906,1230
907,1231
908,1232
909,1233
910,1234
911,1235
912,1236
913,1237
914,1238
915,1239
916,1240
917,1241
918,1242
919,1243
920,1244
921,1245
922,1246
923,1247
924,1248
925,1249
926,1250
927,1229
928,1227
929,1252
930,1226
931,1205
932,1206
933,1207
934,1208
935,1209
936,1210
937,1211
938,1212
939,1213
940,1214
941,1215
942,1216
943,1217
944,1218
945,1219
946,1220
947,1221
948,1222
949,1223
950,1224
951,1225
952,1251
953,1253
954,1301
955,1278
956,1280
957,1281
958,1282
959,1283
960,1284
961,1285
962,1286
963,1287
964,1288
965,1289
966,1290
967,1291
968,1292
969,1293
970,1294
971,1295
972,1296
973,1297
974,1298
975,1299
976,1300
977,1279
978,1277
979,1254
980,1276
981,1255
982,1256
983,1257
984,1258
985,1259
986,1260
987,1261
988,1262
989,1263
990,1264
991,1265
992,1266
993,1267
994,1268
995,1269
996,1270
997,1271
998,1272
999,1273
1000,1274
1001,1275
1002,1402
1003,1403
1004,1404
1005,1529
1006,1531
1007,1532
1008,1533
1009,1534
1010,1535
1011,1536
1012,1537
1013,1538
1014,1539
1015,1540
1016,1541
1017,1542
1018,1543
1019,1544
1020,1545
1021,1546
1022,1547
1023,1548
1024,1549
1025,1550
1026,1551
1027,1530
1028,1528
1029,1553
1030,1527
1031,1506
1032,1507
1033,1508
1034,1509
1035,1510
1036,1511
1037,1512
1038,1513
1039,1514
1040,1515
1041,1516
1042,1517
1043,1518
1044,1519
1045,1520
1046,1521
1047,1522
1048,1523
1049,1524
1050,1525
1051,1526
1052,1552
1053,1554
1054,1504
1055,1579
1056,1581
1057,1582
1058,1583
1059,1584
1060,1585
1061,1586
1062,1587
1063,1588
1064,1589
1065,1590
1066,1591
1067,1592
1068,1593
1069,1594
1070,1595
1071,1596
1072,1597
1073,1598
1074,1599
1075,1600
1076,1601
1077,1580
1078,1578
1079,1555
1080,1577
1081,1556
1082,1557
1083,1558
1084,1559
1085,1560
1086,1561
1087,1562
1088,1563
1089,1564
1090,1565
1091,1566
1092,1567
1093,1568
1094,1569
1095,1570
1096,1571
1097,1572
1098,1573
1099,1574
1100,1575
1101,1576
1102,1505
1103,1503
1104,1405
1105,1429
1106,1431
1107,1432
1108,1433
1109,1434
1110,1435
1111,1436
1112,1437
1113,1438
1114,1439
1115,1440
1116,1441
1117,1442
1118,1443
1119,1444
1120,1445
1121,1446
1122,1447
1123,1448
1124,1449
1125,1450
1126,1451
1127,1430
1128,1428
1129,1453
1130,1427
1131,1406
1132,1407
1133,1408
1134,1409
1135,1410
1136,1411
1137,1412
1138,1413
1139,1414
1140,1415
1141,1416
1142,1417
1143,1418
1144,1419
1145,1420
1146,1421
1147,1422
1148,1423
1149,1424
1150,1425
1151,1426
1152,1452
1153,1454
1154,1502
1155,1479
1156,1481
1157,1482
1158,1483
1159,1484
1160,1485
1161,1486
1162,1487
1163,1488
1164,1489
1165,1490
1166,1491
1167,1492
1168,1493
1169,1494
1170,1495
1171,1496
1172,1497
1173,1498
1174,1499
1175,1500
1176,1501
1177,1480
1178,1478
1179,1455
1180,1477
1181,1456
1182,1457
1183,1458
1184,1459
1185,1460
1186,1461
1187,1462
1188,1463
1189,1464
1190,1465
1191,1466
1192,1467
1193,1468
1194,1469
1195,1470
1196,1471
1197,1472
1198,1473
1199,1474
1200,1475
1201,1476
1202,1204
1203,1202
1204,803
1205,939
1206,929
1207,930
1208,931
1209,932
1210,933
1211,934
1212,935
1213,936
1214,937
1215,938
1216,940
1217,1201
1218,941
1219,942
1220,943
1221,944
1222,945
1223,946
1224,947
1225,948
1226,949
1227,950
1228,928
1229,927
1230,926
1231,925
1232,904
1233,905
1234,906
1235,907
1236,908
1237,909
1238,910
1239,911
1240,912
1241,913
1242,914
1243,915
1244,916
1245,917
1246,918
1247,919
1248,920
1249,921
1250,922
1251,923
1252,924
1253,951
1254,952
1255,953
1256,978
1257,980
1258,981
1259,982
1260,983
1261,984
1262,985
1263,986
1264,987
1265,988
1266,989
1267,990
1268,991
1269,992
1270,993
1271,994
1272,995
1273,996
1274,997
1275,998
1276,999
1277,1000
1278,979
1279,977
1280,954
1281,976
1282,955
1283,956
1284,957
1285,958
1286,959
1287,960
1288,961
1289,962
1290,963
1291,964
1292,965
1293,966
1294,967
1295,968
1296,969
1297,970
1298,971
1299,972
1300,973
1301,974
1302,975
1303,903
1304,902
1305,901
1306,827
1307,829
1308,830
1309,831
1310,832
1311,833
1312,834
1313,835
1314,836
1315,837
1316,838
1317,839
1318,840
1319,841
1320,842
1321,843
1322,844
1323,845
1324,846
1325,847
1326,848
1327,849
1328,828
1329,826
1330,851
1331,825
1332,804
1333,805
1334,806
1335,807
1336,808
1337,809
1338,810
1339,811
1340,812
1341,813
1342,814
1343,815
1344,816
1345,817
1346,818
1347,819
1348,820
1349,821
1350,822
1351,823
1352,824
1353,850
1354,852
1355,900
1356,877
1357,879
1358,880
1359,881
1360,882
1361,883
1362,884
1363,885
1364,886
1365,887
1366,888
1367,889
1368,890
1369,891
1370,892
1371,893
1372,894
1373,895
1374,896
1375,897
1376,898
1377,899
1378,878
1379,876
1380,853
1381,875
1382,854
1383,855
1384,856
1385,857
1386,858
1387,859
1388,860
1389,861
1390,862
1391,863
1392,864
1393,865
1394,866
1395,867
1396,868
1397,869
1398,870
1399,871
1400,872
1401,873
1402,874
1403,1001
1404,1002
1405,1003
1406,1128
1407,1130
1408,1131
1409,1132
1410,1133
1411,1134
1412,1135
1413,1136
1414,1137
1415,1138
1416,1139
1417,1140
1418,1141
1419,1142
1420,1143
1421,1144
1422,1145
1423,1146
1424,1147
1425,1148
1426,1149
1427,1150
1428,1129
1429,1127
1430,1152
1431,1126
1432,1105
1433,1106
1434,1107
1435,1108
1436,1109
1437,1110
1438,1111
1439,1112
1440,1113
1441,1114
1442,1115
1443,1116
1444,1117
1445,1118
1446,1119
1447,1120
1448,1121
1449,1122
1450,1123
1451,1124
1452,1125
1453,1151
1454,1153
1455,1103
1456,1178
1457,1180
1458,1181
1459,1182
1460,1183
1461,1184
1462,1185
1463,1186
1464,1187
1465,1188
1466,1189
1467,1190
1468,1191
1469,1192
1470,1193
1471,1194
1472,1195
1473,1196
1474,1197
1475,1198
1476,1199
1477,1200
1478,1179
1479,1177
1480,1154
1481,1176
1482,1155
1483,1156
1484,1157
1485,1158
1486,1159
1487,1160
1488,1161
1489,1162
1490,1163
1491,1164
1492,1165
1493,1166
1494,1167
1495,1168
1496,1169
1497,1170
1498,1171
1499,1172
1500,1173
1501,1174
1502,1175
1503,1104
1504,1102
1505,1004
1506,1028
1507,1030
1508,1031
1509,1032
1510,1033
1511,1034
1512,1035
1513,1036
1514,1037
1515,1038
1516,1039
1517,1040
1518,1041
1519,1042
1520,1043
1521,1044
1522,1045
1523,1046
1524,1047
1525,1048
1526,1049
1527,1050
1528,1029
1529,1027
1530,1052
1531,1026
1532,1005
1533,1006
1534,1007
1535,1008
1536,1009
1537,1010
1538,1011
1539,1012
1540,1013
1541,1014
1542,1015
1543,1016
1544,1017
1545,1018
1546,1019
1547,1020
1548,1021
1549,1022
1550,1023
1551,1024
1552,1025
1553,1051
1554,1053
1555,1101
1556,1078
1557,1080
1558,1081
1559,1082
1560,1083
1561,1084
1562,1085
1563,1086
1564,1087
1565,1088
1566,1089
1567,1090
1568,1091
1569,1092
1570,1093
1571,1094
1572,1095
1573,1096
1574,1097
1575,1098
1576,1099
1577,1100
1578,1079
1579,1077
1580,1054
1581,1076
1582,1055
1583,1056
1584,1057
1585,1058
1586,1059
1587,1060
1588,1061
1589,1062
1590,1063
1591,1064
1592,1065
1593,1066
1594,1067
1595,1068
1596,1069
1597,1070
1598,1071
1599,1072
1600,1073
1601,1074
1602,1075
1603,0
