,0,1,2,3,4,5,6,7,8,9,10,11,12,13,14,15,16,17,18,19,20,21,22,23,24,25,26,27,28,29,30,31,32,33,34,35,36,37,38,39,40,41,42,43,44,45,46,47,48,49,50,51,52,53,54,55,56,57,58,59,60,61,62,63,64,65,66,67,68,69,70,71,72,73,74,75,76,77,78,79,80,81,82,83,84,85,86,87,88,89,90,91,92,93,94,95,96,97,98,99,100,101,102,103,104,105,106,107,108,109,110,111,112,113,114,115,116,117,118,119,120,121,122,123,124,125,126,127,128,129,130,131,132,133,134,135,136,137,138,139,140,141,142,143,144,145,146,147,148,149,150,151,152,153,154,155,156,157,158,159,160,161,162,163,164,165,166,167,168,169,170,171,172,173,174,175,176,177,178,179,180,181,182,183,184,185,186,187,188,189,190,191,192,193,194,195,196,197,198,199,200,201,202,203,204,205,206,207,208,209,210,211,212,213,214,215,216,217,218,219,220,221,222,223,224,225,226,227,228,229,230,231,232,233,234,235,236,237,238,239,240,241,242,243,244,245,246,247,248,249,250,251,252,253,254,255,256,257,258,259,260,261,262,263,264,265,266,267,268,269,270,271,272,273,274,275,276,277,278,279,280,281,282,283,284,285,286,287,288,289,290,291,292,293,294,295,296,297,298,299,300,301,302,303,304,305,306,307,308,309,310,311,312,313,314,315,316,317,318,319,320,321,322,323,324,325,326,327,328,329,330,331,332,333,334,335,336,337,338,339,340,341,342,343,344,345,346,347,348,349,350,351,352,353,354,355,356,357,358,359,360,361,362,363,364,365,366,367,368,369,370,371,372,373,374,375,376,377,378,379,380,381,382,383,384,385,386,387,388,389,390,391,392,393,394,395,396,397,398,399,400,401,402,403,404,405,406,407,408,409,410,411,412,413,414,415,416,417,418,419,420,421,422,423,424,425,426,427,428,429,430,431,432,433,434,435,436,437,438,439,440,441,442,443,444,445,446,447,448,449,450,451,452,453,454,455,456,457,458,459,460,461,462,463,464,465,466,467,468,469,470,471,472,473,474,475,476,477,478,479,480,481,482,483,484,485,486,487,488,489,490,491,492,493,494,495,496,497,498,499,500,501,502,503,504,505,506,507,508,509,510,511,512,513,514,515,516,517,518,519,520,521,522,523,524,525,526,527,528,529,530,531,532,533,534,535,536,537,538,539,540,541,542,543,544,545,546,547,548,549,550,551,552,553,554,555,556,557,558,559,560,561,562,563,564,565,566,567,568,569,570,571,572,573,574,575,576,577,578,579,580,581,582,583,584,585,586,587,588,589,590,591,592,593,594,595,596,597,598,599,600,601,602,603,604,605,606,607,608,609,610,611,612,613,614,615,616,617,618,619,620,621,622,623,624,625,626,627,628,629,630,631,632,633,634,635,636,637,638,639,640,641,642,643,644,645,646,647,648,649,650,651,652,653,654,655,656,657,658,659,660,661,662,663,664,665,666,667,668,669,670,671,672,673,674,675,676,677,678,679,680,681,682,683,684,685,686,687,688,689,690,691,692,693,694,695,696,697,698,699,700,701,702,703,704,705,706,707,708,709,710,711,712,713,714,715,716,717,718,719,720,721,722,723,724,725,726,727,728,729,730,731,732,733,734,735,736,737,738,739,740,741,742,743,744,745,746,747,748,749,750,751,752,753,754,755,756,757,758,759,760,761,762,763,764,765,766,767,768,769,770,771,772,773,774,775,776,777,778,779,780,781,782,783,784,785,786,787,788,789,790,791,792,793,794,795,796,797,798,799,800,801,802,803,804,805,806,807,808,809,810,811,812,813,814,815,816,817,818,819,820,821,822,823,824,825,826,827,828,829,830,831,832,833,834,835,836,837,838,839,840,841,842,843,844,845,846,847,848,849,850,851,852,853,854,855,856,857,858,859,860,861,862,863,864,865,866,867,868,869,870,871,872,873,874,875,876,877,878,879,880,881,882,883,884,885,886,887,888,889,890,891,892,893,894,895,896,897,898,899,900,901,902,903,904,905,906,907,908,909,910,911,912,913,914,915,916,917,918,919,920,921,922,923,924,925,926,927,928,929,930,931,932,933,934,935,936,937,938,939,940,941,942,943,944,945,946,947,948,949,950,951,952,953,954,955,956,957,958,959,960,961,962,963,964,965,966,967,968,969,970,971,972,973,974,975,976,977
0,-2321.5830903872793,-2257.3850612817155,-2261.540453518283,-2205.791089860065,-2239.95086241812,-2247.2342118015417,-2182.9799020372434,-2162.5523309846344,-2264.4873983119683,-2331.1099441767265,-2236.8087338263863,-2209.944079811534,-2284.8616316399816,-2316.5186214309883,-2245.035613562538,-2289.0864034433976,-2325.2543938171316,-2151.4594333807386,-2237.3532531753567,-2302.0810257463186,-2192.813573460951,-2328.9268870589913,-2220.0847334716295,-2418.5626416046343,-2262.737058370809,-2326.1380459451593,-2215.3654009032807,-2278.33392919299,-2265.8849921138717,-2214.764540770239,-2313.6534429254643,-2292.343417950025,-2287.361762576647,-2325.1524990105663,-2343.8067227494485,-2254.8459633960365,-2211.844509589968,-2252.192170627658,-2270.424871901003,-2261.7616324050305,-2246.526218128834,-2165.931349173169,-2189.893232549793,-2090.5734218817634,-2157.072473035424,-2232.1200763313086,-2246.2961580969068,-2354.458443665166,-2187.4786239283217,-2100.4858944280227,-2280.640527776374,-2321.384742258575,-2337.906491228187,-2244.7911543772702,-2158.538707723493,-2277.619175786984,-2296.3276489831596,-2281.7311510549544,-2270.7286695563635,-2225.4637440305182,-2189.573619755191,-2223.5405532856744,-2248.620284663922,-2278.4592058977764,-2328.175772741687,-2328.7670744687525,-2222.122524265267,-2182.670819630164,-2309.1668873055346,-2175.866336641873,-2271.408480287211,-2306.2683070645307,-2257.2894654843153,-2310.1622154972656,-2291.2272107519957,-2224.587205397835,-2271.641935865986,-2256.022788371689,-2304.6884246886675,-2073.4040825111942,-2418.469260960248,-2319.7606681077536,-2325.172122557758,-2191.3007490888044,-2207.5374932016057,-3049.6308156960044,-2215.120876064587,-2415.7156679308177,-2329.595952384772,-2378.201512370925,-2317.0789089777336,-2326.4020899811503,-2228.722786321237,-2152.245018157956,-2210.6553855442703,-2143.4466580368503,-2298.86363623178,-2322.8912159463316,-2455.7352183860867,-2278.8511533338674,-2252.7411581186816,-2325.2282454163505,-2196.303828851195,-2231.0285720133043,-2156.101185029032,-2148.5737340572596,-2156.2780307544194,-2184.26657593789,-2268.4604044843572,-2249.0671195486157,-2270.6290565957784,-2100.362058756265,-2247.019953772972,-2196.953775504765,-2128.194662675935,-2108.2129687029856,-2241.4262132136423,-2332.914476496048,-2269.557735419943,-2306.307138628848,-2143.8782925723285,-2316.2449147838556,-2229.4446178788103,-2121.792632769489,-2123.5108925383015,-2202.5994889172757,-2251.528425463966,-2268.045512770045,-2156.621260103643,-2414.9290115384124,-2256.3865916190107,-2287.5394951021594,-2314.7876508897625,-2222.123468881202,-2271.6187545581383,-2198.9665112119856,-2309.728471714047,-2317.2893871034544,-2358.2948468754175,-2197.9698119654586,-2051.522123382341,-2193.211494799893,-2197.8374291746713,-2309.9437668181563,-2198.2524838626073,-2183.4377270963223,-2247.0815855082087,-2265.9800533073812,-2197.152541017381,-2102.2829641735434,-2165.5559347400604,-2140.656917974866,-2155.502238537168,-2313.9338223178015,-2173.051594490603,-2138.963750993543,-2227.6978400813155,-2209.9270754775657,-2263.671318180749,-2144.850825447036,-2054.6617972307495,-2097.938867729225,-2266.148617243886,-2278.100071770545,-2300.7959448306533,-2240.026584212636,-2304.6757718321205,-2055.191580408463,-2192.2230798242526,-2217.585608150362,-2179.4159935404305,-2101.149992563704,-2104.215258848636,-2203.524163239024,-2146.765192745062,-2160.2052990546567,-2180.3649952672768,-2128.422009121203,-2094.857050109548,-2015.8132797640153,-2142.5450089214432,-2232.816062041372,-2138.6112561816853,-2229.452595306823,-2064.062313022366,-2149.4868293511677,-2149.808328909467,-2143.067435928573,-2209.916001144995,-2163.6085934414637,-2231.011432436481,-2155.471569803094,-2071.7901427996726,-2231.603819113471,-2131.551786125124,-2215.591553861942,-2163.301056280362,-2271.575643845578,-2149.024677535349,-2238.2626792927813,-2180.072640591061,-2171.282013237914,-2245.7246426827555,-2246.4956593591355,-2052.20249147925,-2279.878427660847,-2126.3199408137825,-2140.5005562065635,-2191.462019087374,-2087.34810393804,-2105.527980962537,-2217.473724480259,-2189.8706267713383,-2176.5402550395365,-2167.86759487455,-2227.3999885828143,-2126.462632741412,-2111.276725776794,-2083.4485021724395,-2264.401668909783,-2158.659632423568,-2106.4923742905057,-2126.6175672693885,-2126.9814436446227,-2133.807953713874,-2177.576224762588,-2150.5634514681597,-2283.6987224675304,-2190.2311772750445,-2211.8133782209406,-2248.825573350009,-2147.5106486421814,-2157.190766436645,-2174.2832735819957,-2191.0765086561387,-2116.948160355489,-2147.686354517387,-2244.134623134064,-2248.1374893035327,-2173.2898105456557,-2222.831302578861,-2147.732481307937,-2111.6168093725846,-2279.4373043125856,-2102.144863954165,-2352.5329487262215,-2335.020247417558,-2244.0097348511213,-2130.256796385039,-2197.745702713678,-2094.5324287441467,-2149.411055833128,-2160.3088545289675,-2100.3147626439877,-2185.4775694652717,-2116.576767833476,-2132.0151338950586,-2187.8543413816437,-2196.6170011487175,-2175.2220219488377,-2171.959288747955,-2269.6318737326555,-2153.4991112192133,-2159.753846719613,-2237.410791726533,-2269.4642929535985,-2192.540818048547,-2191.007948338353,-2077.1783294852726,-2134.351456892967,-2146.7527088545557,-2173.8325011488096,-2247.4243396650627,-2301.7583198339107,-2189.470640924737,-2089.56525762817,-2153.341512884905,-2072.70307947916,-2159.2655277624463,-2205.4888494238808,-2292.717294428263,-2192.3099722062916,-2139.164325504823,-2085.06200558885,-2114.8916048303217,-2155.8235608242617,-2202.3939153627957,-2175.457648881665,-2140.7249651547545,-2149.8655977953285,-2126.301700677707,-2132.332705195082,-2128.592640970636,-2017.0016565938295,-2089.6496170059236,-2199.0731490526978,-2168.659335885634,-2199.110205953675,-2118.060142129286,-2169.773875813183,-2091.1627793042503,-2091.3708796624337,-2187.568285523963,-2212.514590193247,-2058.313306664694,-2199.370931388315,-2154.8810673100506,-2103.59840160524,-2114.772717692285,-2161.6449155087175,-2329.535977572073,-2151.3858923690505,-2218.105008212507,-2135.7694485668117,-2176.8300070376795,-2167.426628331762,-2195.684827603489,-2173.931993812926,-2283.9811622135658,-2216.0066784502965,-2189.742339524442,-2071.4970017874225,-2098.732406813113,-2070.3740860560933,-2081.0001879116826,-2136.241013743033,-2109.093284820171,-2130.1293244575527,-2152.3683195677463,-2162.5393930703895,-2154.3459997212112,-2088.4199277028333,-2121.258205701047,-2115.7275365659107,-2141.013901089434,-2091.8645442208604,-2181.347158331734,-2164.2786703934007,-2120.5552989136104,-2034.7569922751002,-2105.1863924732593,-2251.1807619328056,-2110.0478023620126,-2155.4963526477304,-2135.42722828258,-2110.764308607154,-2185.5584434647008,-2158.3590838385344,-2155.0884100593776,-2106.779316878753,-2124.361775925718,-2140.883335380822,-2150.3455492245416,-2107.203250054795,-2145.117493276086,-2144.1782663023796,-2159.719499529095,-2169.4736080005496,-2132.8886110826816,-2066.0378318265684,-2218.019791654444,-2030.6728389699822,-2140.088798854651,-2014.8756780455376,-2220.147378159891,-2235.2899542606237,-2204.6403276886917,-2013.3617854882586,-2103.693177491449,-2205.8131665580618,-2033.808450758469,-2248.8081028779297,-2189.8024811505206,-2066.62200523563,-2157.592127140188,-2055.7014004349444,-2079.6851141132433,-2128.791964661351,-2013.3234712169594,-2202.2753586174513,-2317.860075709142,-2124.858351587778,-2127.0017717354954,-2174.578317909694,-2127.690471972587,-2086.320167153748,-2143.9650181214947,-2152.6401380541784,-2197.958065439394,-2198.6182910541224,-2045.3738548312115,-2083.046740575067,-2073.0154629725316,-2109.4197098786217,-2108.4424146885544,-2121.029210890284,-2125.1589349379738,-2112.806424482058,-2142.610702024073,-2164.2295362077784,-2074.557953528548,-2059.2848122279183,-2116.861882432293,-2117.6221842987725,-2195.03454826526,-2200.059496892125,-2172.688456539624,-2118.639860151973,-2156.8379969409257,-2092.412857296588,-2147.0039749962516,-2211.5868512068337,-2135.5569102559443,-2158.263992484129,-2184.369559241764,-2101.4181049598456,-2198.1036660357795,-2191.1195205584995,-2160.3179548570674,-2042.0593453000333,-2066.602501220191,6890.79064474918,-2000.7141530352906,-2135.4643183949674,-2196.784568484233,-2174.5404043321682,-2163.635336013557,-2156.6489753040487,-2187.516123810414,-2122.584549275622,-2079.6778771644103,-2126.175618818026,-2200.7511763105276,-2203.092364651156,-2122.84585123756,-2126.99440959268,-2125.5593558211176,-2247.6886026698467,-2183.6054514498032,-2173.051335561382,-2129.2737027013677,-2218.248465165224,-2098.3211732590694,-2169.5600640019306,-2170.218718173619,-2137.5140319013462,-2129.6478078708265,-2129.4537905536495,-2099.206141497186,-2098.703839326777,-2115.354368227454,-2062.211280628234,-2119.434126531855,-2109.7998842220672,-2085.329530588671,-1976.3483020661429,-2032.1473353604165,-2199.7146981125497,-2175.7807637975952,-2142.4984965117333,-2146.4446057606688,-2136.967737075903,-2124.747818290545,-2146.025459769657,-2221.381178671341,-2129.3531906073217,-2107.9279929595205,-2178.3523266752113,-2154.4460533493284,-2133.12459897716,-2153.1179966513655,-2155.4590418700027,-2160.152266266071,-2135.8783023304927,-2154.3918568739214,-2171.906049833069,-2176.8038321043223,-2087.9299057365765,-2073.394905682389,-2172.6395950884207,-2199.307216330997,-2048.6696608815982,-2070.229457089319,-2013.6374477501427,-2124.643623016796,-2060.6907000776628,-2133.742500691363,-2144.333409099942,-2232.433167905659,-2183.195637681965,-2117.506188860409,-2193.680984388437,-2149.140278619702,-2235.7910243224014,-2106.2674617696694,-2096.7818049841835,-2053.5499962048843,-2179.3601397371144,-2126.1823934813633,-2201.5410056495593,-2061.91123242337,-2111.7526347512885,-2117.222544424018,-2067.0449763083084,-2203.382800485055,-2091.192230982755,-2204.238757035972,-2149.108260754747,-2117.4387975859495,-2149.899804199029,-2205.4044396445042,-2096.164837039624,-2139.860851048838,-2126.3512015302485,-2196.2022673944975,-2291.9301198127796,-2159.807139150671,-2223.146142742783,-2099.867918647302,-2087.429868593205,-2106.672472237412,-2085.464588355176,-2059.3358810291784,-2028.2150527342512,-2089.9120728751336,-2127.2671235605076,-2074.417248384539,-2092.861912344185,-2177.2471847611955,-2021.1605609677738,-2107.982910236857,-2078.16810168694,-2090.558340869226,-2072.7194210442244,-2201.5915158318753,-2141.7596577109266,-2152.148112748193,-2173.8165410276943,-2144.8048004625166,-2125.001866991392,-2098.6173118099746,-2071.0535590702043,-2112.838939265473,-2155.4117667557925,-2074.7834072918563,-2119.753600790424,-2116.3384246901087,-2094.121121423649,-2066.1887657059997,-2050.7947893749797,-2090.616560571652,-2012.7039687860479,-2154.623419646419,-2143.549241483145,-2030.181486572445,-2071.034403713289,-1956.7503992466056,-2134.361562480462,-2097.2879636640287,-2060.9623929115837,-2177.6580653090177,-2148.900932427661,-2146.2161618316536,-2129.028655176414,-2108.5616489577237,-2099.06707687709,-2192.3428725556832,-2242.6499041616485,-2093.6058301680946,-2193.044109495399,-2109.0302031716355,-2084.7235298378955,-2055.1704545173757,-2157.513257737888,-2098.71063025275,-2153.2926809672954,-2076.6062269232107,-2265.3082535956705,-2213.047866566226,-2152.671647296835,-2125.166464412908,-2139.4888477068575,-2132.037826084893,-2076.359042760449,-2127.8708448360476,-2213.301081864496,-2170.811000929293,-2109.4043926532745,-2080.7768608160272,-2157.8290551024497,-2113.075822144997,-2244.788020673928,-2062.896396076048,-2093.7449599123784,-2069.450963787299,-2189.043578561964,-2100.4637994843865,-2119.4121379714115,-2105.0807659542997,-2075.2034412125277,-2194.168369455068,-2091.7439222741873,-2117.6763435347634,-2181.90228719044,-2120.409683654946,-2173.3656087606923,-2210.060407329096,-2125.70356457031,-2132.8536791085094,-2159.560086002307,-2107.1147497149805,-2304.376043663526,-2151.447029045449,-2214.1420613772434,-2259.263993278557,-2132.6046689870514,-2162.864805115168,-2283.128439401414,-2176.5817028162714,-2154.7333196509953,-2175.34207630029,-2232.401148069213,-2181.889955845657,-2197.6659649059334,-2177.2954229220622,-2112.4562132560773,-2180.7216866109957,-2125.6528035057904,-2103.7751797565334,-2172.474582536363,-2125.9812679564625,-2071.150472286826,-2253.6664021045885,-2199.2139351633828,-2161.406154963932,-2087.946840244304,-2172.6690944873526,-2191.528113181581,-2013.442694983229,-2067.47441392256,-2193.0424578043294,-2195.6428562568885,-2209.6286476629825,-2120.4114883223974,-2138.986588475143,-2134.739409398243,-2131.598479906568,-2144.27369393986,-2082.807151762615,-2291.193400239339,-2254.8380950343526,-2186.4275091365403,-2152.7788237984655,-2116.4755135806845,-2099.400550411674,-2137.6222867779215,-2198.7365090649164,-2074.5364921129044,-2159.1632163611675,-2157.119983997439,-2128.181878271218,-2112.217741115692,-2065.0264229389004,-2274.9120361795412,-2243.46388886476,-2188.11075564927,-2126.811648485749,-2119.6422131930153,-2068.9758957580557,-2028.4482265919114,-2071.553425887672,-2052.869705817542,-2068.05092513561,-2132.0360985038706,-2147.7454132017906,-2207.4701559745063,-2086.79983836531,9210.405505510498,-2056.6013983112152,-2081.837712657912,-2188.9776452291644,-2148.2600437941055,-2058.825081782893,-2110.1554484974035,-2117.572432532024,-2217.64882174533,-2108.3713583912577,-2119.2293260652586,-2063.8413828829866,-2123.571034586365,-2120.287417182021,-2267.8750317035447,-2147.2942453914748,-2099.470005824203,-2089.4949260194085,-2070.6350346569593,1855.0858918567137,-2021.4852927820596,-2068.309514541148,-2114.9674853562383,-2208.4209174489697,-2142.6091682667557,-2147.3080437018016,-2057.893755830978,-2086.048878718532,-1999.8375679351384,-2031.7191940141215,-2058.6706265377134,-2145.609672308796,-2103.403939554918,-2187.619031174606,-2092.6552393380634,-2130.8619128533037,-2060.0392079407957,-2039.5502600054322,-2064.3700213276566,-2062.488116695874,-2051.237231172453,-2140.9590655928173,-2116.1860918518864,-2145.8185654602594,-2015.421787830688,-2030.720525715728,-2084.370122653742,-2149.4531798893604,-2134.0750390030075,-2091.7988803793296,-2150.3410338090825,-2071.637149508956,-1918.204102657213,-2102.158890777108,-2162.386576290133,-2191.5292113647924,-2173.190501250851,-2082.832306602184,-2032.53498455134,-2103.338557202813,1520.735316588869,-2023.3657302179638,-2182.79416106862,-2271.4258506870706,-2252.3827086711567,-2182.6833111619803,-2130.5793845275953,-2073.961646237071,-2153.3802379678696,-2106.2942481752134,-2013.7243560090492,-2128.112953887966,-2139.4561900956764,-2278.393438347044,-2219.347807194855,-2139.008317356918,-2082.9113445796734,-2107.8785332360717,-2179.2658317415126,-2105.2256409591846,-2148.5513032157864,-2088.2438345904716,-2146.216231832834,-2091.671427719548,-2076.6640194966535,-2150.9925885375455,-2120.4666324373115,-2202.044724715305,-2149.6948904996825,-2098.7286281482984,-2100.936465915687,-2090.2930072686927,-2135.3520772996376,-2072.265988838452,-2065.487960306362,-2095.011855362392,-2004.563480777063,-2088.8004578653126,-2043.2808607517388,-2121.5406305553893,-2030.6201474531822,-2160.4726250267286,-2171.32110743954,-2123.7669687721896,-2306.427253568098,-2203.1790750600503,-2101.1899649795814,-2086.8833665549355,-2006.0924680022954,-2007.2742158831104,-2051.0757549891373,-2112.4836220771845,-2070.8175320331234,-2064.463455289977,-2208.795336274211,-2141.464296441744,-2300.011774126408,-2051.7197740742017,-2164.3437083212903,-2004.6807946248227,-2152.0202573513097,-2060.976113146625,-2121.71081772268,-2172.5246362392877,-2089.4308186420653,-2097.378203075721,-2115.3537069565245,-2051.3698396423383,-2178.102072134951,-2077.362635177983,-2109.4874697206706,-2155.607147426944,-2231.397241856354,-2103.4402626630754,-2070.0245102065073,-2153.900570478155,-2042.2354291167724,-2112.0336720871314,-2139.0120988490535,-2133.745419642132,-2359.577018698906,-2084.7663995527655,-2234.007929337394,-2051.1481508775832,-2207.1856457981626,-2194.5602308890057,-2240.4353809692425,-2128.1029275457304,-2117.685569729985,-2181.7026140629246,-2096.242980219195,-2128.928609350749,-2110.199708157878,-2094.188380460309,-2081.6379521066574,-2278.8112582705094,-2236.4917408613283,-2156.5591696509846,-2127.9587841007083,-2089.7590180747543,-2101.7080262591367,-2219.2953444631125,-2214.362489042462,-2090.0348059282237,-2165.6509864779237,-2225.63255883446,-2165.2717483166357,-2044.3487009632086,-2098.898506236988,-2108.7736322805617,-2189.330996077659,-2201.820735855359,-2163.3735203451365,-2122.965752307773,-2188.970862572335,-2111.6908167470833,-2208.1476703876524,-2209.95667535617,-2158.3286790193138,-2109.8962186873027,-2071.7645852587993,-2038.8184720892368,-2059.070513772707,-2103.0650863553115,-2154.7351514236575,-2170.659047466686,-2092.318151477288,-2161.8533995966227,-2033.6252704959916,-2150.120480037292,-2152.38789066928,-2186.9613782222427,-2149.203408672258,-2100.2974549278088,-2096.873566192916,-2068.103572974306,-2040.9867791780996,-2127.1256676518447,-2133.966076582113,-2118.470033196816,2013.045160884415,-2034.263203324186,-2015.1929497487135,-2008.7166835885967,1596.4244461346354,-2063.568441890052,-2153.6281400417865,-2105.657885574026,-2070.055750313925,-2145.119347992335,-2176.872287765403,-2091.3258597912873,-2113.0972790968335,-1958.933761155433,-2027.0302601865649,-2158.8839185690244,-2136.717187835833,-2118.628243294657,-2047.527081271162,-2091.6737156388276,-2180.90670014097,-2114.3471170740963,-2033.7116203195803,-2113.0418171879837,-2069.856326904713,-2115.0453948678182,-2108.4048387006683,-2125.2124424148037,-2093.7831621025575,-2021.7436719549787,-2083.014411916941,-2193.9369468391774,-2157.632281315659,-2092.1004461724656,-2151.5181738345395,-2088.6239531632696,-2135.0472122245365,-2072.0126129027553,-2093.8927244023657,-2099.2593652774794,-2226.1245796968274,-2177.9170741719927,-2158.5069956682864,-2147.481872458147,-2125.265287630957,-2102.629540659787,-2050.757747893816,-2111.5364944998773,-2029.298718922074,-2106.0159375378876,-2120.112056274127,-2074.2035625264225,-2132.274047236696,-2048.5015920169058,-2082.1107918227403,-2093.003019688213,-2124.0290964876153,-2116.4414229749864,-2202.2043101965005,-2070.0630347150855,-2087.3836200890237,-2064.1276614221433,-2078.939644117093,4777.057546060701,-2109.4007274349806,-2065.5318055666166,-2079.647771582955,-2006.0077372298754,-2061.7038618517263,-2072.066560344494,-2087.9317118089484,-2052.776740372431,-2111.964752051539,-2064.0075310937164,-2131.1730751451782,-2151.030570845681,-2148.024345016268,-2080.8451078285475,-2121.442862872017,-2137.679798057272,-2030.154439584032,-2067.16902893042,-2124.6829953021643,-1938.4826111553182,-2002.5425157208472,-2027.0945730846033,-2069.4854325618126,-2160.3755028229825,-2103.273889021894,-2102.041962503784,-2148.5218296836106,-2054.8660889268413,-1936.6006853110805,-2019.6911901964284,-2061.3643285649355,-2108.4092495715054,-2120.0871190985476,-2141.5918064369866,-2042.625055737376,-2120.1030105522877,-1998.2146273169935
1,345.38395485250925,346.38528227800344,346.3850971192399,346.38497626060575,346.38500830080653,346.3849526109496,347.38627902023535,346.38516143933555,345.38396933312174,344.38327379153907,344.38275612166217,346.384942801763,345.3843429707449,345.3841179851592,346.3851415039242,346.38554964651127,345.384444772505,347.3868334332191,346.3851902879251,344.38316694168304,346.38501236319996,345.3841194783538,346.38534774724576,345.38394617126795,346.38598017812245,345.38471695922004,346.38490911927454,345.38415314055766,345.3843824405933,346.3850706345985,345.3843498968518,346.3849928895313,346.3860562937796,345.38488776622376,344.3827320863225,345.38399138989104,346.3858636542525,346.3849183728197,346.38518782998983,345.3839326107535,345.3839439526573,346.3853441243181,346.3857841293363,346.3849883494664,346.38534327363595,346.3849734445377,346.3852511598081,345.3841235261849,345.3838306944809,348.3873611849265,346.3851539425367,345.38384309069,344.38309361000177,344.3827443037096,347.38602146696286,346.38489837047644,344.38365998359524,345.38399484375776,345.3839203565478,346.3857846678182,346.38512747477694,345.38449456189267,346.3853213112149,346.3852034590052,345.3837711727361,344.3829448741114,346.3851150502032,346.38513739311566,345.3841133097502,346.3852625977707,346.3849457366006,346.3853545772862,346.38534009199566,345.384147160022,345.38457361610176,346.3849063077142,345.38378467416265,346.3862359111425,346.38563054342984,348.38831000815185,344.38307926419407,344.38341133962615,344.3834089768417,346.3854332149602,343.3816855928457,340.37855424648626,346.38492021657976,345.383939209402,346.3849748321127,345.38395534514837,345.38384932362095,344.38273540559953,345.3837942378231,346.3863934518838,345.3840192517646,346.38497842700565,345.3838740318785,345.38399265217856,344.3830261391805,346.3849607887003,346.3850862411529,343.3824945612628,345.3839269770773,345.3838951065101,346.38631732093796,346.38506417540486,346.3850121722511,347.38648448706545,346.3851194766575,346.38508459508205,344.38297528052095,346.3849966032798,345.3845301011833,346.385071322626,346.384917809142,345.3838631879056,345.38406497329066,345.3840564528065,346.3849604725982,345.3840959228704,347.3861598494729,344.3827460476848,345.38439942180105,346.38529397336475,345.3843284920955,344.38316908035983,345.3849405054152,346.3856606991378,347.3864980704722,344.3832700398959,345.383923135599,345.3839780110998,345.3838488945354,346.38487355034823,345.38378268176865,347.38731506066983,346.3849965304484,345.3840492356005,344.38302905891453,346.3851357739781,348.387461314477,346.38583110411514,346.38519878029626,345.38395678386354,347.3862621091059,346.3851321682429,346.3852751313976,345.38378744989865,346.3852679152844,346.3851696012883,346.38510997521604,346.3852605377386,347.38647414246407,345.383975541849,347.3860861201543,347.3861477933628,345.38427285940475,345.3845880301593,344.3828952173494,346.3851755645053,345.3839778640415,345.38393857142836,344.3834539529664,346.38514286611945,346.385949215569,346.38556767833546,344.3829434553996,348.387410557715,344.3829185894234,345.38488080425554,347.3862967768962,348.3872535626389,347.3859873837148,346.3848828500576,345.38382412522833,346.38500172273405,346.38542845936297,346.38494685352515,348.38723862929504,349.3888360565878,347.38603251020476,345.38441240735744,347.3863267053462,346.38518898642997,347.3860596385053,346.3850515123766,346.38522712398645,346.38511186936387,346.385368475609,346.38613138236474,345.38379698149004,347.38634764137623,346.38586113161585,346.3848730789198,346.3853226524854,345.3839337085507,346.38511535401767,345.38412372660275,347.38661887978895,345.38428838438034,347.3861757180128,347.38632126320294,346.3848948664072,345.3839828428822,348.38737356699255,345.3838745878016,346.384939248104,346.38561350108245,347.38603444948245,348.38742959908086,347.38632465788714,346.3851263253432,346.3852791456797,346.38515740325533,346.38519263817693,346.3852241930254,347.38622122293424,348.3875583212218,348.3873796992277,345.3839176730151,346.38561496977036,345.3838514591809,346.38497478095275,347.3863091617697,347.3863295665934,346.38581270337073,346.38505045865514,345.38428244814986,347.38608918094957,346.3849406394945,345.38387787442196,346.3853266819641,346.38551512533564,346.3850198825221,345.3848582389976,346.3850140742653,347.3863270975889,346.3851199500859,346.3851478395291,345.383998522368,346.3848999345701,346.38492283289753,347.3863669466174,345.3839026412456,348.3873781800141,345.3838201717473,345.38410466478337,345.3838479507931,346.3848971563873,345.38376543678163,345.38414905152274,346.3850822955062,346.3849267809183,348.38710147733093,346.3850299044833,347.3863205890411,347.3861577561493,346.385660336319,346.3851938302199,346.38510117097246,346.38497521073134,345.38380211277,347.3864192904092,347.3861158526745,346.38510667847703,345.3846171712237,345.38425221477263,345.3838031462114,346.3859855730768,346.38523787750097,346.38492194179867,347.3861919202132,346.38516727745167,345.38402178381153,345.38402215618885,346.3849420530735,345.383994733621,348.38712392667014,346.38501014162745,346.38508536008635,345.3841730407857,346.38515040180187,346.3850216099562,346.3853391505876,346.38508754838404,346.3850247189088,346.38503336897577,346.3855407929722,346.3854056324903,346.3849367817417,346.3864189283237,346.3851980134565,347.38648603201807,349.3890475904087,348.3874243793404,346.3849733575033,346.38496464579373,345.38469566561037,346.38519590674497,346.38527584274334,346.38529588530463,348.38725068748056,347.3860264557688,346.3853852267133,348.3885336969849,345.38387366937155,346.38501769140385,346.3849756639266,346.3850574445858,346.3855754973695,345.38388888900295,347.38601848961935,345.3837989667272,347.38630602639364,346.3853001097075,346.3850813881642,346.38511190869923,346.38548772417425,345.38445724289176,346.385755438834,346.38529550019973,345.38412950896986,345.3838637362155,346.3849805910181,345.38389203127724,346.3852930683761,347.3862771558769,346.3850745437976,347.38610546383353,347.3862568314947,346.38546430551213,346.38585627512174,346.3850740303772,345.38393912670443,347.3862464418783,348.38721260655365,345.3851047093258,345.3842765715175,345.3843452473015,345.3838139063186,344.382647490019,345.3838942716978,346.3849701117505,346.38495548000895,347.38641194688273,347.3866504230673,346.3853632326718,345.384057767695,345.3851591471658,345.3845632831233,347.38730114096103,346.3853089702551,346.38491507273307,344.3836274888979,344.382876900811,345.383894597968,345.3840886031864,346.3851855643152,347.3862813944884,346.3850322947054,344.3829369246212,348.38710493321315,346.38499717736295,349.38986081753063,345.38416608010937,345.38395859864784,345.38388180160456,345.38400645769053,345.3838751598031,344.3828618589546,345.3839743880914,345.384656506333,346.3851547454086,348.38714478148887,346.3849272577073,347.3862589500643,346.38506541379746,344.38287747574026,345.384352283679,345.38505807247265,345.3839063456863,347.38686579925417,345.38381077302995,346.3855387806046,345.38392298575945,346.38527709997334,345.38404229764717,345.3843059473917,346.38570345767926,346.38528446395225,346.38596648866155,346.3851098771587,345.3837972153483,346.38553792202816,346.3849080829442,345.3841406222503,346.3850858467698,346.3851083127596,346.3850025453257,346.38502638972477,346.38495508414087,346.3852816992621,345.38390906321655,346.38487322652,345.38394411157185,346.38488356833454,347.38628841718884,347.3860197702121,345.38443500886757,345.3838829406175,345.3837689247057,345.3838179821158,344.3827769744621,345.38389902371534,345.38393547337085,348.38710423972145,347.38615792831047,346.3849538478439,346.38576541490943,345.3845629620046,346.385088555139,294.32704425226086,345.3839347150264,345.384245689517,346.3850383830987,347.3861407152487,346.3852022912756,346.38522078264634,343.3820218850424,346.38509398184857,346.385010630093,346.38636184965094,346.38493656214905,345.38376206329696,346.3852261843635,346.3862205503018,346.38517311479865,346.38496601976783,347.3862970992601,346.3852394456452,345.383822690927,344.3837244597231,346.3853573610445,346.3849557103346,347.38611830263335,346.3850847294132,345.38398560524075,345.38397611811183,346.38515910228614,346.38499645249476,347.3861074476824,348.387689212906,346.38492720261524,346.3854571054359,345.38405675973985,346.38500669541844,345.38418124277285,346.3848925858081,346.3849448095221,346.38494035307536,346.38494465370695,346.38497588162426,346.38525599870235,346.3849770487733,346.38504884550116,346.3857660772734,346.38511573687475,345.38418016587985,345.384039454223,346.3849350757305,347.38716049427256,346.3852774703238,346.3857993610649,346.38530010156654,345.3839337603001,346.38524955237625,345.38406306784316,348.3875714163319,348.3875173598017,346.3858544674253,346.3850773278432,345.38469159995253,348.3884229837457,349.3882633637007,346.3853478001439,346.38577302534935,346.3851692580871,346.3855421854472,345.3837834969343,347.3862739780276,347.38624237693864,346.3854832740419,346.3850236971169,345.3838492395849,346.38513970938834,345.38386586563206,345.3840177797364,346.38518372923426,346.38496929692076,346.38502350129056,347.386814621676,346.3852700658742,347.38599371143414,346.38487260131717,345.38387633921934,346.38511349920924,346.385034195177,347.38664619192014,346.3860010782137,345.383875051609,346.38533137840324,345.3839578378304,344.3828457531814,346.38498221228144,347.386601052719,345.3844081078714,346.3864426887255,344.3829162189641,345.38398010491676,346.38512820208604,346.38547595120843,347.3865979225077,345.38437757524895,344.3828200432186,345.38504432632067,345.38385447637876,348.3871955142332,345.3839570551201,345.3844961079686,345.3846332499787,346.385873027579,345.38409915723446,346.38505691917044,346.3850860207986,346.3852519781896,347.3864921095393,346.3852412850731,345.3839648205054,346.38655122657354,345.38408723970076,346.3852298927461,345.38465466022427,347.3864340871433,346.3850775843483,348.3874066092861,346.38537407279836,345.3847492073181,346.3850058897206,345.38402914199025,346.38523950230984,345.38401953448636,349.3883122471446,347.3862825003255,347.38648318481853,345.385039778589,346.38520797543924,346.38516829766866,346.3849867480821,348.38746259463124,346.38490024768095,346.38530730233975,346.3857741452861,344.38311115032496,345.38419719825583,345.38404581593875,348.38783074764024,345.38382282437925,345.3843604660196,347.3861229087771,346.38562150624216,346.3855480340206,345.38400262816884,348.387117414403,346.38518411761805,348.3880475982675,346.3853214213212,348.3873065049891,345.3838610396888,345.3838784073467,346.3850073798421,347.3861761784724,346.3857936505315,346.3855934942951,346.38539289854367,345.3843386971644,345.38391778248695,345.38469484291466,348.3877232029337,348.38742011724565,346.3850437180364,346.3851192103446,345.3838792789899,345.38390805197264,348.3876891807677,348.38735569927707,346.3851138420972,346.3852879296532,346.3848854244213,347.386201382266,346.3853709477695,346.3855066788063,348.387419015519,346.38490834363995,346.3852665423878,346.3855615315233,345.3838555309148,346.38519876258584,347.386042311299,346.38565397589343,345.38404046612874,346.38569544209804,345.3839642129748,347.38622778838186,346.3848994982785,345.38377512700475,346.3858088756779,347.3863299629969,345.38437829710597,346.3848815602857,346.3860462831248,347.38610288257837,345.3839550769436,344.3828962228226,345.3840319624525,347.3862463989739,347.386130314168,346.3850656556496,345.3839579367955,346.3852279649648,345.38451749671077,347.3873838421312,348.38731425442,345.3839047406406,346.38539342099824,345.3841091103596,346.3851288453622,345.3840461166919,347.38727542975425,349.3883485855172,348.38804391115815,345.3841361328104,345.3845035674801,346.38546287920576,346.3866571728437,345.38378209302243,345.38406343833077,347.38605125738314,347.385993633612,348.38732981574884,345.38382817930756,345.3838418774871,346.38525417145684,346.3854050566013,346.38520193984505,345.3838215357676,345.3839977349723,346.38522775986456,348.3875874930645,346.3856734826286,345.38416577185126,346.3851405657173,345.3840557724116,345.384141292811,345.38381068136584,345.38467264722595,346.3849926802197,345.3839527590673,345.3837814109766,345.3841890692398,346.3850669991206,345.38382346862056,348.3880695439668,348.38824373930083,346.38496321615406,346.38504763229827,345.3853356721152,346.38510416227,294.3270845387652,345.38408606961895,345.3841916375967,346.3850329762137,346.3858796705666,347.3863655036235,346.3854611381103,345.3844786370006,343.38181638378734,346.38542906614657,345.38400339202366,345.383870725389,345.38418445018317,347.38655094796485,345.383778149812,345.383804616076,345.38384698268914,344.3833226941099,345.3854207320935,295.32832875811073,345.38382145722426,345.38519736321706,344.3838741635566,345.38432658368885,347.3862506637288,346.3849165558991,345.3844290299499,345.38418440294737,344.38329815158386,345.3838153433357,345.38493068141594,344.38415021585575,346.38501346221403,346.38537997297647,347.38738602326487,346.3851568382693,345.3842526880201,345.38428433455755,345.3849365701488,344.38302326966476,345.38478790169785,347.38633891260963,346.385118491269,345.3843198652448,345.38376123604786,345.3844697518998,345.3839548832936,346.3854455262212,345.38403034651753,346.38528168709496,344.38279293687515,345.38391250723373,345.38424756736015,346.3852401414761,346.38526848399414,345.384394296501,344.3826707816643,345.38432781037926,345.3838654009656,345.3847488288089,294.32772540318035,345.38398911409854,345.3839775257253,345.38419739855556,345.38412836709006,346.3858055753376,346.3850517867224,346.38537035052923,345.3843070436588,344.3835360230028,345.38441842400795,345.3839951944656,347.38638279958417,345.38428978298,344.38296204250344,344.384234649005,346.3851386925694,345.38402102373595,345.3850322712424,345.38454050144077,346.3849411012179,345.3843653022526,345.384312652302,346.38535614166454,348.387407082669,347.3872464935408,346.3852003494949,345.38387243541206,345.38378087498256,345.3837985023386,346.38518798403953,346.38528172910355,345.38418789734396,345.383866595785,348.3872719885164,347.38601920538576,346.38517280051644,345.38426040318785,344.382658480696,346.3850378687995,346.3855103168199,345.38449774339875,345.3853733955136,347.38603646428334,345.3837800225717,344.38271819898324,345.3843481814049,344.38269716373935,345.3838683238691,345.3839251014134,348.3874073046274,346.38568116633195,346.3854137211743,346.3858577938711,346.3849366850104,347.3861516471003,345.3837693576013,346.3857296331375,346.3849362279561,344.3840717508943,347.3862264086471,348.3872629410694,346.38514669031287,345.38424708456324,346.3849983221449,346.3850906864643,345.3839285976688,348.3872282891969,346.38502782565723,348.38716425636255,347.3874537699708,347.38614280848174,346.38529174676705,347.3869541731298,346.38493696150545,346.38510588161625,348.38764650370274,346.3851934751961,347.38640960963414,347.38608264414364,345.383933024052,348.38732909889666,346.38498294011254,348.3871111976861,345.3844851041901,346.3850500258726,345.38400997419814,346.3861985918385,347.38613838240406,346.385247479566,345.3839351820248,346.38569008032874,347.3861384379887,348.3874159094951,348.3879187599014,345.38419319394785,346.38541359471657,345.38379245832624,346.38530279586206,345.38444393619613,346.3855696095957,345.3838262257634,345.38391802228773,348.38760949107655,347.386115616937,345.38383690181126,346.3850220912453,345.384850522145,346.3850593429916,346.38546798271415,344.3828355940387,345.3838896575731,345.3838801600689,346.3853567456588,347.3864985671051,347.38636765494,346.38507955215164,345.3839835250367,346.3851104126379,346.38575471628013,346.38494999386216,346.38516343481183,348.3877503467716,348.387151335861,347.3860614794821,346.3849875426369,346.385844496859,346.38567252671487,345.3839851043153,347.38655623791703,346.3852457193959,346.3854200507479,346.38494366255054,346.3855290483828,344.38267010557706,346.38535025860585,345.3841373915644,345.38448607288274,345.3839752380187,346.38512129783953,296.3298149585296,345.3838364296748,344.382784851425,346.384982893318,294.3270789803742,344.38334591024835,345.3839364735176,345.3840240449013,348.38858669457534,346.3852385780576,345.38394916874586,345.3840292502473,346.38545951856423,346.3850749055935,345.38475817884523,345.3838357378313,346.38498077947924,346.38546362611544,345.38395211959033,345.38383418566804,344.38319609850055,346.3851363704371,346.38529223588506,347.38648388625217,348.38822160278045,346.38521301723335,346.38641417396957,345.38386717071,346.3849972922927,346.38493097746596,345.3840162848973,345.38438670180847,346.3848877460318,348.3871572066062,346.3853819923661,346.3852454372162,346.38491319101047,346.38514198174437,346.3850397870829,346.385161543361,344.38295394483686,347.38644578094573,347.38644082158146,346.3854700135835,346.386084952177,345.3837978556968,346.3851925850939,345.38541752928097,346.38548183684765,345.38487787632494,346.38499868815006,348.3874238821192,346.3850470492485,345.3838944991273,346.3854526603441,345.38474038246267,345.3842708667878,345.3841058793517,345.3837891238118,348.38736524728034,346.3855083491989,346.38522668804865,345.3840050378546,294.3270526230411,344.3832331712268,346.38512442200715,345.38390499220475,349.38837713957935,348.3873047923366,346.3868562301531,345.384740298774,346.3849631604746,347.386205839268,346.3852093484385,346.3851504940694,345.3842392394318,345.3844202933109,348.3875797316501,347.38613910229503,346.385598434416,345.3846044067638,346.38487893754535,345.3838123702891,345.38422525332567,345.384268419217,345.38420710425225,348.38709710951576,346.38510420377537,347.38640879714546,347.386001000522,345.3838872658576,345.3839047009719,345.38462243484474,344.3827612509728,345.3844276350303,346.38596119365235,347.3868576133389,345.3848409768821,346.3851058564645,346.3865281450198,346.38494030547645
2,-0.0029200256468095995,-0.0028612145624118254,-0.0031295060459913524,-0.0029653022853571706,-0.0031588399128220997,-0.0031963259302895254,-0.0028215193803916173,-0.002655887035222627,-0.002873268992889738,-0.002980761972471868,-0.0031417633799811257,-0.0029710506915363493,-0.0032438118029637316,-0.0034163071009015284,-0.0031843124295504606,-0.0030351549342506156,-0.0031118564936333947,-0.002543258236954361,-0.002738734082784304,-0.003163901768155415,-0.002978325140035629,-0.0033917759114219944,-0.0029344884910430316,-0.003263793846475534,-0.003075430765521464,-0.002826195359942417,-0.002605092244320101,-0.0030090453996193967,-0.0030437345958034974,-0.002923335084687909,-0.003102500326372739,-0.0029931098831350637,-0.0030117576704134117,-0.002963954747081316,-0.0030071470958288327,-0.002962968471785171,-0.003139584609272799,-0.00328223868249618,-0.0029715691194998183,-0.002862920256805487,-0.002561301002247025,-0.00264131036448644,-0.0031982159716399876,-0.003431589537480534,-0.00334097853099678,-0.003099294900714271,-0.0032144212314161864,-0.003387415156821448,-0.003048959893516603,-0.0030178140605904053,-0.0033535706641422878,-0.0030460643324855506,-0.0030503455507222246,-0.0031418815308442054,-0.003030813188157551,-0.0033050297981990287,-0.0031662687921540237,-0.0027827032347168953,-0.002989678202555374,-0.002986956284134877,-0.003113819912050666,-0.003125743923237081,-0.003104509695639172,-0.0030691044590009865,-0.0030046239158117724,-0.0031040473550894006,-0.0029976306539267234,-0.003128674387271667,-0.003488193883360755,-0.00327862587790843,-0.0031497376743395505,-0.003289534426467659,-0.002760547826585698,-0.0029595926471774553,-0.003012023990044916,-0.002994112486063937,-0.0031630530244832404,-0.003210359603917253,-0.002973342729310943,-0.0026545087133370143,-0.003081852247524613,-0.003071483575822126,-0.0029854368682452684,-0.003173181053519695,-0.004047073608517538,-0.004750929706052715,-0.0028878216614121313,-0.0030607205131575094,-0.003108564323492794,-0.0028751303106121784,-0.0026374555114141523,-0.002639697749826992,-0.0026298997436258733,-0.0030860270280247,-0.0033570164092092463,-0.0033410656833202977,-0.0033277024069610405,-0.003542705886794525,-0.0034091409967169292,-0.0032307237563034452,-0.0032504762634488994,-0.003117227316837988,-0.002714212660258758,-0.002930101686260807,-0.0029191623752856336,-0.0030721201513301726,-0.003085089393221751,-0.0029308117611516167,-0.0029158367581185343,-0.0028896300565720637,-0.002920633724953275,-0.0028653770334691182,-0.002709338198712632,-0.0029456891478597093,-0.0032006595185908836,-0.003388662942510568,-0.0032979557304572684,-0.0036269542722125073,-0.0032373229136479324,-0.0031526314285305534,-0.00260284397729331,-0.0030513171071317627,-0.0030279010282760143,-0.003079837331197392,-0.003519653824600581,-0.0032845047506666605,-0.0031035620591479845,-0.0030692872793378783,-0.0027901531071583456,-0.0030490453269999885,-0.002919597398646779,-0.0030484424149939933,-0.003036964893066875,-0.0033096906493912687,-0.0032090653241956357,-0.003056388364309542,-0.0033250902343384932,-0.003027522674992502,-0.0030417922080818263,-0.0026891675970767293,-0.0026303924720566117,-0.0030443754072151646,-0.0029775774527137115,-0.0033248184489699374,-0.0029543533753065986,-0.0032784116499192223,-0.002734398757319888,-0.002894787952748977,-0.002915369929160813,-0.0030959653716285114,-0.003258309987801538,-0.003289518107068354,-0.0029892413819922747,-0.003555691079599114,-0.0030916489470398266,-0.0027165693922889343,-0.0028987987278001775,-0.00281593155554969,-0.0030324663112346537,-0.003115811330316079,-0.0038283045098729557,-0.0035203305613022173,-0.0034973043411675965,-0.003319160259781471,-0.0029782435911745457,-0.0029114225103716385,-0.0032393026427531956,-0.0026486905694902882,-0.0030638949539279195,-0.0031940247660717834,-0.003111197311758528,-0.0029946284167452764,-0.002659642731244448,-0.0029841249437528457,-0.0029497235464281692,-0.00281137066349221,-0.0030845903875593847,-0.0032588729260637278,-0.0029435863769800273,-0.0030070251803408763,-0.0028565215814891267,-0.0028720662491922276,-0.0025894226753966467,-0.002804175283137961,-0.002710130150762107,-0.003064523058229111,-0.003305275896639636,-0.003155920922965577,-0.0032321974696981185,-0.002986147018628581,-0.0031372723170122996,-0.00309250779631426,-0.003746074234153354,-0.0030528020925595727,-0.002604259447503771,-0.003010221060075114,-0.002914569929053027,-0.0034830729395948718,-0.0029162917821478063,-0.0037393343498476274,-0.0032980388258063115,-0.0029801895097923575,-0.002836259080927834,-0.002915134457509697,-0.0026685678489892415,-0.003247539453081552,-0.0031242892612830054,-0.003040843640256368,-0.003163513449067654,-0.0028972962583835543,-0.002682846644815741,-0.002699013510739807,-0.00280780739661208,-0.00298571678414442,-0.003001935758064446,-0.0033436793197377107,-0.0031730278624357735,-0.003042618373384038,-0.0028752191748649663,-0.003033171191919568,-0.0027389855975649413,-0.0027413379616135964,-0.0030914330476038946,-0.003090834194359001,-0.0030639567532604016,-0.003316904167780789,-0.003345716759634514,-0.003883300910044049,-0.0032440839931122717,-0.0031992365383923605,-0.0029727209680480574,-0.002602261643703387,-0.00305779092684015,-0.0032637100275046413,-0.0033093997541003644,-0.0032495106744452203,-0.003163300888512479,-0.003655026104890456,-0.003408090014701487,-0.002802508963791899,-0.002846388844918376,-0.0029640978222623847,-0.0029152396474910916,-0.003623695267029423,-0.0029637393415389334,-0.003388396711748275,-0.003155224905776747,-0.0030724893075011325,-0.0031220529166334408,-0.0033299464898841127,-0.0032553558564477354,-0.0034350086257813254,-0.003396282695904301,-0.0032422750719124094,-0.003556058306300733,-0.002740192521413208,-0.0026758889829346065,-0.0028137603481807895,-0.0028555849474192377,-0.003261931654975416,-0.003311928151026886,-0.0034292210761893115,-0.0031433355191684094,-0.003132521381867623,-0.0033316675066569837,-0.0029677219542360964,-0.0029966442603744535,-0.003137221260964614,-0.0031480569946723577,-0.0031511324372878453,-0.0033902019890814043,-0.003045713055223431,-0.003369010215292425,-0.0033727564209772884,-0.003179446130699449,-0.0030830729256477473,-0.0034528604483068073,-0.0030547757394561166,-0.003389120075637502,-0.0031573426907023383,-0.0030537439816350175,-0.0030835258667080783,-0.003047254216309147,-0.0032179495591248223,-0.003400454717633031,-0.003402453525519915,-0.0034315527570411147,-0.00303040381925403,-0.0028165271911427783,-0.002999913160560359,-0.0032316565730300573,-0.0031967315255191533,-0.003198372645619338,-0.0030302643956982905,-0.0029882226911359657,-0.00323521171380176,-0.0028384229083045264,-0.0031383662426034222,-0.0031232465321409256,-0.0030052068918074585,-0.003169321597666133,-0.0029544979878669596,-0.0031398883183599113,-0.0032807045284062946,-0.0026551808787642025,-0.0029976981072890683,-0.003089621635757121,-0.003295725195360678,-0.003287624304012137,-0.0034090227436604876,-0.003690888872222841,-0.002988303084458722,-0.003095166138135046,-0.0026451346075982846,-0.003064770831621599,-0.0032501282426170325,-0.003176509070673162,-0.0033570906576768757,-0.003610888833858725,-0.0033715332319591944,-0.002961973269719625,-0.0029578036979919175,-0.0031226053841984414,-0.00308363618007956,-0.00369575374980381,-0.0033450166301317555,-0.0032424263391661197,-0.003314223765781346,-0.0031250854269540265,-0.0030288503766562197,-0.0032334166695219,-0.003107559867950857,-0.0031445136580102737,-0.003386593342949587,-0.0034540686686867898,-0.0029684938322851765,-0.0030357450338666502,-0.003111922173541216,-0.003094341547529569,-0.0033939897929240945,-0.003763041668860058,-0.003699841479598347,-0.0034177442434246788,-0.0035237465119023464,-0.0030778042665598688,-0.0029207957808073007,-0.002911726659759213,-0.003113622789812166,-0.0030222665998248166,-0.0036907842677907287,-0.0033658435844541126,-0.0034364743042133777,-0.0031224412951368808,-0.0032819284979273104,-0.0032714710833838543,-0.003407827467807798,-0.0037673306763090723,-0.0034669733836281873,-0.003151652687996499,-0.002986480380288936,-0.0032387195053795565,-0.0027733583122355227,-0.003531101659127592,-0.003025167672138355,-0.0032976763449360054,-0.00314838002597002,-0.00307564440262932,-0.003122308931709247,-0.0031390406152238086,-0.0034538581086755375,-0.0038441487107604795,-0.00394335109008429,-0.0032724640456939106,-0.0028805119962134027,-0.0030279363872770656,-0.0029456888665278466,-0.0031509179083194774,-0.0036150746598642416,-0.003432683112966404,-0.003801859743835184,-0.0039135162436177515,-0.0031004380323159937,-0.0032950154842639316,-0.0029018007549929175,-0.0032695774738650558,-0.0034394027216277387,-0.003321183187918724,-0.003561282370877189,-0.0033995511851093027,-0.003616244253730323,-0.0032291681853691702,-0.003139073067656794,-0.0028463298107609726,-0.0029101482960021074,-0.0032199015312948773,-0.0038031110889609906,-0.003427271032525986,-0.0033848893757710444,-0.0033093185401363145,-0.0030424274251297356,-0.0030807461016739758,-0.0031232457514151235,-0.0031736573198479336,-0.003141299733374778,-0.003576911417410964,-0.0032963272253531397,-0.0032837369298254486,-0.002791287920855667,-0.0030618827896138207,-0.0029648184701174464,-0.0031055068624917053,-0.0031688805599532927,-0.0035517434762560875,-0.003753552853974077,-0.0037882111998412227,-0.0031184556884136312,-0.0032485627047464504,-0.0032775054437915326,-0.0030172945373988813,-0.003224906732607857,-0.003015586618780367,-0.020491319848243476,-0.0038957417061359686,-0.003930935199707278,-0.0035134183003387694,-0.0031790026553559494,-0.0031766755497467966,-0.003121601562139631,-0.0034317110673240795,-0.003306640003679849,-0.003452819219816722,-0.0035301418952219023,-0.0034822082540433784,-0.003313182767854411,-0.0031073266495057093,-0.0031279279336052543,-0.003212639803650948,-0.0034727838992617,-0.003082112906697376,-0.0029830497474281057,-0.0030382482387180674,-0.0033207807388020076,-0.0034084417106456967,-0.0033689238173726693,-0.003218607595618612,-0.0031836860343988243,-0.0031763070321254743,-0.003229233500992518,-0.003287486976842293,-0.0032633795082282007,-0.003380443206706746,-0.003049905727874647,-0.0032105323398091425,-0.00298198282733158,-0.0032457938630458577,-0.0029761052207911563,-0.0038977271503444037,-0.003396213866137579,-0.0031328185911200504,-0.0031904139116356194,-0.003003482697092294,-0.0030214915035295894,-0.0031764570575041643,-0.003123662063465467,-0.003578514241570212,-0.0032191542297893734,-0.0029903019333482935,-0.0030985352798100566,-0.003151721721077263,-0.0031998471335076815,-0.0031884885366767228,-0.0029929921835027073,-0.002947317005169538,-0.0030183673335964964,-0.0031907520874659137,-0.002999310761758804,-0.0036675991484196764,-0.003165052862684973,-0.0029342976073507133,-0.0031849520106705343,-0.0030387270050134356,-0.0031445552908723937,-0.0029329254193346302,-0.0030337753060167153,-0.0031637881005901537,-0.0030745980312898084,-0.0030891876479956647,-0.003218937293984831,-0.0032567211485364316,-0.003292057063826342,-0.0031212810357737174,-0.0030391470574208683,-0.003012255151533739,-0.003014867375715811,-0.0033352568159965056,-0.0037241150516679807,-0.003838369835511312,-0.003535155123672507,-0.003298724960014664,-0.0031035348760520003,-0.002766571292998972,-0.0029934185925558467,-0.0030443415926714314,-0.0031870717051812295,-0.0037186634014947494,-0.003472004824712708,-0.0037365324861732712,-0.003071913811528737,-0.003062651282780607,-0.0032404306235240014,-0.0030195683739785303,-0.0033123159428161218,-0.0036981287206735098,-0.003442059884275765,-0.003293731997091028,-0.0037547744572421424,-0.0030537887856753342,-0.003497402069949105,-0.00289654678640069,-0.00308612985454807,-0.003248673918778875,-0.0032837145334692597,-0.0038270910010876923,-0.0035419234860435515,-0.003700382792887561,-0.0038216076474483613,-0.0031288246214927493,-0.0037273747744693596,-0.0030696009469026665,-0.0028954417724589275,-0.002930056507501235,-0.0033691764437169,-0.003203906091140519,-0.0032108799757616284,-0.0033689628587497624,-0.002916047735118119,-0.002860677105961669,-0.002981813878870975,-0.0029949486587673344,-0.0032091261325867975,-0.0031649898653606868,-0.0033674235681238093,-0.0032733947087100683,-0.003604871781452474,-0.0030185778722829964,-0.0031118646136546377,-0.0030817419373620897,-0.0031940434219842255,-0.003390489679696032,-0.003468227015427746,-0.0037709439401930177,-0.0030436256400553476,-0.0033505273697334997,-0.002968615924889914,-0.0032278563363373394,-0.00311847336023812,-0.0030530129369088247,-0.003512888513622425,-0.0034242419690213273,-0.0035166068548415715,-0.0030120453590873246,-0.0030166101476257865,-0.003331718122879567,-0.003442937004087783,-0.0035895452535488707,-0.00318435671493585,-0.004004945461405744,-0.0031930398331824856,-0.0026876469378357814,-0.003010861169959454,-0.00302109667769503,-0.0034547089575750443,-0.002919513000798568,-0.003190470652311981,-0.0030447476226225937,-0.0035574736610078594,-0.0029062406507848874,-0.003172288726846658,-0.002979348750874261,-0.002986668056502949,-0.003075392976912529,-0.003154395106379877,-0.003219278837966364,-0.0032346951862585317,-0.0035142199486992163,-0.003686570247245151,-0.0036484315507321584,-0.0031198984785813905,-0.003034383026085171,-0.0031686319424061317,-0.003088057955629313,-0.0030913754933929267,-0.0033709678177557744,-0.003323311891860624,-0.003154143325192562,-0.0032710248514809803,-0.002972526967856066,-0.003082236487686923,-0.0031234033281782826,-0.0032150659349145547,-0.0033543390459693755,-0.0030973324189880426,-0.003246461152357013,-0.0030401908874117226,-0.0031663011377102814,-0.0035781081215236978,-0.0034711668778772365,-0.002890873153964178,-0.003157797470901583,-0.003313594401722178,-0.0033173604644247466,-0.003646945538204066,-0.003015198355882173,-0.003085929981422292,-0.0030812113480703806,-0.0029712870254237907,-0.0030853485472023346,-0.0034396062981018167,-0.0030911320777743906,-0.0032037984370354316,-0.003017221164992303,-0.0032434228831764666,-0.003242831636985899,-0.003505482213549389,-0.0031460897133450687,-0.002830488873805317,-0.0030038971326507577,-0.00312015272721631,-0.0031503309594933912,-0.0030732099643605553,-0.003319379568529459,-0.003134042441079733,-0.0035114465065563772,-0.002953486213838238,-0.002878795218797317,-0.0031092631611156084,-0.0036172654617957654,-0.0031335613707880066,-0.0030332588889064637,-0.0028448124132974474,-0.003143522608763195,-0.0031056007071023177,-0.0027280787580890586,-0.0031236444061456003,-0.0032242321415825006,-0.003348760746278815,-0.003034805471687363,-0.003070097092553576,-0.0028973800814824837,-0.0031644642088525512,-0.003156252391820968,-0.0028244930166833704,-0.0030163441684421598,-0.0030743914765804328,-0.0035037293487933776,-0.0036541011721235267,-0.00342660674303518,-0.0028824382233029423,-0.002984319176564854,-0.0032965661172440243,-0.0031655826781662615,-0.0036614748438831674,-0.003747239036883148,-0.003697618950598369,-0.003958084133433572,-0.0030060010714375194,-0.002923698373350775,-0.003150609749333449,-0.003246000190900762,-0.0033810165264928998,-0.0037631804378211136,-0.002950945614359207,-0.003030820834606401,-0.003230282129058093,-0.0031650028115042207,-0.003237339165144073,-0.0031555180834651176,-0.023768132108424156,-0.003858132333498202,-0.0036305333559850917,-0.00341572682661996,-0.0033671539159395637,-0.003051929200846314,-0.0030665776998177185,-0.0028379444535273643,-0.0035092566881809208,-0.003362963399317032,-0.0037304216826926535,-0.0037558360195463986,-0.003600451610951365,-0.0031970518035719354,-0.0037502639991284373,-0.003144890792847825,-0.0029713503638757305,-0.0032566041619721585,-0.003044014569141198,-0.013892251395987267,-0.003998987483063642,-0.0038951157253215374,-0.0037119518466618984,-0.003487559045356501,-0.0029702198284851117,-0.003170840849399092,-0.0034259019677502626,-0.0030064027987653876,-0.00319065216819044,-0.003338465392369843,-0.0038543987647698865,-0.004730055123401819,-0.0034672531495549843,-0.0033456949126068536,-0.003197524645619708,-0.0031530519764482972,-0.003201964233644993,-0.00326871493120303,-0.003361574605398201,-0.004022073207324617,-0.0037891315543896174,-0.0034105981047550917,-0.0031905228681869107,-0.0033723343374934484,-0.0030613415706163623,-0.003429607443394741,-0.003794198896963624,-0.003728184007990354,-0.003638353357544559,-0.0030318770151322506,-0.003432557674820797,-0.003554951448861809,-0.0035219493175023668,-0.0036199593854408093,-0.0032237592186996514,-0.0031325012378635364,-0.00338223118302626,-0.002968153385761,-0.0028898316279306452,-0.0032923130471138136,-0.014643209417806396,-0.003993017228658289,-0.0037094006717694494,-0.00363983347110803,-0.0034064055661102806,-0.0029408391073266846,-0.0029158615290708896,-0.003018971012382976,-0.0031087382187043678,-0.003526449376343448,-0.003944107490031993,-0.003798571918649409,-0.0031882137821124586,-0.0035445048361082347,-0.0032522255052468353,-0.003458647816490827,-0.003308400739238794,-0.0038405264712653713,-0.003937380136099834,-0.003694134818563268,-0.0030901545238375392,-0.003052911307668567,-0.0032336719296641864,-0.0030562470797925335,-0.00304648043411835,-0.0034799491622089975,-0.0029448614221794446,-0.003021093172464694,-0.0028712712702774713,-0.002876851967621624,-0.0030731534782402693,-0.003272869274010592,-0.003438119369645612,-0.0036989117263733742,-0.003173300080791546,-0.0028341450695708367,-0.0029424574295021664,-0.002932338201246392,-0.0032240930879964057,-0.0031801623091158087,-0.0033838474538150456,-0.003651121647260232,-0.0036661739498889353,-0.0031384544118407565,-0.0037834974067521955,-0.003272433192722095,-0.0029043524123951122,-0.003094525011739788,-0.002924704499341329,-0.0033253925023396147,-0.0029570117696328083,-0.003525032154235414,-0.0033623559820781376,-0.00323652424310379,-0.003469464885321964,-0.0033564833345305265,-0.0035501543324494116,-0.0030466218547875526,-0.0032407007454709003,-0.003658131073499291,-0.0031727795900386127,-0.0029309981487086146,-0.0029469816061286035,-0.0029627352163493353,-0.0028176332715979377,-0.003245002563543339,-0.0037373596041993455,-0.0030076544267955163,-0.0033327097577454078,-0.0030745369363608765,-0.0030953701945548515,-0.002825682690528336,-0.002880607689124834,-0.0026175322797579023,-0.0024126523735888456,-0.0030785572131112222,-0.002952745469890664,-0.003171723991253844,-0.003171172168405689,-0.0031444072008328786,-0.003680470649424335,-0.0029988529535980102,-0.003104453551868911,-0.00272198449072837,-0.0029019560134190985,-0.0028512084116033985,-0.003145297423222497,-0.0031787951839748244,-0.003187384183670019,-0.003203216817105552,-0.003216903204772971,-0.0032035040604811334,-0.003164518971694911,-0.0031515616944298754,-0.0030019455202537205,-0.003411289407357519,-0.002926539686453393,-0.0029328232534283944,-0.0030165079343520604,-0.0032548145283272365,-0.003289936070489615,-0.003728327069151199,-0.0038495077130736716,-0.0031339570264596675,-0.003266648199511856,-0.0035089833899338784,-0.0030229557757605594,-0.0028244984449993906,-0.003174915992256299,-0.003292659440981068,-0.00359550362129334,-0.003529026811855882,-0.003590597499515217,-0.0036033450512331874,-0.0034163622652754674,-0.002856262476813034,-0.0033642680288440245,-0.003131935528687599,-0.0029463076987601565,-0.0031373502810675947,-0.0031488802961375053,-0.00323239825370488,-0.0030917035273614973,-0.0031528953844085876,-0.0030232062037821128,-0.0030846043116607483,-0.003163313157505791,-0.003211649731869252,-0.0038848727847328904,-0.0031865617224000353,-0.0035098244579960616,-0.003152024706989553,-0.003048736390531807,-0.002830499288203093,-0.0033395188262876066,-0.003235804629480674,-0.003326781400613561,-0.003545545516337316,-0.0036865923555297465,-0.0034558084180351142,-0.013796850058217501,-0.0033889937232032224,-0.003399415436293606,-0.0030997738152284053,-0.01433636505204579,-0.003988558681328288,-0.003643776073773111,-0.003990994400972214,-0.0030151344529664808,-0.0030500774026748214,-0.0030633171086339806,-0.0033305394571434936,-0.003028585329475555,-0.002963652575582112,-0.003820556027847645,-0.0038321229391158162,-0.0038986471564595553,-0.0030980324405565918,-0.0031660050001947513,-0.0029369817624749317,-0.003243262351871832,-0.003346880240621269,-0.0033580641147375255,-0.0031090165593229235,-0.003013819529211356,-0.003084585836163255,-0.0031618981129047413,-0.0029869034810983924,-0.0030823829637936172,-0.003124344995203524,-0.0038175756066398136,-0.0038604564636821157,-0.003575062991658676,-0.0030692589461694215,-0.0032524630629487206,-0.0030290689243179375,-0.0030482232991644854,-0.0031067116982492274,-0.003254457238947691,-0.0031987170480128027,-0.0036564235423462528,-0.0033801903091491906,-0.0031504713571635853,-0.0030129170671349954,-0.002977940616634736,-0.0031070058147742267,-0.0030744066380448652,-0.0037861095139959436,-0.003527665444222801,-0.003879735666343977,-0.003636335627146827,-0.0030270920559615894,-0.0030529445380876085,-0.0028174888066186325,-0.003160353869176022,-0.003699611181321337,-0.003789640706536624,-0.0037806473774654095,-0.004088185516735515,-0.0031270427437962434,-0.003167829495084615,-0.0030992413175178935,-0.0035822099187968245,-0.015472518037336815,-0.0037236681943967637,-0.0034702575156452136,-0.0038530892335631828,-0.003064897379437103,-0.0029115598001170184,-0.0031356876554278256,-0.0035318587971627543,-0.003110352276933582,-0.0030434531129989815,-0.003384327891740929,-0.003522250967361597,-0.0037420717541313967,-0.003936094626846179,-0.0032366605510501917,-0.0032714047678607354,-0.003251585057310713,-0.00310914568326957,-0.0031637856102101807,-0.003481667123339347,-0.003376866051150046,-0.003916713223790674,-0.003916296860117172,-0.003269082188027135,-0.003730779696544786,-0.0032212531879703145,-0.002953373605519508,-0.003163855547073763,-0.0037013662976925718,-0.003375111099101551,-0.003985575958680585,-0.0039107711737102905,-0.003810519091945637,-0.0033153208268413338,-0.0032703555106059013,-0.002797711249276612,-0.002918321199171513,-0.0031142178398315006
3,-13164169.376181435,-13164169.376181437,-13164169.376181437,-13164169.376181437,-13164169.376181439,-13164169.376181439,-13164169.376181439,-13164169.376181439,-13164169.37618144,-13164169.37618144,-13164169.37618144,-13164169.376181442,-13164169.376181442,-13164169.376181442,-13164169.376181442,-13164169.376181444,-13164169.376181444,-13164169.376181444,-13164169.376181446,-13164169.376181446,-13164169.376181446,-13164169.376181448,-13164169.376181448,-13164169.376181448,-13164169.376181448,-13164169.37618145,-13164169.37618145,-13164169.37618145,-13164169.376181452,-13164169.376181452,-13164169.376181452,-13164169.376181452,-13164169.376181453,-13164169.376181453,-13164169.376181453,-13164169.376181455,-13164169.376181455,-13164169.376181455,-13164169.376181457,-13164169.376181457,-13164169.376181457,-13164169.376181457,-13164169.376181459,-13164169.376181459,-13164169.376181459,-13164169.37618146,-13164169.37618146,-13164169.37618146,-13164169.376181463,-13164169.376181463,-13164169.376181463,-13164169.376181463,-13164169.376181465,-13164169.376181465,-13164169.376181465,-13164169.376181467,-13164169.376181467,-13164169.376181467,-13164169.376181467,-13164169.376181468,-13164169.376181468,-13164169.376181468,-13164169.37618147,-13164169.37618147,-13164169.37618147,-13164169.376181472,-13164169.376181472,-13164169.376181472,-13164169.376181472,-13164169.376181474,-13164169.376181474,-13164169.376181474,-13164169.376181476,-13164169.376181476,-13164169.376181476,-13164169.376181476,-13164169.376181478,-13164169.376181478,-13164169.376181478,-13164169.37618148,-13164169.37618148,-13164169.37618148,-13164169.37618148,-13164169.376181481,-13164169.376181481,-13164169.376181481,-13164169.376181483,-13164169.376181483,-13164169.376181483,-13164169.376181485,-13164169.376181485,-13164169.376181485,-13164169.376181485,-13164169.376181487,-13164169.376181487,-13164169.376181487,-13164169.376181489,-13164169.376181489,-13164169.376181489,-13164169.376181489,-13164169.37618149,-13164169.37618149,-13164169.37618149,-13164169.376181493,-13164169.376181493,-13164169.376181493,-13164169.376181494,-13164169.376181494,-13164169.376181494,-13164169.376181494,-13164169.376181496,-13164169.376181496,-13164169.376181496,-13164169.376181498,-13164169.376181498,-13164169.376181498,-13164169.376181498,-13164169.3761815,-13164169.3761815,-13164169.3761815,-13164169.376181502,-13164169.376181502,-13164169.376181502,-13164169.376181502,-13164169.376181504,-13164169.376181504,-13164169.376181504,-13164169.376181506,-13164169.376181506,-13164169.376181506,-13164169.376181507,-13164169.376181507,-13164169.376181507,-13164169.376181507,-13164169.37618151,-13164169.37618151,-13164169.37618151,-13164169.376181511,-13164169.376181511,-13164169.376181511,-13164169.376181511,-13164169.376181513,-13164169.376181513,-13164169.376181513,-13164169.376181515,-13164169.376181515,-13164169.376181515,-13164169.376181515,-13164169.376181517,-13164169.376181517,-13164169.376181517,-13164169.376181519,-13164169.376181519,-13164169.376181519,-13164169.376181519,-13164169.37618152,-13164169.37618152,-13164169.37618152,-13164169.376181522,-13164169.376181522,-13164169.376181522,-13164169.376181524,-13164169.376181524,-13164169.376181524,-13164169.376181524,-13164169.376181526,-13164169.376181526,-13164169.376181526,-13164169.376181528,-13164169.376181528,-13164169.376181528,-13164169.376181528,-13164169.37618153,-13164169.37618153,-13164169.37618153,-13164169.376181532,-13164169.376181532,-13164169.376181532,-13164169.376181532,-13164169.376181534,-13164169.376181534,-13164169.376181534,-13164169.376181535,-13164169.376181535,-13164169.376181535,-13164169.376181535,-13164169.376181537,-13164169.376181537,-13164169.376181537,-13164169.37618154,-13164169.37618154,-13164169.37618154,-13164169.37618154,-13164169.376181541,-13164169.376181541,-13164169.376181541,-13164169.376181543,-13164169.376181543,-13164169.376181543,-13164169.376181545,-13164169.376181545,-13164169.376181545,-13164169.376181545,-13164169.376181547,-13164169.376181547,-13164169.376181547,-13164169.376181548,-13164169.376181548,-13164169.376181548,-13164169.376181548,-13164169.37618155,-13164169.37618155,-13164169.37618155,-13164169.376181552,-13164169.376181552,-13164169.376181552,-13164169.376181552,-13164169.376181554,-13164169.376181554,-13164169.376181554,-13164169.376181556,-13164169.376181556,-13164169.376181556,-13164169.376181556,-13164169.376181558,-13164169.376181558,-13164169.376181558,-13164169.37618156,-13164169.37618156,-13164169.37618156,-13164169.37618156,-13164169.376181561,-13164169.376181561,-13164169.376181561,-13164169.376181563,-13164169.376181563,-13164169.376181563,-13164169.376181563,-13164169.376181565,-13164169.376181565,-13164169.376181565,-13164169.376181567,-13164169.376181567,-13164169.376181567,-13164169.376181567,-13164169.376181569,-13164169.376181569,-13164169.376181569,-13164169.37618157,-13164169.37618157,-13164169.37618157,-13164169.37618157,-13164169.376181573,-13164169.376181573,-13164169.376181573,-13164169.376181575,-13164169.376181575,-13164169.376181575,-13164169.376181575,-13164169.376181576,-13164169.376181576,-13164169.376181576,-13164169.376181578,-13164169.376181578,-13164169.376181578,-13164169.376181578,-13164169.37618158,-13164169.37618158,-13164169.37618158,-13164169.376181582,-13164169.376181582,-13164169.376181582,-13164169.376181584,-13164169.376181584,-13164169.376181584,-13164169.376181584,-13164169.376181586,-13164169.376181586,-13164169.376181586,-13164169.376181588,-13164169.376181588,-13164169.376181588,-13164169.376181588,-13164169.37618159,-13164169.37618159,-13164169.37618159,-13164169.376181591,-13164169.376181591,-13164169.376181591,-13164169.376181591,-13164169.376181593,-13164169.376181593,-13164169.376181593,-13164169.376181595,-13164169.376181595,-13164169.376181595,-13164169.376181595,-13164169.376181597,-13164169.376181597,-13164169.376181597,-13164169.376181597,-13164169.376181599,-13164169.376181599,-13164169.376181599,-13164169.3761816,-13164169.3761816,-13164169.3761816,-13164169.3761816,-13164169.376181602,-13164169.376181602,-13164169.376181602,-13164169.376181604,-13164169.376181604,-13164169.376181604,-13164169.376181604,-13164169.376181606,-13164169.376181606,-13164169.376181606,-13164169.376181608,-13164169.376181608,-13164169.376181608,-13164169.376181608,-13164169.37618161,-13164169.37618161,-13164169.37618161,-13164169.376181612,-13164169.376181612,-13164169.376181612,-13164169.376181612,-13164169.376181614,-13164169.376181614,-13164169.376181614,-13164169.376181616,-13164169.376181616,-13164169.376181616,-13164169.376181616,-13164169.376181617,-13164169.376181617,-13164169.376181617,-13164169.37618162,-13164169.376164649,-13164169.376181617,-13164169.376181617,-13164169.37618162,-13164169.37618162,-13164169.37618162,-13164169.376181621,-13164169.376181621,-13164169.376181621,-13164169.376181621,-13164169.376181623,-13164169.376181623,-13164169.376181623,-13164169.376181625,-13164169.376181625,-13164169.376181625,-13164169.376181625,-13164169.376181627,-13164169.376181627,-13164169.376181627,-13164169.376181629,-13164169.376181629,-13164169.376181629,-13164169.376181629,-13164169.37618163,-13164169.37618163,-13164169.37618163,-13164169.376181632,-13164169.376181632,-13164169.376181632,-13164169.376181632,-13164169.376181634,-13164169.376181634,-13164169.376181634,-13164169.376181634,-13164169.376181636,-13164169.376181636,-13164169.376181636,-13164169.376181638,-13164169.376181638,-13164169.376181638,-13164169.376181638,-13164169.37618164,-13164169.37618164,-13164169.37618164,-13164169.376181642,-13164169.376181642,-13164169.376181642,-13164169.376181642,-13164169.376181643,-13164169.376181643,-13164169.376181643,-13164169.376181645,-13164169.376181645,-13164169.376181645,-13164169.376181645,-13164169.376181647,-13164169.376181647,-13164169.376181647,-13164169.376181649,-13164169.376181649,-13164169.376181649,-13164169.376181649,-13164169.37618165,-13164169.37618165,-13164169.37618165,-13164169.376181653,-13164169.376181653,-13164169.376181653,-13164169.376181653,-13164169.376181655,-13164169.376181655,-13164169.376181655,-13164169.376181655,-13164169.376181656,-13164169.376181656,-13164169.376181656,-13164169.376181658,-13164169.376181658,-13164169.376181658,-13164169.376181658,-13164169.37618166,-13164169.37618166,-13164169.37618166,-13164169.376181662,-13164169.376181662,-13164169.376181662,-13164169.376181662,-13164169.376181664,-13164169.376181664,-13164169.376181664,-13164169.376181666,-13164169.376181666,-13164169.376181666,-13164169.376181666,-13164169.376181668,-13164169.376181668,-13164169.376181668,-13164169.37618167,-13164169.37618167,-13164169.37618167,-13164169.37618167,-13164169.376181671,-13164169.376181671,-13164169.376181671,-13164169.376181671,-13164169.376181673,-13164169.376181673,-13164169.376181673,-13164169.376181675,-13164169.376181675,-13164169.376181675,-13164169.376181675,-13164169.376181677,-13164169.376181677,-13164169.376181677,-13164169.376181679,-13164169.376181679,-13164169.376181679,-13164169.376181679,-13164169.37618168,-13164169.37618168,-13164169.37618168,-13164169.376181683,-13164169.376181683,-13164169.376181683,-13164169.376181683,-13164169.376181684,-13164169.376181684,-13164169.376181684,-13164169.376181684,-13164169.376181686,-13164169.376181686,-13164169.376181686,-13164169.376181688,-13164169.376181688,-13164169.376181688,-13164169.376181688,-13164169.37618169,-13164169.37618169,-13164169.37618169,-13164169.376181692,-13164169.376181692,-13164169.376181692,-13164169.376181692,-13164169.376181694,-13164169.376181694,-13164169.376181694,-13164169.376181694,-13164169.376181696,-13164169.376181696,-13164169.376181696,-13164169.376181697,-13164169.376181697,-13164169.376181697,-13164169.376181697,-13164169.3761817,-13164169.3761817,-13164169.3761817,-13164169.376181701,-13164169.376181701,-13164169.376181701,-13164169.376181701,-13164169.376181703,-13164169.376181703,-13164169.376181703,-13164169.376181703,-13164169.376181705,-13164169.376181705,-13164169.376181705,-13164169.376181707,-13164169.376181707,-13164169.376181707,-13164169.376181707,-13164169.376181709,-13164169.376181709,-13164169.376181709,-13164169.37618171,-13164169.37618171,-13164169.37618171,-13164169.37618171,-13164169.376181712,-13164169.376181712,-13164169.376181712,-13164169.376181712,-13164169.376181714,-13164169.376181714,-13164169.376181714,-13164169.376181716,-13164169.376181716,-13164169.376181716,-13164169.376181716,-13164169.376181718,-13164169.376181718,-13164169.376181718,-13164169.37618172,-13164169.37618172,-13164169.37618172,-13164169.37618172,-13164169.376181722,-13164169.376181722,-13164169.376181722,-13164169.376181722,-13164169.376181724,-13164169.376181724,-13164169.376181724,-13164169.376181725,-13164169.376181725,-13164169.376181725,-13164169.376181725,-13164169.376181727,-13164169.376181727,-13164169.376181727,-13164169.37618173,-13164169.37618173,-13164169.37618173,-13164169.37618173,-13164169.376181731,-13164169.376181731,-13164169.376181731,-13164169.376181731,-13164169.376181733,-13164169.376181733,-13164169.376181733,-13164169.376181735,-13164169.376181735,-13164169.376181735,-13164169.376181735,-13164169.376181737,-13164169.376181737,-13164169.376181737,-13164169.376181738,-13164169.376181738,-13164169.376181738,-13164169.376181738,-13164169.37618174,-13164169.37618174,-13164169.37618174,-13164169.37618174,-13164169.376181742,-13164169.376181742,-13164169.376181742,-13164169.376181744,-13164169.376181744,-13164169.376181744,-13164169.376181744,-13164169.376181746,-13164169.376181746,-13164169.376181746,-13164169.376181746,-13164169.376181748,-13164169.376181748,-13164169.376181748,-13164169.37618175,-13164169.37618175,-13164169.37618175,-13164169.37618175,-13164169.376181751,-13164169.376181751,-13164169.376181751,-13164169.376181751,-13164169.376181753,-13164169.376181753,-13164169.376181753,-13164169.376181755,-13164169.376181755,-13164169.376181755,-13164169.376181755,-13164169.376181757,-13164169.376181757,-13164169.376181757,-13164169.376181759,-13164169.376181759,-13164169.376181759,-13164169.376181759,-13164169.37618176,-13164169.37618176,-13164169.37618176,-13164169.37618176,-13164169.376181763,-13164169.376181763,-13164169.376181763,-13164169.376181765,-13164169.376181765,-13164169.376181765,-13164169.376181765,-13164169.376181766,-13164169.376181766,-13164169.376181766,-13164169.376181766,-13164169.376181768,-13164169.376181768,-13164169.376181768,-13164169.37618177,-13164169.37618177,-13164169.37618177,-13164169.37618177,-13164169.376181772,-13164169.376181772,-13164169.376181772,-13164169.376181772,-13164169.376181774,-13164169.376181774,-13164169.376181774,-13164169.376181776,-13164169.376181776,-13164169.376181776,-13164169.376181776,-13164169.376181778,-13164169.376181778,-13164169.376181778,-13164169.376181778,-13164169.37618178,-13164169.37618178,-13164169.37618178,-13164169.376181781,-13164169.376181781,-13164169.376181781,-13164169.376181781,-13164169.376181783,-13164169.376181783,-13164169.376181783,-13164169.376181783,-13164169.376181785,-13164169.376181785,-13164169.376181785,-13164169.376181787,-13164169.376181787,-13164169.376181787,-13164169.376181787,-13164169.376181789,-13164169.376181789,-13164169.376181789,-13164169.376181789,-13164169.37618179,-13164169.37618179,-13164169.37618179,-13164169.376181792,-13164169.376181792,-13164169.376181792,-13164169.376181792,-13164169.376181794,-13164169.376181794,-13164169.376181794,-13164169.376181794,-13164169.376181796,-13164169.376181796,-13164169.376181796,-13164169.376181798,-13164169.376181798,-13164169.376181798,-13164169.376181798,-13164169.3761818,-13164169.3761818,-13164169.3761818,-13164169.3761818,-13164169.376181802,-13164169.376181802,-13164169.376181802,-13164169.376181804,-13164169.376181804,-13164169.376181804,-13164169.376181804,-13164169.376181806,-13164169.376181806,-13164169.376181806,-13164169.376181806,-13164169.376181807,-13164169.376181807,-13164169.376181807,-13164169.37618181,-13164169.37618181,-13164169.37618181,-13164169.37618181,-13164169.376181811,-13164169.376181811,-13164169.376181811,-13164169.376181811,-13164169.376181813,-13164169.376181813,-13164169.376181813,-13164169.376181815,-13164169.376181815,-13164169.376181815,-13164169.376181815,-13164169.376181817,-13164169.376181817,-13164169.376181817,-13164169.376181817,-13164169.376181819,-13164169.376181819,-13164169.376181819,-13164169.376181819,-13164169.37618182,-13164169.37618182,-13164169.37618182,-13164169.376181822,-13164169.376181822,-13164169.376181822,-13164169.376181822,-13164169.376181824,-13164169.376181824,-13164169.376181824,-13164169.376181824,-13164169.376181826,-13164169.376181826,-13164169.376181826,-13164169.376181828,-13164169.376181828,-13164169.376181828,-13164169.376181828,-13164169.37618183,-13164169.37618183,-13164169.37618183,-13164169.37618183,-13164169.376181832,-13164169.376181832,-13164169.376181832,-13164169.376181833,-13164169.376181833,-13164169.376181833,-13164169.376181833,-13164169.376181835,-13164169.376181835,-13164169.376181835,-13164169.376181835,-13164169.376181837,-13164169.376181837,-13164169.376181837,-13164169.376181837,-13164169.376181839,-13164169.376181839,-13164169.376181839,-13164169.37618184,-13164169.37618184,-13164169.37618184,-13164169.37618184,-13164169.376181843,-13164169.376181843,-13164169.376181843,-13164169.376181843,-13164169.376181845,-13164169.376181845,-13164169.376181845,-13164169.376181846,-13164169.376181846,-13164169.376181846,-13164169.376181846,-13164169.376181848,-13164169.376181848,-13164169.376181848,-13164169.376181848,-13164169.37618185,-13164169.37618185,-13164169.37618185,-13164169.37618185,-13164169.376181852,-13164169.376181852,-13164169.376181852,-13164169.376181854,-13164169.376181854,-13164169.376181854,-13164169.376181854,-13164169.376181856,-13164169.376181856,-13164169.376181856,-13164169.376181856,-13164169.376181858,-13164169.376181858,-13164169.376181858,-13164169.376181858,-13164169.37618186,-13164169.37618186,-13164169.37618186,-13164169.376181861,-13164169.376181861,-13164169.376181861,-13164169.376181861,-13164169.376181863,-13164169.376181863,-13164169.376181863,-13164169.376181863,-13164169.376181865,-13164169.376181865,-13164169.376181865,-13164169.376181867,-13164169.376181867,-13164169.376181867,-13164169.376181867,-13164169.376181869,-13164169.376181869,-13164169.376181869,-13164169.376181869,-13164169.37618187,-13164169.37618187,-13164169.37618187,-13164169.37618187,-13164169.376181873,-13164169.376181873,-13164169.376181873,-13164169.376181874,-13164169.376181874,-13164169.376181874,-13164169.376181874,-13164169.376181876,-13164169.376181876,-13164169.376181876,-13164169.376181876,-13164169.376181878,-13164169.376181878,-13164169.376181878,-13164169.376181878,-13164169.37618188,-13164169.37618188,-13164169.37618188,-13164169.376181882,-13164169.376181882,-13164169.376181882,-13164169.376181882,-13164169.376181884,-13164169.376181884,-13164169.376181884,-13164169.376181884,-13164169.376181886,-13164169.376181886,-13164169.376181886,-13164169.376181886,-13164169.376181887,-13164169.376181887,-13164169.376181887,-13164169.37618189,-13164169.37618189,-13164169.37618189,-13164169.37618189,-13164169.376181891,-13164169.376181891,-13164169.376181891,-13164169.376181891,-13164169.376181893,-13164169.376181893,-13164169.376181893,-13164169.376181893,-13164169.376181895,-13164169.376181895,-13164169.376181895,-13164169.376181897,-13164169.376181897,-13164169.376181897,-13164169.376181897,-13164169.376181899,-13164169.376181899,-13164169.376181899,-13164169.376181899,-13164169.3761819,-13164169.3761819,-13164169.3761819,-13164169.3761819,-13164169.376181902,-13164169.376181902,-13164169.376181902,-13164169.376181902,-13164169.376181904,-13164169.376181904,-13164169.376181904,-13164169.376181906,-13164169.376181906,-13164169.376181906,-13164169.376181906,-13164169.376181908,-13164169.376181908,-13164169.376181908,-13164169.376181908,-13164169.37618191,-13164169.37618191,-13164169.37618191,-13164169.37618191,-13164169.376181912,-13164169.376181912,-13164169.376181912,-13164169.376181914,-13164169.376181914,-13164169.376181914,-13164169.376181914,-13164169.376181915,-13164169.376181915,-13164169.376181915,-13164169.376181915,-13164169.376181917,-13164169.376181917,-13164169.376181917,-13164169.376181917,-13164169.37618192,-13164169.37618192,-13164169.37618192,-13164169.37618192,-13164169.376181921,-13164169.376181921,-13164169.376181921,-13164169.376181923,-13164169.376181923,-13164169.376181923,-13164169.376181923,-13164169.376181925,-13164169.376181925,-13164169.376181925,-13164169.376181925,-13164169.376181927,-13164169.376181927,-13164169.376181927,-13164169.376181927,-13164169.376181928,-13164169.376181928,-13164169.376181928,-13164169.376181928,-13164169.37618193,-13164169.37618193,-13164169.37618193,-13164169.376181932,-13164169.376181932,-13164169.376181932,-13164169.376181932,-13164169.376181934,-13164169.376181934,-13164169.376181934,-13164169.376181934,-13164169.376181936,-13164169.376181936,-13164169.376181936,-13164169.376181936,-13164169.376181938,-13164169.376181938,-13164169.376181938,-13164169.376181938,-13164169.37618194,-13164169.37618194,-13164169.37618194,-13164169.376181941,-13164169.376181941
