,0,1,2,3,4,5,6,7,8,9,10,11,12,13,14,15,16,17,18,19,20,21,22,23,24,25,26,27,28,29,30,31,32,33,34,35,36,37,38,39,40,41,42,43,44,45,46,47,48,49,50,51,52,53,54,55,56,57,58,59,60,61,62,63,64,65,66,67,68,69,70,71,72,73,74,75,76,77,78,79,80,81,82,83,84,85,86,87,88,89,90,91,92,93,94,95,96,97,98,99,100,101,102,103,104,105,106,107,108,109,110,111,112,113,114,115,116,117,118,119,120,121,122,123,124,125,126,127,128,129,130,131,132,133,134,135,136,137,138,139,140,141,142,143,144,145,146,147,148,149,150,151,152,153,154,155,156,157,158,159,160,161,162,163,164,165,166,167,168,169,170,171,172,173,174,175,176,177,178,179,180,181,182,183,184,185,186,187,188,189,190,191,192,193,194,195,196,197,198,199,200,201,202,203,204,205,206,207,208,209,210,211,212,213,214,215,216,217,218,219,220,221,222,223,224,225,226,227,228,229,230,231,232,233,234,235,236,237,238,239,240,241,242,243,244,245,246,247,248,249,250,251,252,253,254,255,256,257,258,259,260,261,262,263,264,265,266,267,268,269,270,271,272,273,274,275,276,277,278,279,280,281,282,283,284,285,286,287,288,289,290,291,292,293,294,295,296,297,298,299,300,301,302,303,304,305,306,307,308,309,310,311,312,313,314,315,316,317,318,319,320,321,322,323,324,325,326,327,328,329,330,331,332,333,334,335,336,337,338,339,340,341,342,343,344,345,346,347,348,349,350,351,352,353,354,355,356,357,358,359,360,361,362,363,364,365,366,367,368,369,370,371,372,373,374,375,376,377,378,379,380,381,382,383,384,385,386,387,388,389,390,391,392,393,394,395,396,397,398,399,400,401,402,403,404,405,406,407,408,409,410,411,412,413,414,415,416,417,418,419,420,421,422,423,424,425,426,427,428,429,430,431,432,433,434,435,436,437,438,439,440,441,442,443,444,445,446,447,448,449,450,451,452,453,454,455,456,457,458,459,460,461,462,463,464,465,466,467,468,469,470,471,472,473,474,475,476,477,478,479,480,481,482,483,484,485,486,487,488,489,490,491,492,493,494,495,496,497,498,499,500,501,502,503,504,505,506,507,508,509,510,511,512,513,514,515,516,517,518,519,520,521,522,523,524,525,526,527,528,529,530,531,532,533,534,535,536,537,538,539,540,541,542,543,544,545,546,547,548,549,550,551,552,553,554,555,556,557,558,559,560,561,562,563,564,565,566,567,568,569,570,571,572,573,574,575,576,577,578,579,580,581,582,583,584,585,586,587,588,589,590,591,592,593,594,595,596,597,598,599,600,601,602,603,604,605,606,607,608,609,610,611,612,613,614,615,616,617,618,619,620,621,622,623,624,625,626,627,628,629,630,631,632,633,634,635,636,637,638,639,640,641,642,643,644,645,646,647,648,649,650,651,652,653,654,655,656,657,658,659,660,661,662,663,664,665,666,667,668,669,670,671,672,673,674,675,676,677,678,679,680,681,682,683,684,685,686,687,688,689,690,691,692,693,694,695,696,697,698,699,700,701,702,703,704,705,706,707,708,709,710,711,712,713,714,715,716,717,718,719,720,721,722,723,724,725,726,727,728,729,730,731,732,733,734,735,736,737,738,739,740,741,742,743,744,745,746,747,748,749,750,751,752,753,754,755,756,757,758,759,760,761,762,763,764,765,766,767,768,769,770,771,772,773,774,775,776,777,778,779,780,781,782,783,784,785,786,787,788,789,790,791,792,793,794,795,796,797,798,799,800,801,802,803,804,805,806,807,808,809,810,811,812,813,814,815,816,817,818,819,820,821,822,823,824,825,826,827,828,829,830,831,832,833,834,835,836,837,838,839,840,841,842,843,844,845,846,847,848,849,850,851,852,853,854,855,856,857,858,859,860,861,862,863,864,865,866,867,868,869,870,871,872,873,874,875,876,877,878,879,880,881,882,883,884,885,886,887,888,889,890,891,892,893,894,895,896,897,898,899,900,901,902,903,904,905,906,907,908,909,910,911,912,913,914,915,916,917,918,919,920,921,922,923,924,925,926,927,928,929,930,931,932,933,934,935,936,937,938,939,940,941,942,943,944,945,946,947,948,949,950,951,952,953,954,955,956,957,958,959,960,961,962,963,964,965,966,967,968,969,970,971,972,973,974,975,976,977,978,979,980,981,982,983,984,985,986,987,988,989,990,991,992,993,994,995,996,997,998,999,1000,1001,1002,1003,1004,1005,1006,1007,1008,1009,1010,1011,1012,1013,1014,1015,1016,1017,1018,1019,1020,1021,1022,1023,1024,1025,1026,1027,1028,1029,1030,1031,1032,1033,1034,1035,1036,1037,1038,1039,1040,1041,1042,1043,1044,1045,1046,1047,1048,1049,1050,1051,1052,1053,1054,1055,1056,1057
0,-1015.131875995308,-3897.5099941071985,-2912.319329808978,-2476.08711155157,-3502.1130608826898,-3267.212806273778,-3390.8475649647444,-3682.2854789724056,-2827.1655413276158,-3822.553685860907,-3425.8968039024476,-3862.853019017756,-3585.5672099565813,-3868.1819426671545,-3316.1979054861595,-2922.8055581695967,-3422.420052889688,-3793.6558266660627,-3161.7779247167523,-4046.194665147056,-3426.9618840764006,-3455.3433404324082,-3642.037885468768,-3294.4251815808975,-3426.421669938436,-3506.61002840697,-3314.5759854654816,-3418.5430334947578,-3987.6762928190196,-3010.7024979588023,-3644.5599361205786,-3782.375170200053,-3269.8243934619413,-3324.5234978906533,-3496.178409106584,-3105.286107122908,-3451.082881700936,-3659.787346434547,-3511.119472575197,-3522.7932849950075,-3575.5404042349865,-3226.2104766902075,-3642.3484101345944,-3121.203903760462,-3732.950184434633,-3281.9287494744117,-3350.625858102304,-3587.799414338373,-3266.695039376436,-3578.523654223322,-3698.0897838700266,-3010.90265049034,-3485.167806775533,-2633.644077222229,-3730.6307863289944,-3436.757066569094,-2666.3920777146313,-3302.0205376294157,-2286.1703179359847,-3356.6769401189345,-3385.054052944085,-3123.9453884153645,-3543.0440317867697,-3007.282857253469,-3505.7876236952116,-3038.6355982902564,-3119.5070537047063,-3220.449736439954,-3045.8132356257574,-3659.3047575339665,-3059.235388536422,-3613.481599711115,-3306.4967379207965,-3143.200827695385,-3717.509400608466,-3423.2961655456866,-3428.2473833583927,-3590.9381095401013,-3090.013824258225,-3661.1507205954563,-2892.7353036889817,-3291.5395980420635,-3490.889846692229,-3692.0171366794957,-3319.8929674631518,-3702.4827018639658,-3646.387414627816,-2911.9757503507058,-3540.0793990404723,-3173.266527278629,-2738.1807514282773,-3181.0074791276566,-3488.2468616457168,-3233.031215186087,-3428.0734232670966,-3784.9793651811515,-2857.164431822709,-3964.1104116015144,-3404.9889114634725,-3150.4855967957124,-2953.87438272321,-3625.578510625305,-3368.061501942125,-2914.111016493907,-3558.352771867401,-3637.5839092425217,-2722.7500321287757,-3241.601947668553,-3642.2506556142557,-3256.2775194616356,-3247.8520885386797,-3370.2456806870337,-3090.9912035306843,-3029.45630199063,-3174.3238625090316,-3069.893624665319,-3865.930233614268,-3516.981220216976,-3081.94885627302,-3547.9990492418137,-3500.928248954965,-3004.123359037416,-3853.545034325979,-3155.3191831749614,-3461.459480884738,-3720.886536869827,-3385.4946140423776,-3662.5625638743295,-3549.1460659160425,-2873.9648699561826,-3806.7588660651304,-3317.785163437575,-3175.8436155811396,-3369.680119070584,-3230.5344984903236,-3112.268005761396,-3698.7267630787064,-3220.3605646501533,-3516.809603335732,-3354.052123274567,-3276.8146624662354,-3664.2677878538557,-2913.592209754269,-3555.7982498264932,-3782.6179908643667,-3243.3772921908144,-3479.2004465762534,-4037.591706229929,-3067.6725655608043,-3737.2667560787254,-3208.733616493052,-3278.6565508441713,-3521.794226479328,-3163.1726775449315,-3331.788170594121,-3708.348075505223,-3212.013897002998,-3390.2268602245367,-3344.6294259705232,-3252.904387032176,-4016.092458817562,-3040.776779397467,-3412.9948916471476,-3374.353125584491,-2883.4198521366134,-3604.8890948786348,-3643.320768577387,-3000.5883346083956,-3787.1689937931033,-3754.121498282993,-3134.2082127012973,-3540.5303861709076,-3304.550512191218,-2925.111671013665,-3369.9333663263474,-3373.5158071171404,-3022.690821537211,-3323.4631855106077,-4027.0494521403302,-3482.4666082440267,-3826.468795512595,-3475.2541429949297,-3415.7470293719825,-3692.561929971962,-3064.215624053047,-3485.9019028888424,-3841.3661616995873,-3023.304861219141,-3671.131250073623,-3585.2905960598323,-2726.698747604195,-3801.332018071021,-3169.977015602777,-3814.7069449423507,-3685.1695736079655,-3090.0883051530864,-3520.3491959885164,-3847.36627560399,-3253.506755408467,-3627.652733794714,-3593.745331414614,-3031.08272439693,-3385.447288685977,-3471.537374072079,-3103.0237379034743,-3422.4988111795446,-3567.780126142358,-3231.3799657156947,-3564.0793776440473,-3929.595702792775,-3253.86580593578,-3597.664061789045,-3685.9350583684136,-2937.760511864705,-3423.3264021641735,-3584.045360133623,-3184.4474874456077,-3589.792563490819,-3516.7187948920227,-3213.2745581397708,-3468.7308791849323,-3114.6011192704705,-3158.760955620619,-3678.287466297352,-2911.183059867395,-3198.25596549462,-3752.8282041317975,-3157.36050994272,-3471.6364906782046,-3368.984320005102,-3616.850507551929,-3692.300424804523,-3401.3002395485955,-3354.9633199845025,-3520.3289207533494,-3341.813420432048,-3816.1803031719355,-3613.881310093565,-3207.957944106805,-3640.7842298438545,-3135.869423073878,-3525.42251203362,-3706.765074477679,-3337.6702382286235,-3798.9757680436296,-3215.7856527194576,-3438.916758997234,-3680.0248859841704,-3558.9177186823495,-3942.3146046648194,-3261.01070750404,-3502.1262000208203,-3276.0227356473056,-2915.1294188792517,-3427.1020427658677,-2908.2879665775376,-3219.168692974607,-3451.666529364338,-3289.6004916424617,-3423.3059843488004,-3149.981220915568,-3421.199755977479,-3588.326857955393,-3066.791763463503,-3074.3312078579024,-3236.5850313462947,-3110.993914355023,-3276.9439289083775,-2922.0359182449142,-7357.937840593495,-3751.86019360393,-3149.7965077144386,-3524.899462601768,-3788.707608036519,-3042.2902100056995,-3374.5551825560115,-3545.533311606829,-3387.5411579764304,-3290.3721804448996,-3101.3867038865587,-3303.934991076939,-3067.9416247176705,-2906.617802130961,-3418.1363308003874,-3531.346152800087,-3265.3430853737136,-3396.537237178192,-2952.570173863699,-3376.647045141088,-3422.046702154304,-2714.2751809052584,-2793.496527600374,-3104.2290509250447,-3135.7213877444833,-3317.890379601784,-3572.991305217401,-3096.7411387834254,-3295.2092183923537,-3031.2141154821797,-3294.294402750419,-3151.6391670927833,-3300.306820499568,-3490.2469375142928,-3865.657048298536,-2837.8743344509444,-3504.1867559959273,-3446.4030401289997,-3382.7177557252735,-3708.057731649172,-3553.1660574936827,-3281.636926599872,-3523.388309691427,-3104.548954547475,-3250.750360879027,-3392.157420583909,-3008.095855005027,-3208.465414337487,-3494.511075173992,-3150.5891685498923,-3511.418142377096,-2931.756694117205,-2946.547062869665,-3177.463832587004,-3352.8868920243854,-3054.418711103435,-3027.530740739274,-3592.163894999122,-2788.113428372166,-3255.25593165992,-3221.710562722873,-3060.6126844557107,-2973.131109933072,-3508.405533328761,-3177.75626445132,-3531.9642960736473,-3369.7228287873427,-2943.7767769734132,-3847.0101399597324,-3061.6594960382367,-3910.635505492266,-3497.8361720619887,-2899.9828213752935,-3430.440553240321,-3790.034950315898,-3066.993270815944,-3456.4001658830593,-3617.094506256836,-3184.7696086919,-3331.705239236611,-2960.167703166285,-3326.6881946998396,-3496.043061289198,-3091.531746904415,-3343.826272616889,-3307.458031894882,-2985.843061499197,-2475.3366517157615,-2910.7802877065697,-3739.9121502016947,-3290.44873275979,-3607.761970773041,-3143.0539908903625,-2821.8707807879136,-2879.1540039972274,-2993.9103990312133,-3077.258808887993,-1825.6034733570045,-3024.000873801564,-3660.6687236899675,-3748.161940826449,-3236.947492807326,-3614.643997187888,-3399.100426532463,-3527.1207480467274,-3905.3254345537257,-3111.995998478256,-3256.8165498757967,-3287.3526260248927,-2773.2106306340793,-3603.529155730767,-3058.5432892396393,-3278.234127298173,-3431.179311627585,-3201.379402251963,-2986.513388653716,-3768.192706866152,-3184.6596263732176,-3365.1874679342895,-3028.5514764285213,-2785.719931706173,-3571.57128679223,-3934.7815264094606,-3570.1153993170315,-3857.079966403149,-3773.0635165929302,-2899.0317225074596,-3561.345109491825,-3562.970587697282,-3102.63452165943,-3810.734386012674,-3143.052565533642,-3528.578677721506,-3606.051666820159,-2943.7106787894136,-3335.4072714819063,-3449.3196283863635,-3153.8238410000044,-3478.7557096213554,-3212.879842146689,-3024.837905490281,-3572.2109029211274,-2940.890444176028,-3448.709241838872,-3709.1749615007184,-2879.2353402524595,-3677.9186216488483,-2807.2727829128403,-3055.520706359646,-3599.1762166205995,-2720.8117093681085,-3352.9263891809305,-3471.18306735881,-2862.6169157765225,-3598.6293852547515,-3163.779112197129,-2840.3093806405727,-3263.7683649363603,-3591.7478914145277,-2934.6714664415044,-3587.450677346672,-3276.696477794292,-3310.213955739516,-3073.9471042364935,-2750.0861190562764,-3056.3245396255766,-3110.6353471273364,-2944.914616586394,-3657.6339865966165,-3233.0503319771383,-2990.618224481011,-3826.639089397025,-2635.8353136999294,-2966.657107971945,-2575.5253872824787,-2944.3842620719447,-3559.134360495929,-3575.0007820518954,-2967.7711161025977,-3389.1588973892995,-3336.8158049712165,-3266.583301647081,-2772.9033200128797,-2521.0645408607315,-3103.134624983174,-3608.8840242894416,-2810.6476104124995,-3179.4930442415557,-3027.2234662100605,-3508.441324799595,-3267.2889803777316,-3365.993886030948,-3303.4426091151695,-3185.197186839892,-4030.0392779591525,-3755.380287121718,-3568.0546227645686,-3849.536800086764,-2533.4739514436455,-2705.636991918591,-3022.1499989733197,-3693.3306830845063,-3564.3391140681233,-3124.698198122896,-3263.729892734843,-3437.8456999958626,-2905.87085734041,-3196.813484418523,-2640.7665809302707,-3137.980905039388,-2823.404077210525,-3104.3718928274557,-3177.9936621335505,-2853.2184482386906,-3215.450488422677,-3848.3703570798407,-3340.8259484449204,-3751.288213690092,-3621.9066657687003,-3399.894335477181,-3332.432291642884,-4144.117295531776,-2914.3266468511315,-3780.7084216973926,-3041.1715804566975,-2958.256953064662,-3647.740342371375,-3730.167244307608,-3254.7443335412113,-3377.3692301319848,-3861.475532126733,-2879.2424243267583,-3767.468398677287,-3353.912731228227,-3232.8814636883167,-3323.000226927023,-3615.6669470706015,-3436.321379495637,-3515.2073692595345,-3675.125046703787,-3227.481325316271,-3542.2925578968625,-3407.965872500766,-3320.1066938663894,-2767.930107788739,-3413.247424570642,-3475.280414393743,-3158.6324162035903,-3446.3459435677837,-3444.542061381894,-3090.338869460965,-3734.789824191868,-3402.76123081716,-3181.663801056103,-3452.7945560542685,-3637.5134979284917,-3087.5743104137473,-3275.671747882522,-3201.120442259796,-3201.3056151513515,-3009.034567840412,-3092.8123117184073,-3145.7996651283756,-3131.7614737415347,-3298.5604494019944,-3198.132655334506,-3455.7837381661716,-3017.0189372681184,-3687.405309023627,-3317.487577576214,-3066.8406423065826,-3178.5717476928853,-3345.494068386687,-3131.2390818316976,-3737.412981232504,-2873.684585625125,-3064.448730185299,-3219.91761880949,-3236.5476433075974,-2878.3426516223226,-3105.486428461682,-3485.545150742009,-3017.429913697246,-3223.9865451271667,-3259.9873293963046,-3051.776324916587,-3453.9690991872026,-3495.054472663217,-3054.181290911898,-3666.557173634528,-3565.0355323726217,-2883.5489037286993,-3354.674148695303,-3203.0195493748793,-2978.6040644894697,-4036.929067820851,-3277.5584492867742,-3011.291228827528,-2044.7741942151886,-3247.1512631860046,-3024.7431328705366,-3065.9119324343346,-3081.245803109418,-3193.00951609966,-3321.463454948257,-3015.830725321699,-3071.6112183092155,-3339.2085127942933,-3075.579730870681,-3125.6525211055505,-3224.0109193892904,-2507.370917344524,-3194.0783680571526,-3165.983559006551,-3189.717412421223,-2897.9408885787802,-3139.4510770186025,-3637.8125242409283,-3324.7778115739175,-2277.1793285587623,-3696.0520578486708,-3015.820910463987,-3337.055488064642,-3576.231513498221,-3325.3516650252664,-2932.4475874345626,-3495.8179317275944,-3017.420409508169,-3093.7858132237443,-3526.358105137496,-2847.6179671890986,-2992.647778313504,-3211.8522584548477,-2503.9153310251418,-3162.4241835043617,-3569.1480719269266,-2668.0917032920906,-4169.913842364302,-3105.0635276431576,-2843.2341407464723,-3191.5699911836114,-3326.837687487017,-2291.96085418505,-3299.883349367853,-3735.4838557881526,-3022.334699807649,-3317.7516787961067,-3515.775413716143,-2331.350044447576,-3038.6156466668017,-1978.5473786689292,-3072.184924312959,-3302.9751916810665,-3599.414191370693,-3406.6751421269,-2943.447288936396,-3776.526983888862,-2643.823856047309,-2962.2212005546426,-3808.989316214443,-3016.189293485048,-3308.9759903994386,-2525.6778755439905,-2825.35920583923,-2949.9065399889473,-3251.7222660482776,-2769.3442054007455,-3023.813279247586,-2375.13616626949,-3261.7855876957997,-3156.369616202358,-3324.770659287756,-3560.519970774237,-3527.371288869332,-3119.7604288789034,-2949.964502622331,-3121.5114164863917,-3705.707884278271,-2924.0304841359634,-3258.8555262355035,-2896.175017388984,-3040.634420746288,-2899.8919242850698,-2879.9894495372228,-3049.863560344285,-3375.020077029593,-3340.3517918500233,-2776.3912389879815,-3258.511915292433,-2946.594153079582,-2980.7876031571304,-3135.5610281550653,-3104.2262282934294,-2805.5699545809225,-2919.510565404692,-3407.921251080915,-3385.0319712447713,-3558.234933948189,-3693.5975013253164,-4153.531106675322,-3429.355677264671,-3589.2581083947653,-3496.2373185758925,-3389.0437232920917,-3778.761318832865,-3637.2335349643977,-2966.5022714073166,-3527.7807894346056,-2758.632473444718,-2923.6422054105815,-3068.3395983899786,-3187.8419995848876,-3023.650135082944,-3218.548029106252,-3432.5309465711052,-3192.9396143664344,-3049.465400106905,-3488.105746638659,-3330.12690916066,-2934.0775020434758,-3353.8632950193723,-2889.383900711177,-2879.284607847889,-3293.1203002396364,-3230.27667086706,-3286.837754482222,-3559.152289486223,-3207.1702337158026,-3031.2341876418564,-3636.101848953199,-2974.080728348869,-3056.204202569657,-3400.21943985901,-3106.879363095629,-3438.9046076795744,-3242.1932288646685,-3553.438940671997,-3243.1888588365964,-3588.3640311025906,-3793.3386144126857,-2857.4896321451793,-3046.7622674254008,-3819.588285071611,-3147.568722256181,-2949.143490597215,-4450.01499812944,-3166.888439407735,-3329.902163673879,-3912.159875887822,-3478.5431693844444,-3262.0339279774626,-4066.780538521662,-2760.738707353989,-3417.9287521496585,-3452.7525631742046,-2515.950956848271,-3685.4643528578426,-3762.1038422627544,-3504.323156166487,-4105.5110150504925,-3414.588037603364,-2918.125400874384,-3321.1633669691464,-2858.85598178905,-3497.116707710386,-3588.902652722121,-3038.7159372090096,-3719.642194615043,-3363.9540125427816,-2998.551440012324,-3567.275540700016,-3952.477971877099,-2873.4665331858564,-3602.444189021618,-3371.007439726689,-3127.773569765428,-3688.406937667084,-3645.8742382470505,-3068.680645467821,-3339.99473814207,-3332.6443676649055,-2923.176396523641,-3539.7967166638864,-3347.9498411736276,-3216.249075146507,-3254.680675029459,-3377.5569163230307,-2971.8789140681847,-3684.337767923214,-3327.8104993600614,-2982.7736591643484,-3408.0497599481455,-3983.429029487336,-2895.6578191170242,-3584.442748524611,-3023.5439852821387,-3434.265224595917,-3094.343307223774,-3280.5172588947567,-2958.9364089461824,-3149.153021686785,-3783.0842821183433,-2727.369387126539,-3450.049898934387,-3692.968695965253,-2892.1371924312703,-3379.619593412568,-3345.479055571741,-3465.0625412618956,-3331.7156017522184,-3524.8590077902577,-3855.949718994823,-2952.9117246237697,-3319.7838360385344,-3844.0637681150843,-3147.3479510489738,-3391.0378499853905,-3249.2914769246986,-3314.5219577592275,-3450.3913271858623,-3544.2980437058245,-2821.37384345177,-3539.737478906209,-2428.136908867384,-3172.818518393041,-3528.2996776910163,-2411.641166638372,-2816.1408785553294,-3642.440852843141,-3400.2332878228603,-3057.7494268245437,-3120.8808744957505,-3395.671961720108,-2995.5382586302876,-3518.8466593180992,-3195.9901160215168,-2598.1565963847447,-3509.5539370114025,-3461.0132522605454,-2863.023286875707,-3213.918230279357,-3264.264986875973,-2553.704372361139,-3162.671700608319,-3185.6831245113463,-3406.2642250222434,-3140.936739884834,-3342.8466927417626,-2797.6735371677205,-2864.899540044572,-3185.766682155866,-2740.554897865915,-3130.303714318522,-2866.2517017982336,-3217.6729442453266,-3412.0071177208856,-2975.9254186841727,-2887.7686311905336,-3088.1563596815786,-3066.435821566707,-3558.3945203675717,-2895.8794960554874,-3359.8716613053266,-2786.430256730935,-3228.9443514964078,-2387.0888576089333,-2673.1538620211663,-3170.576422835235,-3277.7515923334445,-2928.567184225558,-2817.5259384721335,-2464.697363614592,-3178.1400304371336,-3378.783621322529,-3988.8688886276354,-2810.4243976494954,-3426.3452916022766,-2987.331771848637,-2009.5556016659632,-3525.0180427806526,-3512.2986347973224,-2699.5808780796715,-3041.3718879736766,-2958.632545793029,-2731.2964751594604,-3333.3201094699966,-2710.3633149129378,-3236.4950806225734,-3818.8000425587966,-2314.548971618054,-2678.3414266086756,-3392.604364902785,-2732.408218512546,-3122.69959278291,-3176.3987345125424,-3350.110478664937,-3305.0937295692174,-3440.3516702881443,-3048.4753692556915,-3218.1772900220844,-3497.002524920658,-3145.1048213693266,-3944.909391670272,-3217.652782704599,-2678.1528878447075,-3008.9968405977884,-3576.57115207146,-2087.5452300532424,-3651.7681969191613,-3091.7588967234315,-2076.2235244368685,-3143.6451765231436,-2711.784647881926,-3456.0585000980814,-2919.875448499314,-3237.4479447042504,-2648.625164398882,-3587.081359364484,-3199.1000463794703,-3097.998447697642,-2743.533683453301,-2447.5867274744787,-2746.9882964222347,-2847.6290570629485,-3224.777206916006,-2914.791502193198,-2922.914903621855,-2727.371164724188,-3145.1515747475846,-2865.8970093391335,-2941.591613275196,-2903.9778866805163,-3097.078474592502,-3207.934707334168,-2867.7604555939597,-3114.903831649646,-2969.6733503000205,-2495.5759087278025,-2916.0036112286325,-3098.7119194617276,-2538.1378174088254,-3007.844986360527,-3464.8817934016906,-3280.5379288711943,-2842.6663271499083,-3728.7596385593715,-3293.01915571933,-2943.4219361446035,-3179.1026676607316,-2772.15056418306,-2756.329148290568,-3351.3002333842205,-3224.32679390058,-3482.6772959909126,-3133.949013812255,-2844.4696771329595,-3393.6678136651794,-3449.8957518084503,-2823.8519197483542,-3641.7086068604744,-3243.196094292413,-3212.954951522593,-3646.3132496593644,-3156.014265396976,-3314.488824226551,-3291.979841897393,-3320.3766665300477,-2871.7980929827595,-3401.8866999992247,-3145.4571534435463,-3384.7312067456724,-2630.6345986647943,-3490.843804179676,-2885.5072419013395,-2114.5743021458293,-3397.0581668278533,-3331.6506300253645,-2669.158693751854,-2695.339648256093,-3189.286339570711,-3177.981395909587,-2850.6583488270444,-3480.019009632841,-2446.8667461043674,-3082.390443115798,-3864.5383743774564,-3140.348222652057,-3069.8279315894265,-3193.5664423616063,-2658.050929842738,-2769.608083322646,-3290.5702883255462,-3022.2400987918827,-3278.7989465877085,-3236.750902389941,-3150.1189289647864,-3179.345979019643,-3804.4101483934287,-3298.9236631683825,-3030.386481273728,-3142.4334467728595,-3282.349671673282,-3546.26901004596,-1861.2075606718242,-3561.1298860141287,-2228.715670683977,-3537.532901777313,-4021.049000424742,-3358.500888552613,-2924.8227688461316,-3071.9484760051027,-2923.8835356107784,-2566.26031919595,-3610.698526211603,-3250.8504469011855,-2778.217659545918,-3337.333252454814,-2908.0133408683223,-3366.44236406889,-3187.669992802269,-3099.911492985699,-2767.9318893659206,-2953.9414945502986,-3540.7555028863744,-2928.9301609403606,-3414.590066994277,-3143.1631879070774,-3288.9564700886253,-3926.472889495623,-2880.655783576841,-2711.2173870367824,-3190.1882851755086,-3020.7081448601584,-3049.2550756250284,-3020.9141187532623,-3287.7571068983184,-3076.0764735930547,-2800.568181488319,-3412.0160564458706,-3063.7296493999115,-3070.2170432037683,-3087.83006674713,-3011.0641133738523,-2778.2710547938245,-3528.969648911985,-3308.495832882412,-2784.57454708545,-3458.1429706667896,-2799.3687771729574,-2806.504622388124,-3432.152065666302,-2750.613046053788,-3861.2831399489264,-3215.0368859158925,-2851.800562794425,-3124.102613731824,-3114.857669504665,-2692.709285970353,-3113.322151739672,-3276.3687788366124,-2898.059095270984,-3078.560962892252,-3307.2587793915986,-2672.458686677562,-3004.0982819861956,-3309.003377465893,-3289.4580747082114,-3575.1560911769984,-3526.2684667912445,-2850.1020539724195,-3083.0507621492475,-2643.8117514639753,-2730.081133345284,-3050.0652723929784,-2445.03940766656,-3131.333989658753,-2768.1727072495933,-3477.8672671671798,-2817.090927443858,-3406.875767439591,-3466.7018031220055,-3441.8494330372696,-2825.70076248301,-3282.5816507786085,-3079.1265187505355,-3778.5676171295067,-2651.647273405919,-2951.2972855955145,-3181.9959469021205
1,37.66100183825834,314.3098009432762,314.73231909652037,314.87342162857647,314.7710034193946,314.50329808641953,314.472171430744,314.9760532680888,315.2472339669865,314.4469587733167,315.5578212800193,315.412298220239,314.9085262536834,314.65985316853914,313.96235964579625,315.08226477815685,314.8372390033564,314.60397340309265,314.3576800853786,314.02561888867257,315.73440656966983,315.163359984082,314.551701641409,314.89233722524585,315.2801923094047,314.2025229072993,315.2691843936296,315.38683293391483,314.723206412461,314.64324860256346,314.68238252987544,315.0084635060265,315.6198631897528,314.7888477116341,314.7579727335922,315.4423745198218,314.908397395215,314.8620813951331,315.6827114514315,314.5838935278431,315.062418583131,315.0393078476777,315.24309315161855,315.01077215404786,315.2125967903907,315.24193631252706,315.2923541424428,314.16398188418077,314.95284646044354,314.7181104930729,315.2244715753449,314.9781930351156,314.87748529175616,315.4998560639197,314.66124666733697,314.7988555250111,315.0849464588833,313.98618315931924,314.2127336624149,314.6582119627795,315.11417871913557,315.1944341898324,314.36675383200696,315.32533979976523,314.98775421131256,315.1733097634421,315.0056941704004,314.5001465671362,314.6793221759022,314.36728060514474,314.98913328292025,314.9162998815704,314.9692272029618,315.28714609429767,315.3225099134642,315.4989845152952,315.3086199679781,316.3865242288619,315.03179941488247,315.235246759652,314.2204600455789,315.6237435700031,315.510049177532,315.06807861981656,315.5124916214055,314.61237817263134,314.11830111421045,314.89672115044567,314.73044459896664,314.55761987680035,315.35191323155857,314.9176740725888,315.18826287703627,314.7113485789717,314.44201813299253,314.60739428891355,314.3873460586364,314.78172263233853,315.37874396832126,314.762671760993,315.15325065270423,314.3125378295854,314.63284007534605,314.8390570901727,318.25511057602654,315.93043456873124,314.4932770250494,314.3380158460228,316.5781943594268,314.9877735112812,315.2801727411617,314.41187815351503,314.91569747111663,314.6481455984338,315.4401067008137,314.4871584636515,315.28065519768006,314.9944290326717,315.26054935971035,315.49557932711804,315.15982367453034,315.4032785569055,315.12971760373847,315.3991839199336,314.8841284631982,315.72338817253967,315.42010882167966,314.66215791344615,315.1926856444581,315.5574858020274,315.0664640325528,314.7083137487117,315.21442853732555,315.54505253959616,315.5680142865675,314.22251957004613,315.23790584594315,314.88205792606624,314.7981447510073,314.78351173063584,315.7174946461599,315.09197971025577,314.85693140303044,314.9806536996614,315.2022471144033,315.37296752136035,314.5465562512645,315.50048049441864,315.4274716392187,314.83618883355336,314.82803255850405,314.8379949045472,314.60770001960105,315.5777741115421,315.32338152598726,313.7769870925969,315.1225379738367,314.49218298816254,314.34393790795224,315.0949402882531,314.9722614588924,314.54664059154817,314.7144717984831,315.09461606896434,315.57948611659964,314.7338397100566,315.52959266749235,314.7980727067581,314.695713833512,314.8634067040627,315.61308014365676,314.0036311102104,315.5252621776209,314.96434903643296,315.08392893408694,315.383941700312,315.3128988571947,314.6189333685672,314.02824861639857,314.75231076144166,314.55449965430324,314.62976920675845,314.9930379165203,315.2745217107969,315.52910090825475,315.31325039413616,314.9386503974123,315.4478930374214,315.5254371293964,314.3490933454504,315.2374121885354,314.6876430606336,315.3774465050998,315.37805048563916,315.32075984687873,315.8793871664621,314.1721673849312,314.6631479989238,315.2136830222823,314.72563306726596,314.90892763468156,314.7903549769924,315.02364411946553,314.4256753503689,315.4113310394018,314.45607896320337,314.6765054601708,315.5929829901899,314.95894297262424,314.93907669442376,314.50940146393594,314.6928745531951,314.7391764272379,315.21998205462086,315.52155902757676,315.0747342777696,315.5703505081922,314.7288249265323,314.6522893695861,314.9658417087083,314.3593327823617,315.3211994568797,314.842256980954,315.63644376015185,315.2753270858999,314.5764626221636,315.1678251568432,315.04675867850136,314.35259206235554,315.73873713212504,315.9523617170683,314.36358027769984,315.154935890322,314.84274570013497,315.16419229319604,315.5848287518877,315.4372670320794,314.51532123748007,315.3423705576738,314.59646996582944,314.76716601266315,315.3750153270559,314.9253811788699,315.0492360404855,314.60145389162284,315.5370421646542,315.2191389891588,315.2242770010239,315.2932461950796,314.91109152639217,315.37853022227404,314.6127834632205,314.9045983420518,314.5612369140307,315.40176875859294,314.5525799753314,315.022600994344,314.89541536557573,314.824402563371,314.3671358300469,314.67434482722774,314.89980878741176,313.95615442147937,315.4349073291357,314.6602096278432,314.73655666254024,314.98656445255165,314.86121162321155,314.84017182474275,317.06605181960043,314.18654449652576,315.0940090957815,315.43252675229144,315.2222463361487,314.8243353605541,314.33933240828554,315.5067704010165,314.5505259083786,314.3796090702207,315.3239111759513,315.11869772884444,315.10404029162396,315.3528102216572,314.86155996024286,314.18556339964186,315.61042630153463,314.47966428531686,315.49912313493365,314.96579791181847,315.45293158597804,315.15337695625925,314.4057646777504,314.34112119478687,315.09639108643637,314.24480579408055,314.56268403380864,314.7525263880856,315.1058424693295,315.2746895355417,314.50508505776617,314.476360188901,315.5041728409082,314.4515475328467,314.48582335268355,315.1220477523381,314.8183329755454,315.00254127517593,315.02987171998797,315.07614068890604,314.12791042782015,314.82591487229837,314.37238168749377,315.86363827033114,314.72170711503105,314.98353103211537,315.04877023009567,315.038789742839,314.407961189127,315.0552947400156,314.7382829770965,314.81433298808344,315.73647961395903,315.28227059441366,315.599464674599,315.5812279840794,314.4372074056861,314.60327517521836,315.694793734238,314.0230330832116,314.0852235259792,315.0684478852811,314.6232544806136,315.1190885112529,314.74882706282284,315.1606949970742,315.31891707608526,314.7488141927381,314.7770170724434,315.4797373144284,315.3890311909622,314.98208286700645,315.27681562819055,314.5815204858392,315.51547181408085,315.232242751885,315.0830970913582,315.4960379376298,315.122043720923,314.65162999808996,315.7119891563721,315.00364721782404,315.8964394124832,315.48989806569807,314.6705668381844,314.0687914196622,315.67720023106654,314.2141380030485,315.02625465263077,314.53390799215913,315.2927203072396,314.68627334059676,314.7330044744085,315.6923387529839,314.1146945954815,314.750780076896,315.21055750202106,314.3007738867472,314.74848888575224,314.6310310055747,314.41026363570415,315.8630277717289,314.89922747132005,315.2752284702193,314.9523901502297,315.3994618889292,315.9684803044774,314.89428952333503,315.52898585975834,315.38468929627453,315.4957460675527,314.158217887535,315.86547002298164,315.20767540648274,314.37728445579876,315.8801945388095,315.2732907998815,315.56077812361565,315.1433550603626,315.19899823440153,315.2778557667212,315.1930342696183,315.10821479331753,315.44592041433606,315.1625600649189,315.36391908411787,315.05644101432216,315.502522526171,315.2895426294426,315.6292402288833,315.25554805542345,315.2939765024211,315.48245025780085,314.5265220157948,315.31577077672546,315.1397073536852,314.22444513437284,315.20737798245557,315.2341628418293,315.30257797989964,314.5213682236319,314.7505042003556,314.9356906125185,314.27763843100996,315.13162364412165,315.47745436754434,315.20575738647074,315.0463389765023,315.24085971906027,315.257489161771,314.90500282522163,314.6731220968498,315.7165969451907,315.27744780177125,314.6253882090196,315.27040154265995,315.34647819931877,314.3867603265191,314.50919404421666,315.27069816415457,314.9501799421112,315.21686280424893,315.1461436241745,314.818308745213,315.53526590515463,314.75904316369844,314.4276815826221,314.99566404691785,314.88225754781627,314.4465668321393,315.2049281914326,315.3826278069548,314.47404681646094,314.8495766418796,314.44550871416857,314.80062068011887,315.72311782433394,315.2811466776586,315.13638255393215,314.94125528524904,314.9938058465947,314.9508381220185,314.97855951544597,314.42042631756425,314.55124689231695,315.40816289355814,314.72663210691127,315.78252019486496,315.0352204194759,315.0937212652464,315.7021316743931,315.79670724099753,314.73373414546757,315.5520078215655,314.9716771997797,315.6520943738951,314.7624600227221,315.3008553889981,313.8397257232553,314.5105441033044,315.28533438058525,314.5835989188074,314.6007560771257,314.9117827749035,314.69310061580376,315.1261561250903,314.8490481626921,314.99388823403,313.5202751316039,314.8467007655498,314.95786356069124,314.3894945243529,314.7519167726278,314.8040919926878,315.09776852136207,314.84235140653976,314.6249554503115,314.732305608493,315.5002336940188,315.2122219246894,315.09793977847875,314.785138264683,314.87578729050006,315.02416285195017,313.86122038707646,315.1391733190367,315.2046635770052,315.93016432711124,315.7429172853334,315.4760194225037,314.94066721896564,315.163349641639,314.6311651502254,314.7600190342583,315.41776330815804,315.0352286520405,314.6171924032711,314.64025047334496,314.64073799749303,314.42593323003683,315.3185163754672,315.4287097390467,314.70814015613115,314.7965860617386,314.2047263240776,314.6389117608207,314.06399319904347,315.5224356358989,314.9385422712822,314.92286424565066,315.2379245037437,315.86740523167833,314.81195955487027,314.72981311240505,315.0809240156561,314.7790479094502,315.59475579264154,314.7449564918673,315.31201213624337,315.4182213571089,314.94882806606836,315.2068233688919,315.25511515971255,314.89043737338244,315.98051166702345,314.96017929480564,315.39321773924985,315.40724176228684,314.498667197521,314.84485833697454,315.56447817423043,315.22913843284033,315.06681099565026,314.8686429883618,315.0334757646659,315.1626609219195,315.0246345235858,315.5079816196608,314.9295718060567,315.7011074138634,314.8791738900243,314.64425558602767,315.0239263346228,314.7666590644083,314.98283191318603,314.5741117580891,315.4294263826064,315.18501485095027,315.1820822807717,315.2620057966905,314.4056495021751,315.80540408781746,315.23281147099584,315.64178006823715,315.48420764747897,315.1196872523611,314.6139612927845,315.20197309058017,314.318391840376,315.3119945848278,314.9655167647192,314.4332524748557,314.1139298058789,315.7897705534316,315.08693237923654,315.47940726688194,316.00556093417424,314.67890948127024,315.04289532660493,315.3550795281049,315.4620218557923,314.3137449276096,314.9500647042989,315.24184995680673,314.65966582973823,315.46677778869366,314.3234433695073,315.3567604854525,314.76351227263905,314.6125830684169,314.4882010248137,315.1727077924059,314.9410383546728,314.20878040137313,315.37094019764663,315.18852991244125,314.4395710433029,315.2263992173017,314.4356451621535,314.2974302252311,315.4033886109663,314.8204860437213,314.7977267754058,314.9932043153348,315.0557531442664,314.410418892271,315.7734889876185,315.0658096814486,314.2543185875182,315.5394154909513,314.48989793978245,314.4430928420803,315.14435111452644,314.54756369284524,315.20448664918905,315.3649385887434,314.71126185394513,315.0388138399953,314.6442551535722,315.0805615265427,314.49139709056584,315.27641916826343,314.83052478873566,315.173861988118,315.39123392921437,314.2704322077732,315.1955889964894,315.1549049096863,314.48785368882454,314.61183252892175,315.59755990623916,315.6638063915258,314.4770315364402,314.6658077296171,314.99208176773254,314.9396268254698,315.7121317713927,315.34071324045715,314.3867219487149,315.01521751866585,314.17554959121566,314.4918433497886,315.16269307310273,314.76793985075255,314.3899491585953,314.81514547508556,315.41405337194215,314.44431911799256,315.33439725891134,315.04916082440474,314.6630274231366,315.2310361348711,314.3915639259949,313.7837179035811,314.46779668147644,314.44144021475836,315.3836560163056,315.17586018568153,314.63212801718635,315.78609109901055,315.36226680592677,315.2839837407154,315.7747673965827,314.4715749501591,314.1547962351794,314.7248056447473,315.2343710793425,314.7863135410332,314.6450005722025,315.2108183255085,315.5436741222586,314.52818064988975,314.15380667557173,314.8968793411609,315.389200402225,314.7967988480566,315.39553066950134,314.3721842416605,314.23842995067014,315.29552905723097,315.1411156377071,314.8056056041049,315.3609228540103,314.6311591605056,314.12311308703585,315.36826428413735,315.57608729893207,314.8747320174672,315.0224150405848,314.60008713196294,314.77748182713077,315.0379545845069,315.23969861918,315.1276545913408,314.92786618484416,314.80893478659954,314.37466467271094,315.23136529269345,314.79738415365995,315.44096838576496,315.00557811448823,315.65943714539316,314.62877755972323,315.1016182619618,314.8343000604928,314.89993688521605,314.3028655075142,315.6857826916841,314.5512585724897,315.3826685142617,315.28983106273404,314.6021128105095,315.9613349987719,315.40205479993057,314.9651409206072,316.07958313414656,314.8579015632074,315.1991699696767,315.1131620758272,315.2957699156044,314.9294469236699,314.7076021839471,315.33216360439195,314.7167361477171,314.83848698698887,315.62570189967147,315.5201216753285,314.8915499154522,315.55566424265527,314.5763062127912,315.1153699992295,314.8902072134949,315.0003059900697,315.8132257826495,315.33210472124557,315.21192565382717,315.54221428425853,315.15479710040694,314.4435070555259,315.4341089784436,315.63582563507856,314.675881885102,315.63594633797794,315.1976714104298,314.6358455240974,315.65661333528357,315.18049931765546,314.9435316523204,315.1868236070731,314.7713004825596,314.8945328080824,315.46465521875723,315.2049400091405,314.81727267465135,315.36284570775285,315.13074114356004,314.4733862895745,315.028551191568,314.8112576880516,314.53365525093574,315.24854551346533,315.7002888030809,315.25524504512975,314.9132420156583,314.99608058796406,314.2388483398708,315.0724642102243,314.8648550768716,314.12162715304333,314.7131019278815,314.768068661648,314.81316529216787,315.16958770454113,315.52644712224753,315.19501053160917,315.7567805581803,315.27592442297447,315.348262235104,315.2741670140389,315.8825070476176,315.719331057177,315.24252937978576,314.8547030627032,314.80922178323226,315.8828750039163,314.83818384522885,315.2395946960917,314.9146898550499,315.2347020168393,316.1015762379501,315.40807757505706,315.04372049825173,314.32046189443787,314.17505914592147,315.3885569612614,314.66484652112075,314.91368420417643,314.7004794854234,314.7935922985568,314.7368585761192,315.2908852669812,314.38977134659933,315.5383791237955,315.19044033833654,315.4832430963171,314.5809320690249,314.81470692596247,314.23219701065415,314.79286353834283,315.23012094944426,314.8057189309493,314.69474930966715,315.7178378946403,315.06308569345236,315.8670759206625,315.32833189975975,314.836319659593,315.0082754243418,315.14014518743033,314.55596451316995,314.78428288052174,315.2692454165846,314.65642486360383,314.1587778292043,315.3105366008625,315.22968890196125,314.6139416756665,315.02951199044,314.6272553972781,314.57680672831526,315.23462976966186,314.9014031495558,314.50484061567613,314.88568275309996,315.6291079493054,314.3274987446579,315.1858271221446,315.6418803001165,315.32372314866547,314.50775698794365,314.3675400666704,313.8776994531227,315.2373652058586,314.93683850010126,314.5141667878318,314.67170585051304,314.61467162764296,314.38544952499177,314.7125275259872,314.3079729783952,314.62940503652385,314.8290852359004,314.0789311071646,314.58546685056916,315.4274879106596,314.9482057126,314.33648410501996,315.0711865370836,314.62316916043955,314.80561635360993,315.21706265825316,314.5657898483283,314.9161353165631,315.5454991403655,314.79733781506263,315.6126673460971,316.01253991645274,315.5322114418407,316.3330167931334,315.09942823546646,314.9832394716575,315.383731996,315.5384472729061,314.9686752277527,315.68902641892504,315.08786314220856,315.40932359078585,315.34474616567366,315.3711838612791,315.2545368110662,314.791814995645,314.8849513156882,314.0397975258985,315.1965496051219,315.2594172802203,314.83356116629136,315.0494034744808,314.8947425332715,315.1706352784012,315.4905763722797,314.82210466477073,314.50061031199147,315.34333978258104,314.9018429384468,314.16588417304325,314.7145410146994,315.3291692711286,314.04854483857406,315.57294028554935,315.3667531301469,314.6163819668911,315.94585679474477,315.2981043397239,315.0040536120517,315.11434561375677,315.1890095453204,314.59654284808084,315.33407221148116,314.62698237564575,314.70138895738296,315.15218024401855,315.474414173735,315.1283099325001,314.8869505557623,314.77537521067893,315.69159626156767,315.63473065918083,314.6991320040887,314.3084683295645,315.3487473981027,315.277225091255,315.2905123190578,315.4195428065733,314.9849746921374,314.214176565747,315.14000955961626,314.5516684805374,314.75925191653937,314.7889044803877,315.0184464960058,315.147255913506,315.22071011330036,315.282780115051,314.5878929926381,314.83799444650737,315.38624043238445,314.5952636441384,315.1816647425381,314.78739064011245,314.3708279038065,315.2637570916091,314.73893412914333,315.0818822323178,314.9948600375251,315.20851966760597,314.6135513693812,314.91127708612856,315.2572179175768,314.3390459432887,315.2738293503303,314.62120885352294,315.05939534314405,315.3976201652592,315.11381111235545,314.9514166718799,315.4541291193173,315.16108130204384,315.23264726729775,315.1726806560788,314.48610281217765,315.4879765533791,314.9904253342453,314.9773127178889,314.90951541866303,315.17995548062237,314.4277143980929,313.85851808215983,315.1052812816939,315.1352456697799,314.8480343498569,315.5258561234102,315.2190221765086,315.8397681584772,314.94273167771524,314.9217787492332,315.28067738506616,315.0268726623396,314.8194242794095,314.74796288896306,314.9912112024556,314.3775259879156,314.63564773582544,315.0676277829238,315.7224283907236,315.03709049256236,314.99635136452287,315.0140942396576,314.8618450054307,315.8587607147686,315.78216094805634,314.53869174740635,315.71092197837874,315.91848555047847,314.7531926301033,314.95669021120193,315.52302079604334,314.84125173215807,315.4449244901721,314.9683071157664,315.65247546634794,315.6807616568266,315.931895103352,315.3501333676473,315.14737142975224,314.76412885500446,315.1153743147224,315.3754670598625,314.67904367836394,315.52589988992895,315.4978981803957,315.51220197584826,314.3995927472367,315.74982051499273,314.86620436953234,315.80100187543223,315.6773235384327,315.0369170260435,315.20323678405583,314.91214597603897,314.7692052921699,314.3181841941951,315.1318503878739,315.4469651185083,314.9431383650112,315.2986983849446,315.6093078904737,314.88554373096804,315.50883117794376,314.8882492594628,314.6280539607146,315.74872573083894,314.5844811887741,314.95166002774454,315.31988114732417,314.8867808314856,314.6743005703208,315.4938242597843,315.5900341439547,315.4970850372559,315.70299309106036,315.05500816515104,314.9454773729728,315.3954275099332,315.33493976871245,314.39623393743517,315.1902644094994,315.7901454201404,314.97095670717664,315.1031910039928,315.03422301216534,315.2695807501199,315.50055041118003,314.80812733886273,315.2481334529109,315.6263094402613,316.08516827124794,315.1656838750139,315.18418098585266,315.64952722072553
2,-0.0012276035807942554,-0.003784361377710998,-0.0014539547918631013,-0.000855794693842521,-0.001762843353942915,-0.0018584325124737144,-0.001793383602750134,-0.003604718332579904,-0.0017985542610928894,-0.0038297116298986653,-0.004357727186171234,-0.0036707559968479652,-0.003053145389522844,-0.0026354303624782174,-0.0019120611715680146,-0.0028366204707639176,-0.002692580766638123,-0.0036808217781042914,-0.00259756939010099,-0.00440574839289273,-0.003225165752596676,-0.0032062167987877864,-0.003037716312793221,-0.003053837432024766,-0.0023761484897054197,-0.0037844728935914128,-0.003028058328274535,-0.002393025226219695,-0.004319415969279014,-0.0024546489420270733,-0.0024878826738015778,-0.004235601951146161,-0.0033608368567892948,-0.0032369186967577705,-0.003768278045493861,-0.0034234645074843737,-0.0032478562587967322,-0.004516599808744653,-0.0032174550282120106,-0.003440223257487664,-0.004205976599542373,-0.0033769722742223104,-0.005202648376253384,-0.002382008984122674,-0.0031693336230115415,-0.0037551605017276885,-0.002323591873203751,-0.002363745364087206,-0.0029224866512849615,-0.002980321125977038,-0.004500828552232872,-0.00312785288720751,-0.003947751846155506,-0.0018266121637599386,-0.00379133644050239,-0.004080014961425392,-0.0014532059841265066,-0.0022655068535755037,-0.0007434593856880125,-0.0019462130818814535,-0.0037878782913141917,-0.0023455954557055616,-0.003969290215865818,-0.002774047565863306,-0.0034486587451680317,-0.002730919555221417,-0.002044393626479922,-0.0021049948661065253,-0.002211884542090357,-0.0034416878762202597,-0.0028804155707707656,-0.003036583360418673,-0.0018966249158591539,-0.00288137326904853,-0.0035342767395529556,-0.0035691907777447188,-0.0031900990950575214,-0.003233029813036046,-0.0025512135192438026,-0.003708411475771396,-0.001147062202064232,-0.0024414919957115107,-0.0021790955096820668,-0.002688082449919951,-0.002527047230113081,-0.0031333041938658803,-0.003064393377232728,-0.0023807018146303574,-0.0029652008920267605,-0.002925537199873645,-0.0019696176503054504,-0.002587711949814595,-0.003052531584220722,-0.0029172656197934436,-0.0022932018629104795,-0.00450870497259745,-0.0006948281615247237,-0.003690791814929825,-0.003277341775479177,-0.003451309330150579,-0.0020717121766860237,-0.003737867774164595,-0.003019198554978231,-0.0033241317534081273,-0.00307653276760145,-0.003036817992864115,-0.001628888862472046,-0.0025886466497722213,-0.00464634218446369,-0.003356545014911661,-0.002641247944275682,-0.0030272484316707354,-0.00309246393510319,-0.0015981923824961468,-0.0021194720039034577,-0.002540140370497719,-0.00365736853106732,-0.004314548817430224,-0.0030946958115862662,-0.003474198276731024,-0.003672514696862976,-0.0025950254253139468,-0.005245750735488745,-0.0033332133970401584,-0.0038104764912109154,-0.004753496110087604,-0.0034687389489083597,-0.004057943809770614,-0.004554238959718357,-0.0024890727509593795,-0.004115285956042493,-0.003092543654191938,-0.00316739595528751,-0.002955630047055789,-0.0034438086482662714,-0.0016540014870458392,-0.004316100563934264,-0.0031156487660758733,-0.0026105057429531204,-0.003248502909455557,-0.0038819220916296217,-0.004223292001242691,-0.0030860635321233354,-0.0036962379546561365,-0.004800601921280089,-0.003458740141753821,-0.002669770535743724,-0.005795519133435424,-0.002624987537705724,-0.003600970114355506,-0.0030867527341714015,-0.003559409157343214,-0.0041360366874782116,-0.002930222477204996,-0.0024679918150874165,-0.003911525466038051,-0.0027952787309038565,-0.002796774367163324,-0.002862110565051694,-0.0032147236890657507,-0.004371784547727788,-0.0021876705311705625,-0.0033420382847442684,-0.0037056180416141457,-0.0024639686698810673,-0.002825370380627188,-0.005149537642969415,-0.002457023110774271,-0.00399367661205348,-0.004224844324840824,-0.003258219926291821,-0.003844062401710121,-0.0036366022546686612,-0.001969039740301233,-0.0033147285828267173,-0.002670654271257586,-0.0017111149710432262,-0.0017225150469846807,-0.004859842191201743,-0.003002930423590781,-0.0037860643710047708,-0.0038491636084814177,-0.004030225082232553,-0.003512836283607937,-0.0028660310693666364,-0.0034092360886077457,-0.004991256218743733,-0.0036550723301182336,-0.004955041723198862,-0.003826663288133742,-0.001990384059215941,-0.003599928750575962,-0.0024730690376329654,-0.004785748962141832,-0.005875125582229381,-0.003027760580050148,-0.002869278923784509,-0.0058173964193716145,-0.0039790709009366095,-0.0039724102584118735,-0.004040058880454945,-0.003423825350643114,-0.0028195098294775565,-0.003850294716566311,-0.002920910301937771,-0.002841395705820786,-0.0046288748505951315,-0.003067572004370291,-0.0037662514048509704,-0.005202771353441262,-0.0020866324803575555,-0.0031760624095242816,-0.005315215500346862,-0.0026987034678234833,-0.003517214453363454,-0.004729442180946628,-0.0028607767502588934,-0.003078281905396662,-0.0037702827896969825,-0.0029416507115178005,-0.0028965243529082145,-0.002721937029955613,-0.00223599857956562,-0.0034549127011305864,-0.0022772374339042494,-0.002418959703866997,-0.0045157200478788346,-0.00320416066749054,-0.0025506931185618796,-0.0028990679099225136,-0.004491197495898172,-0.003238668867054193,-0.0037796654097945136,-0.003114454442996128,-0.00444455692950422,-0.0035294497938982788,-0.004063968925536065,-0.004466806355817898,-0.0029666040198664005,-0.003920306832176367,-0.00278377367785805,-0.003616089505403647,-0.005009967128160763,-0.0038926590043884554,-0.003325303316962882,-0.0032791885578478367,-0.003314993128587985,-0.0027028306583951056,-0.0020916019274586435,-0.0045609798804003435,-0.00260243170552903,-0.0023793603856519584,-0.0023459907186008907,-0.001961912531478959,-0.0030535793952647986,-0.0021446628268107135,-0.0018976867832784536,-0.002891342802004154,-0.003272800638830408,-0.002286354669368143,-0.0019542227292869176,-0.0031592542919236144,-0.0031202388986437137,-0.0025819101242552235,-0.0019066117044082942,-0.0026083028531023018,-0.0026295536025522626,-0.0023762644094207828,-0.002821115012860784,-0.015233950660316553,-0.00396706970725943,-0.0027087895986588734,-0.002774037053828764,-0.003670018146452975,-0.002273497282856001,-0.0023430699942640037,-0.0038522121627737847,-0.0028104910203823816,-0.00286846051328022,-0.0028057893825322814,-0.002072762243744377,-0.002230566485848649,-0.0022054302012581664,-0.0023245506497388746,-0.0028943702924238302,-0.0031007598262945244,-0.002908517012819725,-0.0022297848079055973,-0.0021749933955807527,-0.004053748932754316,-0.001292758614999593,-0.0010924238555388936,-0.002758611994522114,-0.002877157796789984,-0.0020857110701189463,-0.0034477376272070244,-0.002273580539792201,-0.0025131794446819505,-0.0027864248509453225,-0.0027313478887017527,-0.0022925759450647537,-0.003641573335390519,-0.0027972503540273485,-0.004787008839396948,-0.0015585351883650295,-0.002593395278503219,-0.0042033525236517795,-0.0039095235070423905,-0.0028964213733412444,-0.0034655952666246908,-0.0028406348367383647,-0.003466830634591492,-0.0027822769480535855,-0.0026209687727679377,-0.003705130715206659,-0.0027731255967203,-0.0024316771813841826,-0.003919015482463534,-0.0030691471434148433,-0.0030459510176445584,-0.0020362024695645448,-0.002776960096105664,-0.0025070375735462744,-0.002722350443797643,-0.002974226980151858,-0.001766137837178505,-0.004150780884597847,-0.002056959877635639,-0.0021119568588379607,-0.0034013138307420134,-0.002622430099727723,-0.001508557138166154,-0.003188694986144926,-0.0025290495798044235,-0.0023917599328415664,-0.003246504545959138,-0.0018047660406273868,-0.004743979806730582,-0.0024942016128151356,-0.0039055894458415435,-0.004363722625085778,-0.0024730025664716345,-0.003110827590473885,-0.005092963531456846,-0.0026318179446671425,-0.0026844197950898884,-0.005117227109205807,-0.003494622495726685,-0.002741988073806653,-0.0027912512100530507,-0.003531696227679229,-0.004808268507664363,-0.002906303060529112,-0.002784175617205873,-0.002334253848165969,-0.002145279555324281,-0.0007532050781464143,-0.0014202415589516788,-0.002875780958525455,-0.003063753527112977,-0.003653736935072677,-0.002835594815578263,-0.0017552192960990651,-0.0013745537094140016,-0.0023060687581709168,-0.0020091354197119007,-0.0002506890119179979,-0.00348608693605831,-0.003050194235888799,-0.005264695637050303,-0.0036295195630909618,-0.004007962316157603,-0.0031624539949531533,-0.004203787352961955,-0.0047540488712343645,-0.0037533863636955845,-0.002853056480031429,-0.004165541578669616,-0.002270651365046976,-0.004251462669506274,-0.0028824676308841124,-0.004157872538470456,-0.003625196182561861,-0.002983276938786813,-0.003797834568278268,-0.004587778322769147,-0.004120959014430725,-0.004213383221737592,-0.002679698753638084,-0.0028779474653903092,-0.0030668049935371443,-0.004860203302981939,-0.003579743893673875,-0.004797260499579639,-0.004000491821167907,-0.002497319534742633,-0.0033281423606889124,-0.004021634610070237,-0.003139630338058602,-0.004311152006682513,-0.004058615033005879,-0.0044757847538891464,-0.004315788992578497,-0.0027847978428860378,-0.003005963874155553,-0.00343273258107567,-0.002994656920471417,-0.003869034194590027,-0.0027079361452107976,-0.0028484662330874088,-0.004745510049270203,-0.0030417838607304805,-0.0031874092399010396,-0.004358163527838796,-0.002533462463797287,-0.003676817149704211,-0.0021210828675605783,-0.002581905074898403,-0.004673581361855843,-0.0025032375482096306,-0.0035018995389512,-0.00425756476782221,-0.0026709865135586793,-0.004205928409002187,-0.00318669845063594,-0.002463373206521978,-0.002442805089080704,-0.0037847102137859604,-0.003354772406924885,-0.00388858317624694,-0.003096104921663931,-0.003136792847608401,-0.0027964110602858193,-0.001829880591229717,-0.0016947384805611645,-0.0024670760212089486,-0.00217817702458286,-0.0034825464767263723,-0.0023895510207519177,-0.002280872201226167,-0.0031398192163302483,-0.001265871280890918,-0.002260626451529191,-0.0009279148910763501,-0.001934308962838117,-0.003975513454814043,-0.0029520913669451735,-0.002358575916402617,-0.002951348264866933,-0.002590809975957887,-0.0030769974930388204,-0.001622708492265027,-0.000959565628611742,-0.002910870937825851,-0.003402593709778913,-0.0014452791015945367,-0.0035518996224226545,-0.0037631715108030935,-0.0060394317717951335,-0.003995312212608125,-0.004853219626003753,-0.002317852187257084,-0.0021791145824480644,-0.004232725429017507,-0.003923746373043191,-0.0024411451750813756,-0.0034014393305795768,-0.0006451629774896102,-0.0006920418324582598,-0.0021710139500394237,-0.002967860749156078,-0.003975437332138369,-0.002565623214771089,-0.002132683686163281,-0.003265451393274844,-0.002115716509506925,-0.002497305419735673,-0.0009271735775716649,-0.002597586390202372,-0.0014960027054919769,-0.002597688981312645,-0.0029035997403121464,-0.0020903045074749465,-0.004111010069865817,-0.004999029582193881,-0.002663180862269938,-0.0024900014753565115,-0.0029937426001990074,-0.0026713171399050375,-0.0025230089213050845,-0.005499935136354743,-0.002564337720749717,-0.0036493449701500273,-0.0029342818599120044,-0.0017603216103506012,-0.0028252018821110017,-0.0039080871860365145,-0.004110856500810459,-0.0030727872882646565,-0.003820589784203887,-0.0021832724199046657,-0.0040340933036564506,-0.00326526259191982,-0.0026259743330662127,-0.002348167590012844,-0.003085676818556575,-0.004335432945279955,-0.0033931745076699058,-0.004469252518520128,-0.0034016029779002778,-0.003543835695069042,-0.0025236924814157043,-0.0021299298703793563,-0.0018229052984973105,-0.0031124016124295844,-0.0035812501927968065,-0.0032044575256987883,-0.0037175252274021867,-0.003717395031469837,-0.0026099030544030483,-0.004921784083201053,-0.00361211180276719,-0.0034248206186683625,-0.0036361016226540035,-0.004794069242506618,-0.002966231685486153,-0.003473693449052453,-0.0034060107098836216,-0.0037410440925406915,-0.0024143650658108038,-0.003419359259020393,-0.0025755715779924113,-0.0028610779989875637,-0.0033865169848822352,-0.002676222913590695,-0.004265870218084656,-0.00279220076194417,-0.004286725022065111,-0.003457829575744225,-0.0030713038837039833,-0.0024352460662105157,-0.00360075392731572,-0.002893672124130359,-0.0034615621609711614,-0.002998540329558786,-0.003473794880661737,-0.0029213351166605416,-0.002902612857304979,-0.002958259083330602,-0.0027079980530104837,-0.0037270622833286914,-0.003713429388474781,-0.00424832904034297,-0.0031014340857033694,-0.0029051007007963366,-0.005082003965507304,-0.005358935871716219,-0.003392722920849347,-0.005046956720580363,-0.005147000297880277,-0.002612803075448461,-0.0035188851059467477,-0.0023815955400115422,-0.0024412198531575374,-0.004545692008527626,-0.0028391790226483613,-0.002478886456816311,-0.00028674793524817454,-0.0034138085417282256,-0.003302123698334416,-0.0015708346148659142,-0.0023574276528240653,-0.0038049966671009354,-0.0029259172874252907,-0.0030434279397217956,-0.0030030503884459756,-0.002869740313681296,-0.0024580024507690115,-0.003669264045301338,-0.0032938395204751996,-0.0011101405835232945,-0.002815107508159658,-0.002472278423256021,-0.002410463394717441,-0.0030432780343108454,-0.0025944070800442017,-0.005595008309929208,-0.00311269392360756,-0.0007005639525605949,-0.004241579625381947,-0.003802297409642711,-0.0031749551113583315,-0.003407339146585702,-0.002964289655215878,-0.0021375006434270214,-0.0027288951077393216,-0.0025280625774364005,-0.002617640443074157,-0.0033216819332006,-0.0028446794954278243,-0.0017177380708820204,-0.002078872117160931,-0.0015913164811918398,-0.0027196409733726726,-0.004118887964621202,-0.0017293442451178844,-0.004772330606927486,-0.0030225961236489173,-0.002651161227161184,-0.0017608940489934695,-0.00341291174001506,-0.0011073437646698268,-0.0029393161574128948,-0.004927610173431543,-0.0030264141576641992,-0.0027412215146571683,-0.004452916569291617,-0.0011575623239589476,-0.0018201242972475543,-0.0005061736997209957,-0.0026670063218501966,-0.0023838521752822463,-0.0037294271500583165,-0.0055708412380065415,-0.0015705754692999097,-0.005945620755024974,-0.001521262850813123,-0.002142310284526772,-0.004709438347050699,-0.002530679511625439,-0.002897124847479073,-0.0014666518239013601,-0.0023078599941516544,-0.002666594146158882,-0.0029424666340232327,-0.002884965879435396,-0.0022243589021810574,-0.0009501740883664684,-0.003433575708703306,-0.0024286793985925877,-0.0032939364545904485,-0.00435743337062133,-0.003966415065390055,-0.0030946778985349575,-0.002415599815838321,-0.0027894320762690238,-0.0041029540347133076,-0.0028426161028909185,-0.0032664364316362937,-0.001882683986665019,-0.00283625977120033,-0.002290415802696717,-0.0017116099686075603,-0.0025452838632881464,-0.002694406071960254,-0.0025548167785876662,-0.0017315291406572284,-0.00252893254760891,-0.002531192349866181,-0.0030267497376101154,-0.0024526330151601774,-0.002027020852038728,-0.002030675794950387,-0.0018946474911358075,-0.0021312111492655804,-0.0018705505447694395,-0.002468502576053241,-0.0025145336863461225,-0.0035619958331051813,-0.0028785142702932166,-0.0034218218205304654,-0.0035235027515409492,-0.0030382252742404514,-0.004268122768691787,-0.004302113113095076,-0.002314710306574156,-0.003135984699214548,-0.0016573067597489334,-0.002310485697132359,-0.002870051799845075,-0.0027751824088793503,-0.002726113475856528,-0.002229182159366753,-0.0027566113926064946,-0.0032692552840231444,-0.002376638592607239,-0.0032230260697474404,-0.004089808822946265,-0.00260536525822754,-0.003575045414188069,-0.0017930954423026517,-0.0022167296732596795,-0.002549516450516116,-0.0027459126317087228,-0.0033637219465234573,-0.003892040085621703,-0.0028411686992888723,-0.0024112752071567215,-0.003411582146662984,-0.002717294192729006,-0.0029389413374537304,-0.0030930339003368734,-0.0024451593806781974,-0.0030871696620607086,-0.0018746745904718073,-0.004003322682633197,-0.003896570205478922,-0.0034526898466697956,-0.00638011920528272,-0.003745229267168468,-0.0031826659011179393,-0.004585890709021273,-0.0029616821096640354,-0.0027298735031461552,-0.006992928015363689,-0.004058966928563185,-0.003801653858167067,-0.004414092916145738,-0.0033407255743629085,-0.0037771328586420844,-0.006039816711803727,-0.003444080906646146,-0.0031878116216085945,-0.003383407164476447,-0.0022574729147466395,-0.0032979293025959776,-0.004378149983082104,-0.005234937269661157,-0.0054888545425349974,-0.0042533168789955075,-0.0031206966487347994,-0.003750212664991293,-0.0026326460364209116,-0.004850394178548612,-0.005033467403947148,-0.0037848741401852637,-0.0033930283343071416,-0.004497325154844102,-0.002998294484192751,-0.0037885035689192085,-0.004713445202680937,-0.0025794697359522605,-0.0037370081432327156,-0.0036367751984360147,-0.003581256003546725,-0.00520081699897731,-0.004526527635862604,-0.0030613336114698126,-0.0036859948072792037,-0.0032677934369468057,-0.002582252530736527,-0.005131005357661882,-0.003181732080123418,-0.003949646584916196,-0.0034779795661892686,-0.0034271965839177457,-0.002662439370158475,-0.0034116630739139528,-0.0033851119651839407,-0.003435694277619226,-0.004455608195524008,-0.006107566514078486,-0.0029686253709892718,-0.0032641629586439487,-0.0025172719611543854,-0.0043564448197064955,-0.0025954326946059886,-0.0024477795595906427,-0.002975760963678501,-0.002499128279662896,-0.005519940696455554,-0.00285404192284314,-0.004238656553947225,-0.0056616973263161645,-0.003954545854500442,-0.003324936177498604,-0.002964615210383025,-0.0022066168519322238,-0.003974787009475456,-0.00363298291620356,-0.0048150478520337025,-0.003039017228701153,-0.002394685330182394,-0.0027785831116458122,-0.001994211832459016,-0.002533855597483187,-0.0032423584132141785,-0.002988462884223067,-0.0030666867910927515,-0.00394734676524086,-0.001955077112242542,-0.0035680448777170243,-0.001012202060844918,-0.0029505101012318076,-0.0026720656052750262,-0.0010545521977680182,-0.0018008683706982618,-0.003788444681940722,-0.002526077719938506,-0.0027278358520865173,-0.0018686783273340693,-0.00317427204172917,-0.002685141155125069,-0.003068448986833725,-0.0031147886429696123,-0.002724886506240679,-0.0029689165992613496,-0.004302206845691628,-0.0026729875766109005,-0.002412242189006533,-0.0030690805248029447,-0.0018540751038113657,-0.002475279306726104,-0.0026338418474416117,-0.004335841797765317,-0.0037472229543607243,-0.0030099869990095666,-0.002160015629152259,-0.0015509997934747568,-0.003576280151354837,-0.002397325320337438,-0.0025343891904322504,-0.0016557301141993475,-0.003578693043924129,-0.003551705878609389,-0.0024070003718332654,-0.0024964013113251754,-0.002606623683303528,-0.0024694792437773864,-0.004978264290074335,-0.0022524394225837525,-0.003272941139989246,-0.0024115373751433023,-0.003468829835135113,-0.0008147554515495787,-0.0021921559298501776,-0.004197471681915373,-0.0032327275707391056,-0.0024023728560440584,-0.001536335153331726,-0.0007301371022420954,-0.0029132449705131245,-0.002517250301291798,-0.004053095539187492,-0.0021711137096279,-0.0026223416278548027,-0.0016700952007550778,-0.0006390548119667995,-0.003467506141730733,-0.004368066459778854,-0.0018922387349103306,-0.0021030555967553053,-0.0024507462919377827,-0.0020194502706320327,-0.0029075880474301492,-0.001716608269342613,-0.00532773011930257,-0.00473143889436493,-0.001701719643796313,-0.0019460001660815253,-0.003486439840105656,-0.0015731284803898913,-0.0035379838539613784,-0.002491090035675223,-0.003641565613337661,-0.0036535313916092422,-0.005074070443329249,-0.004914694635212993,-0.004001331601971662,-0.006197723842821173,-0.004548156141050861,-0.0062024249867549995,-0.0028613704042057494,-0.003405020749696093,-0.003014663316121129,-0.00501178564216346,-0.0007403225334765037,-0.0032945397476445235,-0.0023057651272761722,-0.0006187677836576776,-0.0030424062485886294,-0.0014493528125827562,-0.00393795774678569,-0.0020988619328211893,-0.00296403398598434,-0.0025074113349434508,-0.0038390052387683063,-0.0024979562187122644,-0.0032588877224148673,-0.001990440711914095,-0.0013567667503290304,-0.002332602792675974,-0.0025416769440353795,-0.003284239651254399,-0.0027468249453684226,-0.0022430174016828557,-0.0016796603200254236,-0.0032887033528088525,-0.0021725059743326193,-0.0030407122856982334,-0.002491741875208553,-0.0027190309479213745,-0.002844449688844128,-0.003102507815470911,-0.00332003217770936,-0.0020247790962001928,-0.0014494360183559105,-0.0028850390199843686,-0.0024691107631490596,-0.001884410400370229,-0.0027548545918936623,-0.00413794776266147,-0.003833155110042163,-0.0026253975003052727,-0.004187196669206916,-0.004280871740047944,-0.0022497884863672225,-0.0030071137283845095,-0.0026357424859500935,-0.0015908802202791881,-0.004463265452887197,-0.003310094400155252,-0.003531912989557224,-0.0033381808203425864,-0.002394890887096459,-0.0017897161606152156,-0.0035774368634038283,-0.001926404644845715,-0.0037160932930276453,-0.0044988357673505786,-0.003757811052579584,-0.003836339272100658,-0.0030119073331753062,-0.003361752343176502,-0.0032222538915059767,-0.002696990016083902,-0.0024294239937852203,-0.003407114879816313,-0.0021315667142854764,-0.0047938691328727355,-0.0017356175738885116,-0.00363367228261842,-0.0021541770987061155,-0.0007969561852610911,-0.003069432464160796,-0.0030825438048923555,-0.002014620330838312,-0.0013984601101010047,-0.0033437220141441784,-0.0035011586085863535,-0.0018490560537295787,-0.0032800932534860876,-0.0012360320611490914,-0.002518421682408631,-0.004252131586066461,-0.0022107603735719186,-0.002519430946677278,-0.002176684467046888,-0.0016167655492625302,-0.0023809025721782946,-0.0022472282448299,-0.0017776720787619623,-0.002193229518703779,-0.0019891358540066774,-0.003052236323824694,-0.002086733334979136,-0.004665268487014636,-0.004056227323019422,-0.002690862166870495,-0.004354498374738647,-0.002522842960005618,-0.0029237114207100543,-0.0003583790143701509,-0.002969455070268351,-0.00043136947130492615,-0.003572787367826524,-0.004190645578646246,-0.0032546000706636566,-0.0031608051983448397,-0.0024128823365353524,-0.0027587250281071365,-0.0021981062149152935,-0.0043605565759513645,-0.004754292602174404,-0.0029188846030842727,-0.00326887184765919,-0.0023525234747520975,-0.0037093018786566534,-0.0047146093613129264,-0.003332023645680183,-0.004301762751879824,-0.0040685320630337385,-0.0049246533920934265,-0.0035263961229520927,-0.00296450723576708,-0.0034256428071278945,-0.0048412987958655306,-0.0043365860766637595,-0.003345920088042332,-0.003402197335719293,-0.0042610417579288596,-0.0033022236397367718,-0.0035455772002244168,-0.002904154458143667,-0.004304824624348875,-0.0034835001896208473,-0.0024447331835468636,-0.006082892268396043,-0.003960534415836582,-0.0037430901180230216,-0.003798703045127633,-0.0038829854441741396,-0.0030108733008731765,-0.004961776726223967,-0.004236216485286986,-0.0022434628129065198,-0.004731570221708137,-0.003227779380126442,-0.0018940397344577417,-0.003581895904000444,-0.0028889751250337765,-0.006332290384789236,-0.0038134641288901437,-0.004232349371347483,-0.003541856224718959,-0.004039431567891233,-0.003574465246430541,-0.0036662158845643905,-0.004212339033925528,-0.003739951026674604,-0.003393234851471417,-0.003839781946577291,-0.003288444861735621,-0.0031285454255100638,-0.004888515872992997,-0.005491489741498797,-0.004663437177612589,-0.005347244030886059,-0.003490837295373458,-0.0026890919809466917,-0.0020089809227030802,-0.003541826078575344,-0.0031547872640813996,-0.001306410930755495,-0.005132153547677942,-0.0029850303596227453,-0.005252674632809436,-0.0029503692803538473,-0.004517837585130959,-0.005324970247676035,-0.003770845539015589,-0.002315167818952757,-0.003935860338542028,-0.004172497282366868,-0.005100493667039782,-0.0018100555687833313,-0.003951364403067234,-0.0036283672106400943
3,0.09667357739249302,0.8238376329945652,1.0552023731465918,1.203847926810194,0.8900574263545081,0.9134428841298405,0.9261628221220279,0.7923411387868573,1.0572028188937104,0.76064308202532,0.735883464092137,0.7218128965535825,0.8041026793878104,0.7648368268041802,0.8873856078300173,1.098089149489655,0.9337499773970535,0.7630884030952617,1.0293887865707725,0.708213034687266,0.9538190826681433,0.8311234584484389,0.8146069602982783,0.8893270543509704,0.8379438756440288,0.8094151566161252,0.9920732011913587,0.8826919287815057,0.7616677474678458,1.1602323686621077,0.8359909557058008,0.7835039629502601,0.887298803529009,0.8492743927178865,0.8481527804719319,0.8653727259453261,0.8337325341600048,0.7824646733496666,0.8798914672860959,0.866528777613752,0.7502856169811744,0.9029216691733175,0.7480204120207607,0.9104651384230128,0.7982494476531049,0.8681983863109953,0.8388716496460181,0.8441050521924959,0.9175274991446303,0.8188861432458383,0.7244865768462249,0.9587730621926484,0.8603132095672612,1.0059060727123292,0.7681182041752364,0.8708001106157689,1.0707497786587599,0.9707088700671181,1.4230963340254066,0.9726946127148195,0.9037905312542883,0.90464034835338,0.8437596331726501,1.0117976654540473,0.8965029387941245,1.010684789035713,0.9244304903912237,0.9357696101488586,0.9196284579486116,0.804115631004426,0.933851263584194,0.8435418713214414,0.941699595067487,0.9339951007382786,0.8193277288305552,0.8817415002009834,0.8529512198839266,0.8503656948313566,0.9604487761664289,0.7709280130532085,1.0517885250927772,0.9380721499042697,0.8184673926767279,0.7932230753907847,0.8740269821191812,0.7690740513508868,0.8602449067926052,1.072021702429893,0.843992402560238,0.888303998010041,1.0361137791697126,0.8728440700904943,0.8815337772617606,0.9364076601961139,0.8484346971515758,0.757993047095016,1.0449767000788122,0.6951608338023837,0.8463261617283778,0.9418680912829536,0.9170090633000993,0.7609654770620897,0.8395882653594431,0.9102439780707128,0.775789345269985,0.7394407178911659,0.9538071125500374,0.864523431241511,0.6993639682817847,0.8476905827249177,0.8870552500027625,0.8552891488738963,0.9140397154425712,0.9147529682698065,0.9149015161101643,0.955032103407529,0.7636150460819484,0.7439148342386845,0.973651211559249,0.7589892566866762,0.8540757787723021,0.9505867332941675,0.677130405065445,1.0011137949767357,0.8718829191051255,0.7883430499205565,0.8463657743702937,0.695585363742208,0.7967174014807885,0.9586120281158239,0.7496121934108989,0.8603150962929981,0.8163508144910664,0.8790635834151412,0.8918862762698263,0.925425649353768,0.744524136968575,0.9566408621555738,0.7950578988793988,0.8852956176342375,0.9434286487576976,0.8514430229925743,0.9512090339538352,0.8026869653213599,0.7463328493859782,0.8976206161255182,0.769957517603314,0.6675038980075149,0.9857359965294795,0.7400143473250544,0.9382194797830409,0.7716691682723841,0.8918431900765778,0.9263357130215215,0.8782215984595187,0.7654265791153255,0.9400752052544472,0.8692212857486499,0.8750302361859528,0.7740027913541039,0.7187250410318818,0.9892971658738343,0.7939550792948912,0.8435173762923028,1.0061024664669396,0.7937867868591006,0.711312174704806,0.9088447438277802,0.7693286970182589,0.7623919540810072,0.9277391822348025,0.8364434748353067,0.8625573261610782,1.0589658811261,0.7729789051694751,0.8846081335443461,0.9901264442991043,0.855010575238435,0.6774455932035484,0.8865733331721931,0.7320727657822694,0.7868226456508428,0.7748294873516623,0.7734313517193544,0.9190540911820613,0.7828528663448925,0.7038391181476785,0.9142333513446197,0.7774821064883658,0.8127375619200174,0.9822367474027467,0.7629801289092231,0.91299004356756,0.7164782980520248,0.6694056224907459,0.9161919524613626,0.8109070767497633,0.7358724694115789,0.8676934732178975,0.7749140217336368,0.8243135892494385,0.8390187089949077,0.8191192231522718,0.8773080083414586,0.940789894641259,0.8696167281337681,0.8431349150593593,0.8618153960920947,0.8062985963814409,0.718273945523732,0.8248880228297983,0.7915637887536909,0.7492809096210976,1.002934468147984,0.7403274206341215,0.7591065950868963,0.9024124214195766,0.7704600238031846,0.8768277630242578,0.8551066357940013,0.8379527376112513,0.8815365821929021,0.8485421362286305,0.7667754686529263,1.0466845314105373,0.866868941161697,0.7228206661271788,0.8491340954379701,0.8651196698049004,0.898312195270712,0.7489190791529451,0.8466807908462815,0.822192029335286,0.779713578006468,0.8352550455680754,0.9297607673165355,0.6940755802576319,0.8136827143938078,0.8168490626359772,0.7906857081169293,0.953679797718405,0.8148076277348323,0.7451868234478453,0.8738836048989523,0.7819406378172753,0.870564886841711,0.8306835458362197,0.692910139800533,0.7651903703513248,0.6584465309726134,0.8767171608474484,0.8020143455662131,0.9147869770206621,0.967586612973594,0.796647989403009,0.9267336348017371,0.8211981174786359,0.8143334923931881,0.8853009839393269,0.848407546953211,0.9096736411088945,0.8405562723090866,0.8466912268933233,0.9118943939284903,0.9466725850749209,0.928136227099892,0.8378916579556176,0.8832243402079485,1.0624758889307202,0.28575025589494196,0.767931855950721,0.9068414930680035,0.8091915893703681,0.7822606389723115,0.9733862303597486,0.8634421801329399,0.8253561550759803,0.750014670728744,0.9825851903546213,0.9540441526737848,0.889770078815177,0.9341614190988519,0.9751861963399687,0.8572833458805439,0.8566099336741104,0.7788860129921185,0.8902694210459308,1.0159791280986126,0.8029402755559778,0.8540238582764788,1.0862473199584344,1.115715635205879,0.9807057453955168,0.8971826528069615,0.8992541277823277,0.8247373755410409,0.8257956909315413,0.9199610922805102,0.9121736548824806,0.8958498022773411,0.9962761843340474,0.8495744546029327,0.8126437549793719,0.7979209620271076,0.9676493525641943,0.8014891241673661,0.859784491810949,0.8299237542969795,0.76849119225279,0.8380873505320061,0.7657392602049606,0.8127817857315415,0.9140334793904212,0.8420735478303062,0.9430851628071842,1.0169986405796976,0.8319402336688386,0.788174093743113,0.9580270090706161,0.8531759220565225,1.0218673824173363,0.9903652665053544,0.7877168643965249,0.9283126305885852,0.9912617453707916,0.9836409718043299,0.8543903952581555,1.0578536288809912,0.8832134254614247,0.9577126644577513,0.9922101509412395,0.9415192141597352,0.8398632859033335,0.9555915522889818,0.8546537463104921,0.8514535920251355,1.0446783486480646,0.7556540511986896,1.0177716159445354,0.7142759438649947,0.838820670427492,1.0054127446247567,0.8654228808660523,0.7493529519693549,0.9455408042579938,0.8402703941776928,0.8151002989299534,0.9452478370847128,0.8685612088581736,0.9665588438432933,0.7777078189357246,0.7198334154470755,0.9540560846964502,0.8697909119190742,0.8634440333219677,0.9724033125820294,1.3476087280813505,1.013061461231439,0.8033370515267652,0.9816972877762834,0.8296289255093255,0.9569752966542885,0.9896872072508072,1.1629347488999275,1.0272153325458309,0.9661515216558243,2.2126972082127017,1.0100082473595804,0.765793123538899,0.7191892927652893,0.8523491139976054,0.8127622131101524,0.9303080615514372,0.7561346151696877,0.7611407951510032,0.8979509982986522,0.8790233561559698,0.8455620204041109,0.9658603346177886,0.7436815092606697,1.018934922136133,0.8316150441707382,0.8292927794663502,0.8803673328766086,0.9203771818149882,0.7451818680958323,0.7531194844387598,0.8632447950563759,0.9744052355049265,1.0305740265290482,0.7997840086211514,0.7268797890673837,0.7732162517694431,0.7452763659536183,0.7780418689434035,0.9055336055574349,0.9162568852290218,0.7656402015978222,0.7971577275712536,0.7441265992622642,0.900229836391079,0.7148844383172828,0.8276985371437343,1.0007051323102072,0.8300144390854105,0.8812392004792354,0.893729531646009,0.8319000266317164,0.8498203941199736,0.980872064132493,0.836052966047493,1.0380038407298136,0.7726214068756692,0.8228379015697037,0.9679907832551423,0.7855675880786687,1.1272131310950184,0.8641045670648413,0.7701828060756055,1.0554586643854105,0.8031218229528951,0.8471763554003087,1.0747259239906666,0.7695623003064525,0.9005451182468128,0.8822152963134606,0.9125564801406075,0.8295421302085106,0.9802545486391122,0.838574081964206,0.8464562078009121,0.7789154293620252,0.9606433856932874,1.0894520447129181,0.9332969105556252,0.9828309295450948,0.9161763326135328,0.7314882754594986,0.8764111897392192,0.9377755312117866,0.749466868016731,1.1497429565208057,0.900266915602313,1.2422308189857671,0.9404961163127656,0.7465168920174479,0.8501391384825128,1.0744830984232219,0.7269001687343392,0.9837006837869309,0.8375268069977053,0.9916920410575132,1.2181147437076407,0.9925780240619706,0.7155604712908303,1.1458949208259999,1.0253834281982372,0.9361232668826658,0.8010396468062418,0.9238141168073718,0.787533675833706,0.8756250124632001,0.7693164297437038,0.685089363222235,0.8222159567386832,0.6805945004579445,0.7983759580834233,1.2575254774839335,1.186516192041579,0.9190828317671383,0.7036365168828046,0.7419082688831073,0.8982662944321816,0.9798335899109077,0.8784742883712883,0.9165459540538593,0.8395362763142381,1.1676269127419536,0.8327496463642408,0.9771702348648051,0.9537248096928408,0.9402188087583493,0.9688957297319517,0.8777292910581969,0.7103526471794088,0.8025477424097671,0.733138614622582,0.8319797684399476,0.7507244705370532,0.8504098432946071,0.7071693780026551,0.8562448037601547,0.7215084204989314,1.0395815997891256,0.9755130275118467,0.7795156631216327,0.7315598052798028,0.9514044829462207,0.8030726855212926,0.768612593598496,1.0870214303630616,0.7544267180623548,0.8798617483187083,0.8992603643677536,0.8821159976613344,0.8076313010398952,0.9170948808919113,0.8100047028440629,0.8277457863040374,0.8698161078798363,0.8264500228680951,0.8687803488745199,0.9176511241578407,1.104682237208765,0.8283759462084315,0.844441480542879,0.8230695609065377,0.8069868659145112,0.8460956981391778,0.88175885226313,0.7423091946963319,0.9109170097269916,0.8256858847554751,0.7638367163222878,0.6919635790318217,0.8749227494682124,0.8284983498148634,0.9154907533770471,0.8212562235267528,0.9620291203641271,0.9338915423130755,0.9074591108201859,0.8784539158811123,0.6702376164560507,0.8164983549530586,0.9879877561278065,0.8865866128190115,0.8132200592927282,0.8433114230747141,0.8846795543938545,0.9312856277192385,0.8449112580543591,0.8732971861499798,0.7961205720095059,1.0585483354381335,0.8033391343944167,0.8221450856579232,0.8785346460647468,0.9088362373114719,0.8023898001592059,0.8284853615146197,0.8585320392193834,0.872575936286324,0.8739546855482949,1.0008067392848936,0.7330248416470958,0.8096413010718818,0.8676301988702806,0.7494041497666352,0.7718873827811483,0.9574012302776819,0.8545376449592318,0.8710340988516863,1.0814479380681505,0.7197036386603309,0.9544569695122582,0.9081520667825896,1.463198847568488,0.8571285924842793,0.9680390499040941,0.9136340595218808,0.855357123326698,0.7978297896445177,0.8273274283817691,0.8727419343376507,0.8777215937654929,0.8506527421215943,0.9804732733360161,0.824080672911588,0.8498308851129481,1.1707041151302704,0.8728362268877657,0.8438481931107331,0.9522310339673531,0.8848484869137402,0.8774593383924132,0.7827970944199535,0.8604261532510247,1.3263919001007902,0.7827130915566066,0.914712799348978,0.8175793741561252,0.7885495541450923,0.9036121239390575,0.9727986315826075,0.9031362811280335,0.9723222375829296,0.8623630528317341,0.7928304189633163,0.9752091520338424,0.9316337535846816,0.9007474033281442,1.2534644885332058,0.7933513831216343,0.792992983468131,1.0292823408010447,0.6352064454799059,0.9715350534273416,1.0019179576066881,0.8771138496049735,0.921970585632707,1.2012395909782094,0.7892206262012913,0.7917883759337475,0.8837802149727582,0.8487015608370798,0.8952539886169434,1.1783068903530987,0.9345319358744377,1.788478365728192,0.9156590884397084,0.8752152534894242,0.7698016000895668,0.7827485512736794,1.0517125041401894,0.6742827971139586,1.0590686689636506,0.8243100046356635,0.7282205124320926,0.9319865982863866,0.8190158409253243,1.1775505529073542,1.1104745475161029,0.9192181154118131,0.936903779107959,1.041107127259013,0.8806992908810645,1.2967872699998468,0.8509510771313877,0.903042765265875,0.9133264198283545,0.8627536881918585,0.7432080882764238,0.9203705498333057,0.9526480496082858,0.8799216076825486,0.8017152694519116,0.8877680806961051,0.8995829993434747,1.0358890177105213,0.942082743257787,0.8781384550522819,1.048980736161219,0.9401270060627656,0.7731057593271266,0.852809926651327,1.0354053559363554,0.7885248478593003,0.8280112040440347,0.8811826604160025,0.823696409471111,1.0411486491321915,1.0370802727465636,0.8924789438792438,0.7444129650440486,0.8445263987229011,0.7878575948286957,0.7804508582907052,0.6442035964501759,0.8277968089542679,0.7678733750529744,0.7408168427018451,0.7837441587058964,0.7638791092649003,0.8108128525426681,0.9548352335036793,0.8032387267054564,1.1819150878032887,0.9838200091525616,0.8734527007134857,0.9294076696035836,0.9676094737504599,0.9190936574194709,0.8726712681373571,0.8685781877209949,0.9048887676121805,0.7804685178369629,0.8301854382414593,0.968237593205755,0.8066176517899397,0.9948154658804533,0.9078595545263461,0.8933112354136434,0.8774685382370303,0.8572452905429787,0.8272846339712963,0.8414648618248888,0.8503852869209055,0.7983977587965466,0.9845591890470968,0.7693298870891241,0.8484233335090255,0.8578848366210396,0.7307548520441497,0.9061517796202678,0.8169677649035644,0.7974295626794121,0.7965195543943121,0.6753896474771803,0.9079056768348385,0.7853481087388381,0.7491432944784251,0.8763146863120068,0.8000189861222372,0.5908838106826204,0.8125805628629272,0.8068645265221701,0.7115327139796517,0.7946265323621636,0.7964824100038537,0.7657321719518466,0.8657090814781735,0.7843168287040253,0.8325709542161699,1.148099831661016,0.7945567484291985,0.8181112340111213,0.7285170899451932,0.7108303145665419,0.8155207963392435,0.9206122665139127,0.7743224750168132,0.9979542390662509,0.7555113616585604,0.8110038415877997,0.936704257547302,0.7604941491288881,0.8216759059889817,0.8980504289541904,0.7796213572788488,0.7117370165149066,0.9317480502458793,0.8016930688240493,0.8597105088152358,0.821702382727824,0.7437885712649692,0.8012096533697692,0.8774721975464144,0.8431626523057575,0.8434284055239554,0.89458345505293,0.7052040766442866,0.8889187906291114,0.7665400000772907,0.8040888638793695,0.7497079020418831,1.0211177609288031,0.7395399665934217,0.9001599037493059,0.8812285923217664,0.7369984740180201,0.7806912910447419,0.8788959531027618,0.7495982520863443,0.9710212315862063,0.8567762782228506,0.8481318077512392,0.9532803923290784,0.9188627663421474,0.8621254835125748,0.7741976367992217,0.9462082098434228,0.7577816676628637,0.7433921729746894,0.9435511544434377,0.8181259610590123,0.7440616108866047,0.8329396744068079,0.8547122987530289,0.779717609960026,0.7220868942103914,0.8818353386366509,0.7704344354210255,0.7138990125942456,0.892369897283717,0.7678671960949313,0.8746998102959231,0.7396177880036118,0.8333019773005194,0.8374842050329896,0.9949628897902485,0.8012029765975299,1.2798533899497873,0.8045158948039631,0.8519145989233173,1.1972391152116597,0.9672229550757899,0.8079841991118355,0.9496764125459898,0.7949704616140814,0.9135761246513129,0.8130947878908364,0.8909817125619892,0.7366979958854473,0.9085057979384008,1.0774737216984431,0.7970833855972993,0.7776959275178137,0.9347675389434028,0.8290337363746949,0.924753118021111,1.0328946042531368,0.839147923952076,0.9268538535569477,0.8231518084056412,0.7407481221051075,0.8615718423899964,1.0019648165259558,0.8984084706112235,0.8359520517506127,1.0221956231679732,0.8012538607132048,1.009964692660116,0.8657095220771194,0.7614559925628465,0.956987414838411,1.0937053342435477,0.8435227077639532,0.952156088435659,0.8319062464949067,0.8548242451263667,0.8557805650380914,1.0061832958664807,0.7907707188310786,1.3056727437707418,1.0809381472678277,0.8143718633695889,0.8149046309597822,0.9925273895685923,0.8924113084288051,1.3139058800799164,0.8362375281426218,0.8208304951833552,0.7054311618257786,1.1194558667196488,0.9389866575224086,1.0040707371931141,1.2995100401155255,0.7744431835752176,0.7996864258504345,1.0726383040105592,0.8811286788727046,1.0680294946535378,1.0187862284488673,0.7359034863025268,1.1111527201970042,0.8314965182143524,0.6405178451909284,1.3360733739762962,1.1066262599641588,0.8440346686899683,1.0824459343233783,0.8253995096331701,0.9331697148068887,0.8468917860507416,0.789988419263022,0.7702228251036528,0.832193931882432,0.7490375437216101,0.7779444806278082,0.878873996984951,0.6409447880132109,0.9170983126910244,1.0169777644175648,0.8653543599571377,0.8020236958004651,1.3379957247371002,0.699055823614062,0.8901677382769868,1.5728565939181804,0.8918454344082718,1.1118468232921856,0.8185783091917584,0.9586511975162106,0.944916055330276,1.0779838265751402,0.8092611667961725,0.9360910923108818,0.9399351607027812,1.078580747451941,1.2113865437400697,1.0023259437154053,0.9063677092549562,0.9371818772338594,0.9532607912795412,0.9133433986450243,1.0068175931170238,0.9110859659541686,0.9682273721770961,0.9377968986475764,0.8932604311824992,0.8175648446492797,0.9848101083870148,1.0379291441565006,0.8916759673367458,0.9379435142982868,1.1003450696583579,0.8704682350515579,0.9770219481184469,1.0471394666715017,0.9097406012008943,0.8077448730997353,0.8807689152285731,0.8815880034476509,0.7924426085011772,0.8727139721190988,0.8646509419596722,0.8978292116139194,1.051179200603123,0.9716818794618627,0.8121184700669801,0.9006752674937005,0.8418394236357599,0.9552019225537755,0.9476484343783943,0.8175013233602015,0.8798752413981408,1.0330590610895658,0.716088968256539,0.8552737089577791,0.8891926563843476,0.7684346663170427,0.9390973297753792,0.8561212931687596,0.8817801131857054,0.8740186956912257,1.0020369984159465,0.7349050273487431,0.8340507470958225,0.8704463718215659,0.994743977888518,0.768376045020672,0.987525666502414,1.4548323931012936,0.8093001832819434,0.8878153095472003,1.0526264032576595,0.9289092447211378,0.9569320498380177,0.9240812386960507,0.9328131380195558,0.8658465971641384,1.1848818577781475,0.8572266695050553,0.6660758045629425,0.9264447226447743,0.9244868096581992,0.8884117113712278,1.165644794486309,0.9473596788706115,0.8845657020096388,0.9563477209516521,0.8491705338444233,0.9158615425609353,0.9366070312307572,0.8911942993029853,0.7953988574112252,0.8116873957810641,0.9728389593180511,0.8344876962735671,0.8073041325892243,0.7294912080751055,1.528193287059817,0.7118219181174114,1.3725889555570385,0.8636835899374642,0.7009316307670026,0.8271834904536947,0.9901646064298346,0.9245645904342175,0.9786302300015418,1.148311223329616,0.7251977731217425,0.906793844234909,0.9809738999966717,0.8200598278496078,1.0168094638087108,0.8323472923046128,0.7891439105095981,0.9656865699606284,0.8905100379207542,0.821838638044962,0.7480331991163205,0.9254588940778606,0.7615238518494594,0.9409119089012021,0.8664817019083325,0.649308147116921,0.9608510690736286,0.9608524668578328,0.7978162030834511,0.9382925227162723,0.8888488280074603,0.9099811100231782,0.8269405539026984,0.9607334319912564,0.9342262709413133,0.7483471661620286,0.8619537243923199,0.7897089143229981,0.9352138468648895,0.8814046633980548,0.9433026302543839,0.7328834362871722,0.8338350697162983,0.9198751700522498,0.7693736801992539,1.0093641178234405,0.9652260533211751,0.9340769767411705,0.939624985830289,0.6647111481862344,0.8892009065918598,1.0739015812688313,0.8927127806534191,0.8690142690070309,0.9832953510805259,0.8538201163027233,0.8111645464414668,1.0403761057746055,0.75173582823742,0.82896848190064,1.1286274935711653,0.9248318154583405,0.8836745780502853,0.8512521422143363,0.8077764835587612,0.7294576755291101,0.9419772234287692,0.8998689710287421,1.1397647984477632,1.0545968234452445,0.8165416788036877,1.3353272995401089,0.8694109467940718,0.8884153482977531,0.7152141435505335,0.9900509936781101,0.7697821857890291,0.7996081384781756,0.8430876619311051,0.9491921135110644,0.9280246383695966,0.8810542199367906,0.683024457060118,1.118821037231241,0.8616663056844895,0.8413284006452839
4,-306984.3915272945,,,,,,,,,,,,,,,,,,,,,,,,,,,,,,,,,,,,,,,,,,,,,,,,,,,,,,,,,,,,,,,,,,,,,,,,,,,,,,,,,,,,,,,,,,,,,,,,,,,,,,,,,,,,,,,,,,,,,,,,,,,,,,,,,,,,,,,,,,,,,,,,,,,,,,,,,,,,,,,,,,,,,,,,,,,,,,,,,,,,,,,,,,,,,,,,,,,,,,,,,,,,,,,,,,,,,,,,,,,,,,,,,,,,,,,,,,,,,,,,,,,,,,,,,,,,,,,,,,,,,,,,,,,,,,,,,,,,,,,,,,,,,,,,,,,,,,,,,,,,,,,,,,,,,,,,,,,,,,,,,,,,,,,,,,,,,,,,,,,,,,,,,,,,,,,,,,,,,,,,,,,,,,,,,,,,,,,,,,,,,,,,,,,,,,,,,,,,,,,,,,,,,,,,,,,,,,,,,,,,,,,,,,,,,,,,,,,,,,,,,,,,,,,,,,,,,,,,,,,,,,,,,,,,,,,,,,,,,,,,,,,,,,,,,,,,,,,,,,,,,,,,,,,,,,,,,,,,,,,,,,,,,,,,,,,,,,,,,,,,,,,,,,,,,,,,,,,,,,,,,,,,,,,,,,,,,,,,,,,,,,,,,,,,,,,,,,,,,,,,,,,,,,,,,,,,,,,,,,,,,,,,,,,,,,,,,,,,,,,,,,,,,,,,,,,,,,,,,,,,,,,,,,,,,,,,,,,,,,,,,,,,,,,,,,,,,,,,,,,,,,,,,,,,,,,,,,,,,,,,,,,,,,,,,,,,,,,,,,,,,,,,,,,,,,,,,,,,,,,,,,,,,,,,,,,,,,,,,,,,,,,,,,,,,,,,,,,,,,,,,,,,,,,,,,,,,,,,,,,,,,,,,,,,,,,,,,,,,,,,,,,,,,,,,,,,,,,,,,,,,,,,,,,,,,,,,,,,,,,,,,,,,,,,,,,,,,,,,,,,,,,,,,,,,,,,,,,,,,,,,,,,,,,,,,,,,,,,,,,,,,,,,,,,,,,,,,,,,,,,,,,,,,,,,,,,,,,,,,,,,,,,,,,,,,,,,,,,,,,,,,,,,,,,,,,,,,,,,,,,,,,,,,,,,,,,,,,,,,,,,,,,,,,,,,,,,,,,,
5,122.47925589524117,,,,,,,,,,,,,,,,,,,,,,,,,,,,,,,,,,,,,,,,,,,,,,,,,,,,,,,,,,,,,,,,,,,,,,,,,,,,,,,,,,,,,,,,,,,,,,,,,,,,,,,,,,,,,,,,,,,,,,,,,,,,,,,,,,,,,,,,,,,,,,,,,,,,,,,,,,,,,,,,,,,,,,,,,,,,,,,,,,,,,,,,,,,,,,,,,,,,,,,,,,,,,,,,,,,,,,,,,,,,,,,,,,,,,,,,,,,,,,,,,,,,,,,,,,,,,,,,,,,,,,,,,,,,,,,,,,,,,,,,,,,,,,,,,,,,,,,,,,,,,,,,,,,,,,,,,,,,,,,,,,,,,,,,,,,,,,,,,,,,,,,,,,,,,,,,,,,,,,,,,,,,,,,,,,,,,,,,,,,,,,,,,,,,,,,,,,,,,,,,,,,,,,,,,,,,,,,,,,,,,,,,,,,,,,,,,,,,,,,,,,,,,,,,,,,,,,,,,,,,,,,,,,,,,,,,,,,,,,,,,,,,,,,,,,,,,,,,,,,,,,,,,,,,,,,,,,,,,,,,,,,,,,,,,,,,,,,,,,,,,,,,,,,,,,,,,,,,,,,,,,,,,,,,,,,,,,,,,,,,,,,,,,,,,,,,,,,,,,,,,,,,,,,,,,,,,,,,,,,,,,,,,,,,,,,,,,,,,,,,,,,,,,,,,,,,,,,,,,,,,,,,,,,,,,,,,,,,,,,,,,,,,,,,,,,,,,,,,,,,,,,,,,,,,,,,,,,,,,,,,,,,,,,,,,,,,,,,,,,,,,,,,,,,,,,,,,,,,,,,,,,,,,,,,,,,,,,,,,,,,,,,,,,,,,,,,,,,,,,,,,,,,,,,,,,,,,,,,,,,,,,,,,,,,,,,,,,,,,,,,,,,,,,,,,,,,,,,,,,,,,,,,,,,,,,,,,,,,,,,,,,,,,,,,,,,,,,,,,,,,,,,,,,,,,,,,,,,,,,,,,,,,,,,,,,,,,,,,,,,,,,,,,,,,,,,,,,,,,,,,,,,,,,,,,,,,,,,,,,,,,,,,,,,,,,,,,,,,,,,,,,,,,,,,,,,,,,,,,,,,,,,,,,,,,,,,,,,,,,,,,,,,,,,,,,,,,,,,
6,-0.0016362841089493589,,,,,,,,,,,,,,,,,,,,,,,,,,,,,,,,,,,,,,,,,,,,,,,,,,,,,,,,,,,,,,,,,,,,,,,,,,,,,,,,,,,,,,,,,,,,,,,,,,,,,,,,,,,,,,,,,,,,,,,,,,,,,,,,,,,,,,,,,,,,,,,,,,,,,,,,,,,,,,,,,,,,,,,,,,,,,,,,,,,,,,,,,,,,,,,,,,,,,,,,,,,,,,,,,,,,,,,,,,,,,,,,,,,,,,,,,,,,,,,,,,,,,,,,,,,,,,,,,,,,,,,,,,,,,,,,,,,,,,,,,,,,,,,,,,,,,,,,,,,,,,,,,,,,,,,,,,,,,,,,,,,,,,,,,,,,,,,,,,,,,,,,,,,,,,,,,,,,,,,,,,,,,,,,,,,,,,,,,,,,,,,,,,,,,,,,,,,,,,,,,,,,,,,,,,,,,,,,,,,,,,,,,,,,,,,,,,,,,,,,,,,,,,,,,,,,,,,,,,,,,,,,,,,,,,,,,,,,,,,,,,,,,,,,,,,,,,,,,,,,,,,,,,,,,,,,,,,,,,,,,,,,,,,,,,,,,,,,,,,,,,,,,,,,,,,,,,,,,,,,,,,,,,,,,,,,,,,,,,,,,,,,,,,,,,,,,,,,,,,,,,,,,,,,,,,,,,,,,,,,,,,,,,,,,,,,,,,,,,,,,,,,,,,,,,,,,,,,,,,,,,,,,,,,,,,,,,,,,,,,,,,,,,,,,,,,,,,,,,,,,,,,,,,,,,,,,,,,,,,,,,,,,,,,,,,,,,,,,,,,,,,,,,,,,,,,,,,,,,,,,,,,,,,,,,,,,,,,,,,,,,,,,,,,,,,,,,,,,,,,,,,,,,,,,,,,,,,,,,,,,,,,,,,,,,,,,,,,,,,,,,,,,,,,,,,,,,,,,,,,,,,,,,,,,,,,,,,,,,,,,,,,,,,,,,,,,,,,,,,,,,,,,,,,,,,,,,,,,,,,,,,,,,,,,,,,,,,,,,,,,,,,,,,,,,,,,,,,,,,,,,,,,,,,,,,,,,,,,,,,,,,,,,,,,,,,,,,,,,,,,,,,,,,,,,,,,,,,,,,,,,,,,,,,,,,,,,,,,,,,,,,,,,,,,,,,,,,,,
7,0.0004745878210037298,,,,,,,,,,,,,,,,,,,,,,,,,,,,,,,,,,,,,,,,,,,,,,,,,,,,,,,,,,,,,,,,,,,,,,,,,,,,,,,,,,,,,,,,,,,,,,,,,,,,,,,,,,,,,,,,,,,,,,,,,,,,,,,,,,,,,,,,,,,,,,,,,,,,,,,,,,,,,,,,,,,,,,,,,,,,,,,,,,,,,,,,,,,,,,,,,,,,,,,,,,,,,,,,,,,,,,,,,,,,,,,,,,,,,,,,,,,,,,,,,,,,,,,,,,,,,,,,,,,,,,,,,,,,,,,,,,,,,,,,,,,,,,,,,,,,,,,,,,,,,,,,,,,,,,,,,,,,,,,,,,,,,,,,,,,,,,,,,,,,,,,,,,,,,,,,,,,,,,,,,,,,,,,,,,,,,,,,,,,,,,,,,,,,,,,,,,,,,,,,,,,,,,,,,,,,,,,,,,,,,,,,,,,,,,,,,,,,,,,,,,,,,,,,,,,,,,,,,,,,,,,,,,,,,,,,,,,,,,,,,,,,,,,,,,,,,,,,,,,,,,,,,,,,,,,,,,,,,,,,,,,,,,,,,,,,,,,,,,,,,,,,,,,,,,,,,,,,,,,,,,,,,,,,,,,,,,,,,,,,,,,,,,,,,,,,,,,,,,,,,,,,,,,,,,,,,,,,,,,,,,,,,,,,,,,,,,,,,,,,,,,,,,,,,,,,,,,,,,,,,,,,,,,,,,,,,,,,,,,,,,,,,,,,,,,,,,,,,,,,,,,,,,,,,,,,,,,,,,,,,,,,,,,,,,,,,,,,,,,,,,,,,,,,,,,,,,,,,,,,,,,,,,,,,,,,,,,,,,,,,,,,,,,,,,,,,,,,,,,,,,,,,,,,,,,,,,,,,,,,,,,,,,,,,,,,,,,,,,,,,,,,,,,,,,,,,,,,,,,,,,,,,,,,,,,,,,,,,,,,,,,,,,,,,,,,,,,,,,,,,,,,,,,,,,,,,,,,,,,,,,,,,,,,,,,,,,,,,,,,,,,,,,,,,,,,,,,,,,,,,,,,,,,,,,,,,,,,,,,,,,,,,,,,,,,,,,,,,,,,,,,,,,,,,,,,,,,,,,,,,,,,,,,,,,,,,,,,,,,,,,,,,,,,,,,,,,,,,
8,291397.7365987022,,,,,,,,,,,,,,,,,,,,,,,,,,,,,,,,,,,,,,,,,,,,,,,,,,,,,,,,,,,,,,,,,,,,,,,,,,,,,,,,,,,,,,,,,,,,,,,,,,,,,,,,,,,,,,,,,,,,,,,,,,,,,,,,,,,,,,,,,,,,,,,,,,,,,,,,,,,,,,,,,,,,,,,,,,,,,,,,,,,,,,,,,,,,,,,,,,,,,,,,,,,,,,,,,,,,,,,,,,,,,,,,,,,,,,,,,,,,,,,,,,,,,,,,,,,,,,,,,,,,,,,,,,,,,,,,,,,,,,,,,,,,,,,,,,,,,,,,,,,,,,,,,,,,,,,,,,,,,,,,,,,,,,,,,,,,,,,,,,,,,,,,,,,,,,,,,,,,,,,,,,,,,,,,,,,,,,,,,,,,,,,,,,,,,,,,,,,,,,,,,,,,,,,,,,,,,,,,,,,,,,,,,,,,,,,,,,,,,,,,,,,,,,,,,,,,,,,,,,,,,,,,,,,,,,,,,,,,,,,,,,,,,,,,,,,,,,,,,,,,,,,,,,,,,,,,,,,,,,,,,,,,,,,,,,,,,,,,,,,,,,,,,,,,,,,,,,,,,,,,,,,,,,,,,,,,,,,,,,,,,,,,,,,,,,,,,,,,,,,,,,,,,,,,,,,,,,,,,,,,,,,,,,,,,,,,,,,,,,,,,,,,,,,,,,,,,,,,,,,,,,,,,,,,,,,,,,,,,,,,,,,,,,,,,,,,,,,,,,,,,,,,,,,,,,,,,,,,,,,,,,,,,,,,,,,,,,,,,,,,,,,,,,,,,,,,,,,,,,,,,,,,,,,,,,,,,,,,,,,,,,,,,,,,,,,,,,,,,,,,,,,,,,,,,,,,,,,,,,,,,,,,,,,,,,,,,,,,,,,,,,,,,,,,,,,,,,,,,,,,,,,,,,,,,,,,,,,,,,,,,,,,,,,,,,,,,,,,,,,,,,,,,,,,,,,,,,,,,,,,,,,,,,,,,,,,,,,,,,,,,,,,,,,,,,,,,,,,,,,,,,,,,,,,,,,,,,,,,,,,,,,,,,,,,,,,,,,,,,,,,,,,,,,,,,,,,,,,,,,,,,,,,,,,,,,,,,,,,,,,,,,,,,,,,,,,,,,,,
9,116.95772984325818,,,,,,,,,,,,,,,,,,,,,,,,,,,,,,,,,,,,,,,,,,,,,,,,,,,,,,,,,,,,,,,,,,,,,,,,,,,,,,,,,,,,,,,,,,,,,,,,,,,,,,,,,,,,,,,,,,,,,,,,,,,,,,,,,,,,,,,,,,,,,,,,,,,,,,,,,,,,,,,,,,,,,,,,,,,,,,,,,,,,,,,,,,,,,,,,,,,,,,,,,,,,,,,,,,,,,,,,,,,,,,,,,,,,,,,,,,,,,,,,,,,,,,,,,,,,,,,,,,,,,,,,,,,,,,,,,,,,,,,,,,,,,,,,,,,,,,,,,,,,,,,,,,,,,,,,,,,,,,,,,,,,,,,,,,,,,,,,,,,,,,,,,,,,,,,,,,,,,,,,,,,,,,,,,,,,,,,,,,,,,,,,,,,,,,,,,,,,,,,,,,,,,,,,,,,,,,,,,,,,,,,,,,,,,,,,,,,,,,,,,,,,,,,,,,,,,,,,,,,,,,,,,,,,,,,,,,,,,,,,,,,,,,,,,,,,,,,,,,,,,,,,,,,,,,,,,,,,,,,,,,,,,,,,,,,,,,,,,,,,,,,,,,,,,,,,,,,,,,,,,,,,,,,,,,,,,,,,,,,,,,,,,,,,,,,,,,,,,,,,,,,,,,,,,,,,,,,,,,,,,,,,,,,,,,,,,,,,,,,,,,,,,,,,,,,,,,,,,,,,,,,,,,,,,,,,,,,,,,,,,,,,,,,,,,,,,,,,,,,,,,,,,,,,,,,,,,,,,,,,,,,,,,,,,,,,,,,,,,,,,,,,,,,,,,,,,,,,,,,,,,,,,,,,,,,,,,,,,,,,,,,,,,,,,,,,,,,,,,,,,,,,,,,,,,,,,,,,,,,,,,,,,,,,,,,,,,,,,,,,,,,,,,,,,,,,,,,,,,,,,,,,,,,,,,,,,,,,,,,,,,,,,,,,,,,,,,,,,,,,,,,,,,,,,,,,,,,,,,,,,,,,,,,,,,,,,,,,,,,,,,,,,,,,,,,,,,,,,,,,,,,,,,,,,,,,,,,,,,,,,,,,,,,,,,,,,,,,,,,,,,,,,,,,,,,,,,,,,,,,,,,,,,,,,,,,,,,,,,,,,,,,,,,,,,,,,,,,,
10,-0.0014648504727295668,,,,,,,,,,,,,,,,,,,,,,,,,,,,,,,,,,,,,,,,,,,,,,,,,,,,,,,,,,,,,,,,,,,,,,,,,,,,,,,,,,,,,,,,,,,,,,,,,,,,,,,,,,,,,,,,,,,,,,,,,,,,,,,,,,,,,,,,,,,,,,,,,,,,,,,,,,,,,,,,,,,,,,,,,,,,,,,,,,,,,,,,,,,,,,,,,,,,,,,,,,,,,,,,,,,,,,,,,,,,,,,,,,,,,,,,,,,,,,,,,,,,,,,,,,,,,,,,,,,,,,,,,,,,,,,,,,,,,,,,,,,,,,,,,,,,,,,,,,,,,,,,,,,,,,,,,,,,,,,,,,,,,,,,,,,,,,,,,,,,,,,,,,,,,,,,,,,,,,,,,,,,,,,,,,,,,,,,,,,,,,,,,,,,,,,,,,,,,,,,,,,,,,,,,,,,,,,,,,,,,,,,,,,,,,,,,,,,,,,,,,,,,,,,,,,,,,,,,,,,,,,,,,,,,,,,,,,,,,,,,,,,,,,,,,,,,,,,,,,,,,,,,,,,,,,,,,,,,,,,,,,,,,,,,,,,,,,,,,,,,,,,,,,,,,,,,,,,,,,,,,,,,,,,,,,,,,,,,,,,,,,,,,,,,,,,,,,,,,,,,,,,,,,,,,,,,,,,,,,,,,,,,,,,,,,,,,,,,,,,,,,,,,,,,,,,,,,,,,,,,,,,,,,,,,,,,,,,,,,,,,,,,,,,,,,,,,,,,,,,,,,,,,,,,,,,,,,,,,,,,,,,,,,,,,,,,,,,,,,,,,,,,,,,,,,,,,,,,,,,,,,,,,,,,,,,,,,,,,,,,,,,,,,,,,,,,,,,,,,,,,,,,,,,,,,,,,,,,,,,,,,,,,,,,,,,,,,,,,,,,,,,,,,,,,,,,,,,,,,,,,,,,,,,,,,,,,,,,,,,,,,,,,,,,,,,,,,,,,,,,,,,,,,,,,,,,,,,,,,,,,,,,,,,,,,,,,,,,,,,,,,,,,,,,,,,,,,,,,,,,,,,,,,,,,,,,,,,,,,,,,,,,,,,,,,,,,,,,,,,,,,,,,,,,,,,,,,,,,,,,,,,,,,,,,,,,,,,,,,,,,,,,,,,,,,,,,,,,
11,0.02330970521031962,,,,,,,,,,,,,,,,,,,,,,,,,,,,,,,,,,,,,,,,,,,,,,,,,,,,,,,,,,,,,,,,,,,,,,,,,,,,,,,,,,,,,,,,,,,,,,,,,,,,,,,,,,,,,,,,,,,,,,,,,,,,,,,,,,,,,,,,,,,,,,,,,,,,,,,,,,,,,,,,,,,,,,,,,,,,,,,,,,,,,,,,,,,,,,,,,,,,,,,,,,,,,,,,,,,,,,,,,,,,,,,,,,,,,,,,,,,,,,,,,,,,,,,,,,,,,,,,,,,,,,,,,,,,,,,,,,,,,,,,,,,,,,,,,,,,,,,,,,,,,,,,,,,,,,,,,,,,,,,,,,,,,,,,,,,,,,,,,,,,,,,,,,,,,,,,,,,,,,,,,,,,,,,,,,,,,,,,,,,,,,,,,,,,,,,,,,,,,,,,,,,,,,,,,,,,,,,,,,,,,,,,,,,,,,,,,,,,,,,,,,,,,,,,,,,,,,,,,,,,,,,,,,,,,,,,,,,,,,,,,,,,,,,,,,,,,,,,,,,,,,,,,,,,,,,,,,,,,,,,,,,,,,,,,,,,,,,,,,,,,,,,,,,,,,,,,,,,,,,,,,,,,,,,,,,,,,,,,,,,,,,,,,,,,,,,,,,,,,,,,,,,,,,,,,,,,,,,,,,,,,,,,,,,,,,,,,,,,,,,,,,,,,,,,,,,,,,,,,,,,,,,,,,,,,,,,,,,,,,,,,,,,,,,,,,,,,,,,,,,,,,,,,,,,,,,,,,,,,,,,,,,,,,,,,,,,,,,,,,,,,,,,,,,,,,,,,,,,,,,,,,,,,,,,,,,,,,,,,,,,,,,,,,,,,,,,,,,,,,,,,,,,,,,,,,,,,,,,,,,,,,,,,,,,,,,,,,,,,,,,,,,,,,,,,,,,,,,,,,,,,,,,,,,,,,,,,,,,,,,,,,,,,,,,,,,,,,,,,,,,,,,,,,,,,,,,,,,,,,,,,,,,,,,,,,,,,,,,,,,,,,,,,,,,,,,,,,,,,,,,,,,,,,,,,,,,,,,,,,,,,,,,,,,,,,,,,,,,,,,,,,,,,,,,,,,,,,,,,,,,,,,,,,,,,,,,,,,,,,,,,,,,,,,,,,,,,,,,
12,16290.976129062889,,,,,,,,,,,,,,,,,,,,,,,,,,,,,,,,,,,,,,,,,,,,,,,,,,,,,,,,,,,,,,,,,,,,,,,,,,,,,,,,,,,,,,,,,,,,,,,,,,,,,,,,,,,,,,,,,,,,,,,,,,,,,,,,,,,,,,,,,,,,,,,,,,,,,,,,,,,,,,,,,,,,,,,,,,,,,,,,,,,,,,,,,,,,,,,,,,,,,,,,,,,,,,,,,,,,,,,,,,,,,,,,,,,,,,,,,,,,,,,,,,,,,,,,,,,,,,,,,,,,,,,,,,,,,,,,,,,,,,,,,,,,,,,,,,,,,,,,,,,,,,,,,,,,,,,,,,,,,,,,,,,,,,,,,,,,,,,,,,,,,,,,,,,,,,,,,,,,,,,,,,,,,,,,,,,,,,,,,,,,,,,,,,,,,,,,,,,,,,,,,,,,,,,,,,,,,,,,,,,,,,,,,,,,,,,,,,,,,,,,,,,,,,,,,,,,,,,,,,,,,,,,,,,,,,,,,,,,,,,,,,,,,,,,,,,,,,,,,,,,,,,,,,,,,,,,,,,,,,,,,,,,,,,,,,,,,,,,,,,,,,,,,,,,,,,,,,,,,,,,,,,,,,,,,,,,,,,,,,,,,,,,,,,,,,,,,,,,,,,,,,,,,,,,,,,,,,,,,,,,,,,,,,,,,,,,,,,,,,,,,,,,,,,,,,,,,,,,,,,,,,,,,,,,,,,,,,,,,,,,,,,,,,,,,,,,,,,,,,,,,,,,,,,,,,,,,,,,,,,,,,,,,,,,,,,,,,,,,,,,,,,,,,,,,,,,,,,,,,,,,,,,,,,,,,,,,,,,,,,,,,,,,,,,,,,,,,,,,,,,,,,,,,,,,,,,,,,,,,,,,,,,,,,,,,,,,,,,,,,,,,,,,,,,,,,,,,,,,,,,,,,,,,,,,,,,,,,,,,,,,,,,,,,,,,,,,,,,,,,,,,,,,,,,,,,,,,,,,,,,,,,,,,,,,,,,,,,,,,,,,,,,,,,,,,,,,,,,,,,,,,,,,,,,,,,,,,,,,,,,,,,,,,,,,,,,,,,,,,,,,,,,,,,,,,,,,,,,,,,,,,,,,,,,,,,,,,,,,,,,,,,,,,,,,,,,,,,,,
13,34.46866563521933,,,,,,,,,,,,,,,,,,,,,,,,,,,,,,,,,,,,,,,,,,,,,,,,,,,,,,,,,,,,,,,,,,,,,,,,,,,,,,,,,,,,,,,,,,,,,,,,,,,,,,,,,,,,,,,,,,,,,,,,,,,,,,,,,,,,,,,,,,,,,,,,,,,,,,,,,,,,,,,,,,,,,,,,,,,,,,,,,,,,,,,,,,,,,,,,,,,,,,,,,,,,,,,,,,,,,,,,,,,,,,,,,,,,,,,,,,,,,,,,,,,,,,,,,,,,,,,,,,,,,,,,,,,,,,,,,,,,,,,,,,,,,,,,,,,,,,,,,,,,,,,,,,,,,,,,,,,,,,,,,,,,,,,,,,,,,,,,,,,,,,,,,,,,,,,,,,,,,,,,,,,,,,,,,,,,,,,,,,,,,,,,,,,,,,,,,,,,,,,,,,,,,,,,,,,,,,,,,,,,,,,,,,,,,,,,,,,,,,,,,,,,,,,,,,,,,,,,,,,,,,,,,,,,,,,,,,,,,,,,,,,,,,,,,,,,,,,,,,,,,,,,,,,,,,,,,,,,,,,,,,,,,,,,,,,,,,,,,,,,,,,,,,,,,,,,,,,,,,,,,,,,,,,,,,,,,,,,,,,,,,,,,,,,,,,,,,,,,,,,,,,,,,,,,,,,,,,,,,,,,,,,,,,,,,,,,,,,,,,,,,,,,,,,,,,,,,,,,,,,,,,,,,,,,,,,,,,,,,,,,,,,,,,,,,,,,,,,,,,,,,,,,,,,,,,,,,,,,,,,,,,,,,,,,,,,,,,,,,,,,,,,,,,,,,,,,,,,,,,,,,,,,,,,,,,,,,,,,,,,,,,,,,,,,,,,,,,,,,,,,,,,,,,,,,,,,,,,,,,,,,,,,,,,,,,,,,,,,,,,,,,,,,,,,,,,,,,,,,,,,,,,,,,,,,,,,,,,,,,,,,,,,,,,,,,,,,,,,,,,,,,,,,,,,,,,,,,,,,,,,,,,,,,,,,,,,,,,,,,,,,,,,,,,,,,,,,,,,,,,,,,,,,,,,,,,,,,,,,,,,,,,,,,,,,,,,,,,,,,,,,,,,,,,,,,,,,,,,,,,,,,,,,,,,,,,,,,,,,,,,,,,,,,,,,,,,,,,,
14,-0.011073913601315079,,,,,,,,,,,,,,,,,,,,,,,,,,,,,,,,,,,,,,,,,,,,,,,,,,,,,,,,,,,,,,,,,,,,,,,,,,,,,,,,,,,,,,,,,,,,,,,,,,,,,,,,,,,,,,,,,,,,,,,,,,,,,,,,,,,,,,,,,,,,,,,,,,,,,,,,,,,,,,,,,,,,,,,,,,,,,,,,,,,,,,,,,,,,,,,,,,,,,,,,,,,,,,,,,,,,,,,,,,,,,,,,,,,,,,,,,,,,,,,,,,,,,,,,,,,,,,,,,,,,,,,,,,,,,,,,,,,,,,,,,,,,,,,,,,,,,,,,,,,,,,,,,,,,,,,,,,,,,,,,,,,,,,,,,,,,,,,,,,,,,,,,,,,,,,,,,,,,,,,,,,,,,,,,,,,,,,,,,,,,,,,,,,,,,,,,,,,,,,,,,,,,,,,,,,,,,,,,,,,,,,,,,,,,,,,,,,,,,,,,,,,,,,,,,,,,,,,,,,,,,,,,,,,,,,,,,,,,,,,,,,,,,,,,,,,,,,,,,,,,,,,,,,,,,,,,,,,,,,,,,,,,,,,,,,,,,,,,,,,,,,,,,,,,,,,,,,,,,,,,,,,,,,,,,,,,,,,,,,,,,,,,,,,,,,,,,,,,,,,,,,,,,,,,,,,,,,,,,,,,,,,,,,,,,,,,,,,,,,,,,,,,,,,,,,,,,,,,,,,,,,,,,,,,,,,,,,,,,,,,,,,,,,,,,,,,,,,,,,,,,,,,,,,,,,,,,,,,,,,,,,,,,,,,,,,,,,,,,,,,,,,,,,,,,,,,,,,,,,,,,,,,,,,,,,,,,,,,,,,,,,,,,,,,,,,,,,,,,,,,,,,,,,,,,,,,,,,,,,,,,,,,,,,,,,,,,,,,,,,,,,,,,,,,,,,,,,,,,,,,,,,,,,,,,,,,,,,,,,,,,,,,,,,,,,,,,,,,,,,,,,,,,,,,,,,,,,,,,,,,,,,,,,,,,,,,,,,,,,,,,,,,,,,,,,,,,,,,,,,,,,,,,,,,,,,,,,,,,,,,,,,,,,,,,,,,,,,,,,,,,,,,,,,,,,,,,,,,,,,,,,,,,,,,,,,,,,,,,,,,,,,,,,,,,,,,,,,,,
15,-3.341900777007312,,,,,,,,,,,,,,,,,,,,,,,,,,,,,,,,,,,,,,,,,,,,,,,,,,,,,,,,,,,,,,,,,,,,,,,,,,,,,,,,,,,,,,,,,,,,,,,,,,,,,,,,,,,,,,,,,,,,,,,,,,,,,,,,,,,,,,,,,,,,,,,,,,,,,,,,,,,,,,,,,,,,,,,,,,,,,,,,,,,,,,,,,,,,,,,,,,,,,,,,,,,,,,,,,,,,,,,,,,,,,,,,,,,,,,,,,,,,,,,,,,,,,,,,,,,,,,,,,,,,,,,,,,,,,,,,,,,,,,,,,,,,,,,,,,,,,,,,,,,,,,,,,,,,,,,,,,,,,,,,,,,,,,,,,,,,,,,,,,,,,,,,,,,,,,,,,,,,,,,,,,,,,,,,,,,,,,,,,,,,,,,,,,,,,,,,,,,,,,,,,,,,,,,,,,,,,,,,,,,,,,,,,,,,,,,,,,,,,,,,,,,,,,,,,,,,,,,,,,,,,,,,,,,,,,,,,,,,,,,,,,,,,,,,,,,,,,,,,,,,,,,,,,,,,,,,,,,,,,,,,,,,,,,,,,,,,,,,,,,,,,,,,,,,,,,,,,,,,,,,,,,,,,,,,,,,,,,,,,,,,,,,,,,,,,,,,,,,,,,,,,,,,,,,,,,,,,,,,,,,,,,,,,,,,,,,,,,,,,,,,,,,,,,,,,,,,,,,,,,,,,,,,,,,,,,,,,,,,,,,,,,,,,,,,,,,,,,,,,,,,,,,,,,,,,,,,,,,,,,,,,,,,,,,,,,,,,,,,,,,,,,,,,,,,,,,,,,,,,,,,,,,,,,,,,,,,,,,,,,,,,,,,,,,,,,,,,,,,,,,,,,,,,,,,,,,,,,,,,,,,,,,,,,,,,,,,,,,,,,,,,,,,,,,,,,,,,,,,,,,,,,,,,,,,,,,,,,,,,,,,,,,,,,,,,,,,,,,,,,,,,,,,,,,,,,,,,,,,,,,,,,,,,,,,,,,,,,,,,,,,,,,,,,,,,,,,,,,,,,,,,,,,,,,,,,,,,,,,,,,,,,,,,,,,,,,,,,,,,,,,,,,,,,,,,,,,,,,,,,,,,,,,,,,,,,,,,,,,,,,,,,,,,,,,,,,,,,,,
16,-15923.3346115997,,,,,,,,,,,,,,,,,,,,,,,,,,,,,,,,,,,,,,,,,,,,,,,,,,,,,,,,,,,,,,,,,,,,,,,,,,,,,,,,,,,,,,,,,,,,,,,,,,,,,,,,,,,,,,,,,,,,,,,,,,,,,,,,,,,,,,,,,,,,,,,,,,,,,,,,,,,,,,,,,,,,,,,,,,,,,,,,,,,,,,,,,,,,,,,,,,,,,,,,,,,,,,,,,,,,,,,,,,,,,,,,,,,,,,,,,,,,,,,,,,,,,,,,,,,,,,,,,,,,,,,,,,,,,,,,,,,,,,,,,,,,,,,,,,,,,,,,,,,,,,,,,,,,,,,,,,,,,,,,,,,,,,,,,,,,,,,,,,,,,,,,,,,,,,,,,,,,,,,,,,,,,,,,,,,,,,,,,,,,,,,,,,,,,,,,,,,,,,,,,,,,,,,,,,,,,,,,,,,,,,,,,,,,,,,,,,,,,,,,,,,,,,,,,,,,,,,,,,,,,,,,,,,,,,,,,,,,,,,,,,,,,,,,,,,,,,,,,,,,,,,,,,,,,,,,,,,,,,,,,,,,,,,,,,,,,,,,,,,,,,,,,,,,,,,,,,,,,,,,,,,,,,,,,,,,,,,,,,,,,,,,,,,,,,,,,,,,,,,,,,,,,,,,,,,,,,,,,,,,,,,,,,,,,,,,,,,,,,,,,,,,,,,,,,,,,,,,,,,,,,,,,,,,,,,,,,,,,,,,,,,,,,,,,,,,,,,,,,,,,,,,,,,,,,,,,,,,,,,,,,,,,,,,,,,,,,,,,,,,,,,,,,,,,,,,,,,,,,,,,,,,,,,,,,,,,,,,,,,,,,,,,,,,,,,,,,,,,,,,,,,,,,,,,,,,,,,,,,,,,,,,,,,,,,,,,,,,,,,,,,,,,,,,,,,,,,,,,,,,,,,,,,,,,,,,,,,,,,,,,,,,,,,,,,,,,,,,,,,,,,,,,,,,,,,,,,,,,,,,,,,,,,,,,,,,,,,,,,,,,,,,,,,,,,,,,,,,,,,,,,,,,,,,,,,,,,,,,,,,,,,,,,,,,,,,,,,,,,,,,,,,,,,,,,,,,,,,,,,,,,,,,,,,,,,,,,,,,,,,,,,,,,,,,,,,,,,,,
17,34.384848584698005,,,,,,,,,,,,,,,,,,,,,,,,,,,,,,,,,,,,,,,,,,,,,,,,,,,,,,,,,,,,,,,,,,,,,,,,,,,,,,,,,,,,,,,,,,,,,,,,,,,,,,,,,,,,,,,,,,,,,,,,,,,,,,,,,,,,,,,,,,,,,,,,,,,,,,,,,,,,,,,,,,,,,,,,,,,,,,,,,,,,,,,,,,,,,,,,,,,,,,,,,,,,,,,,,,,,,,,,,,,,,,,,,,,,,,,,,,,,,,,,,,,,,,,,,,,,,,,,,,,,,,,,,,,,,,,,,,,,,,,,,,,,,,,,,,,,,,,,,,,,,,,,,,,,,,,,,,,,,,,,,,,,,,,,,,,,,,,,,,,,,,,,,,,,,,,,,,,,,,,,,,,,,,,,,,,,,,,,,,,,,,,,,,,,,,,,,,,,,,,,,,,,,,,,,,,,,,,,,,,,,,,,,,,,,,,,,,,,,,,,,,,,,,,,,,,,,,,,,,,,,,,,,,,,,,,,,,,,,,,,,,,,,,,,,,,,,,,,,,,,,,,,,,,,,,,,,,,,,,,,,,,,,,,,,,,,,,,,,,,,,,,,,,,,,,,,,,,,,,,,,,,,,,,,,,,,,,,,,,,,,,,,,,,,,,,,,,,,,,,,,,,,,,,,,,,,,,,,,,,,,,,,,,,,,,,,,,,,,,,,,,,,,,,,,,,,,,,,,,,,,,,,,,,,,,,,,,,,,,,,,,,,,,,,,,,,,,,,,,,,,,,,,,,,,,,,,,,,,,,,,,,,,,,,,,,,,,,,,,,,,,,,,,,,,,,,,,,,,,,,,,,,,,,,,,,,,,,,,,,,,,,,,,,,,,,,,,,,,,,,,,,,,,,,,,,,,,,,,,,,,,,,,,,,,,,,,,,,,,,,,,,,,,,,,,,,,,,,,,,,,,,,,,,,,,,,,,,,,,,,,,,,,,,,,,,,,,,,,,,,,,,,,,,,,,,,,,,,,,,,,,,,,,,,,,,,,,,,,,,,,,,,,,,,,,,,,,,,,,,,,,,,,,,,,,,,,,,,,,,,,,,,,,,,,,,,,,,,,,,,,,,,,,,,,,,,,,,,,,,,,,,,,,,,,,,,,,,,,,,,,,,,,,,,,,,,,,,,,
18,-0.011187365932871401,,,,,,,,,,,,,,,,,,,,,,,,,,,,,,,,,,,,,,,,,,,,,,,,,,,,,,,,,,,,,,,,,,,,,,,,,,,,,,,,,,,,,,,,,,,,,,,,,,,,,,,,,,,,,,,,,,,,,,,,,,,,,,,,,,,,,,,,,,,,,,,,,,,,,,,,,,,,,,,,,,,,,,,,,,,,,,,,,,,,,,,,,,,,,,,,,,,,,,,,,,,,,,,,,,,,,,,,,,,,,,,,,,,,,,,,,,,,,,,,,,,,,,,,,,,,,,,,,,,,,,,,,,,,,,,,,,,,,,,,,,,,,,,,,,,,,,,,,,,,,,,,,,,,,,,,,,,,,,,,,,,,,,,,,,,,,,,,,,,,,,,,,,,,,,,,,,,,,,,,,,,,,,,,,,,,,,,,,,,,,,,,,,,,,,,,,,,,,,,,,,,,,,,,,,,,,,,,,,,,,,,,,,,,,,,,,,,,,,,,,,,,,,,,,,,,,,,,,,,,,,,,,,,,,,,,,,,,,,,,,,,,,,,,,,,,,,,,,,,,,,,,,,,,,,,,,,,,,,,,,,,,,,,,,,,,,,,,,,,,,,,,,,,,,,,,,,,,,,,,,,,,,,,,,,,,,,,,,,,,,,,,,,,,,,,,,,,,,,,,,,,,,,,,,,,,,,,,,,,,,,,,,,,,,,,,,,,,,,,,,,,,,,,,,,,,,,,,,,,,,,,,,,,,,,,,,,,,,,,,,,,,,,,,,,,,,,,,,,,,,,,,,,,,,,,,,,,,,,,,,,,,,,,,,,,,,,,,,,,,,,,,,,,,,,,,,,,,,,,,,,,,,,,,,,,,,,,,,,,,,,,,,,,,,,,,,,,,,,,,,,,,,,,,,,,,,,,,,,,,,,,,,,,,,,,,,,,,,,,,,,,,,,,,,,,,,,,,,,,,,,,,,,,,,,,,,,,,,,,,,,,,,,,,,,,,,,,,,,,,,,,,,,,,,,,,,,,,,,,,,,,,,,,,,,,,,,,,,,,,,,,,,,,,,,,,,,,,,,,,,,,,,,,,,,,,,,,,,,,,,,,,,,,,,,,,,,,,,,,,,,,,,,,,,,,,,,,,,,,,,,,,,,,,,,,,,,,,,,,,,,,,,,,,,,,,,,,,,
19,-4.106252829422125,,,,,,,,,,,,,,,,,,,,,,,,,,,,,,,,,,,,,,,,,,,,,,,,,,,,,,,,,,,,,,,,,,,,,,,,,,,,,,,,,,,,,,,,,,,,,,,,,,,,,,,,,,,,,,,,,,,,,,,,,,,,,,,,,,,,,,,,,,,,,,,,,,,,,,,,,,,,,,,,,,,,,,,,,,,,,,,,,,,,,,,,,,,,,,,,,,,,,,,,,,,,,,,,,,,,,,,,,,,,,,,,,,,,,,,,,,,,,,,,,,,,,,,,,,,,,,,,,,,,,,,,,,,,,,,,,,,,,,,,,,,,,,,,,,,,,,,,,,,,,,,,,,,,,,,,,,,,,,,,,,,,,,,,,,,,,,,,,,,,,,,,,,,,,,,,,,,,,,,,,,,,,,,,,,,,,,,,,,,,,,,,,,,,,,,,,,,,,,,,,,,,,,,,,,,,,,,,,,,,,,,,,,,,,,,,,,,,,,,,,,,,,,,,,,,,,,,,,,,,,,,,,,,,,,,,,,,,,,,,,,,,,,,,,,,,,,,,,,,,,,,,,,,,,,,,,,,,,,,,,,,,,,,,,,,,,,,,,,,,,,,,,,,,,,,,,,,,,,,,,,,,,,,,,,,,,,,,,,,,,,,,,,,,,,,,,,,,,,,,,,,,,,,,,,,,,,,,,,,,,,,,,,,,,,,,,,,,,,,,,,,,,,,,,,,,,,,,,,,,,,,,,,,,,,,,,,,,,,,,,,,,,,,,,,,,,,,,,,,,,,,,,,,,,,,,,,,,,,,,,,,,,,,,,,,,,,,,,,,,,,,,,,,,,,,,,,,,,,,,,,,,,,,,,,,,,,,,,,,,,,,,,,,,,,,,,,,,,,,,,,,,,,,,,,,,,,,,,,,,,,,,,,,,,,,,,,,,,,,,,,,,,,,,,,,,,,,,,,,,,,,,,,,,,,,,,,,,,,,,,,,,,,,,,,,,,,,,,,,,,,,,,,,,,,,,,,,,,,,,,,,,,,,,,,,,,,,,,,,,,,,,,,,,,,,,,,,,,,,,,,,,,,,,,,,,,,,,,,,,,,,,,,,,,,,,,,,,,,,,,,,,,,,,,,,,,,,,,,,,,,,,,,,,,,,,,,,,,,,,,,,,,,,,,,,,,,,,,
