,0,1,2,3,4,5,6,7,8,9,10,11,12,13,14,15,16,17,18,19,20,21,22,23,24,25,26,27,28,29,30,31,32,33,34,35,36,37,38,39,40,41,42,43,44,45,46,47,48,49,50,51,52,53,54,55,56,57,58,59,60,61,62,63,64,65,66,67,68,69,70,71,72,73,74,75,76,77,78,79,80,81,82,83,84,85,86,87,88,89,90,91,92,93,94,95,96,97,98,99,100,101,102,103,104,105,106,107,108,109,110,111,112,113,114,115,116,117,118,119,120,121,122,123,124,125,126,127,128,129,130,131,132,133,134,135,136,137,138,139,140,141,142,143,144,145,146,147,148,149,150,151,152,153,154,155,156,157,158,159,160,161,162,163,164,165,166,167,168,169,170,171,172,173,174,175,176,177,178,179,180,181,182,183,184,185,186,187,188,189,190,191,192,193,194,195,196,197,198,199,200,201,202,203,204,205,206,207,208,209,210,211,212,213,214,215,216,217,218,219,220,221,222,223,224,225,226,227,228,229,230,231,232,233,234,235,236,237,238,239,240,241,242,243,244,245,246,247,248,249,250,251,252,253,254,255,256,257,258,259,260,261,262,263,264,265,266,267,268,269,270,271,272,273,274,275,276,277,278,279,280,281,282,283,284,285,286,287,288,289,290,291,292,293,294,295,296,297,298,299,300,301,302,303,304,305,306,307,308,309,310,311,312,313,314,315,316,317,318,319,320,321,322,323,324,325,326,327,328,329,330,331,332,333,334,335,336,337,338,339,340,341,342,343,344,345,346,347,348,349,350,351,352,353,354,355,356,357,358,359,360,361,362,363,364,365,366,367,368,369,370,371,372,373,374,375,376,377,378,379,380,381,382,383,384,385,386,387,388,389,390,391,392,393,394,395,396,397,398,399,400,401,402,403,404,405,406,407,408,409,410,411,412,413,414,415,416,417,418,419,420,421,422,423,424,425,426,427,428,429,430,431,432,433,434,435,436,437,438,439,440,441,442,443,444,445,446,447,448,449,450,451,452,453,454,455,456,457,458,459,460,461,462,463,464,465,466,467,468,469,470,471,472,473,474,475,476,477,478,479,480,481,482,483,484,485,486,487,488,489,490,491,492,493,494,495,496,497,498,499,500,501,502,503,504,505,506,507,508,509,510,511,512,513,514,515,516,517,518,519,520,521,522,523,524,525,526,527,528,529,530,531,532,533,534,535,536,537,538,539,540,541,542,543,544,545,546,547,548,549,550,551,552,553,554,555,556,557,558,559,560,561,562,563,564,565,566,567,568,569,570,571,572,573,574,575,576,577,578,579,580,581,582,583,584,585,586,587,588,589,590,591,592,593,594,595,596,597,598,599,600,601,602,603,604,605,606,607,608,609,610,611,612,613,614,615,616,617,618,619,620,621,622,623,624,625,626,627,628,629,630,631,632,633,634,635,636,637,638,639,640,641,642,643,644,645,646,647,648,649,650,651,652,653,654,655,656,657,658,659,660,661,662,663,664,665,666,667,668,669,670,671,672,673,674,675,676,677,678,679,680,681,682,683,684,685,686,687,688,689,690,691,692,693,694,695,696,697,698,699,700,701,702,703,704,705,706,707,708,709,710,711,712,713,714,715,716,717,718,719,720,721,722,723,724,725,726,727,728,729,730,731,732,733,734,735,736,737,738,739,740,741,742,743,744,745,746,747,748,749,750,751,752,753,754,755,756,757,758,759,760,761,762,763,764,765,766,767,768,769,770,771,772,773,774,775,776,777,778,779,780,781,782,783,784,785,786,787,788,789,790,791,792,793,794,795,796,797,798,799,800,801,802,803,804,805,806,807,808,809,810,811,812,813,814,815,816,817,818,819,820,821,822,823,824,825,826,827,828,829,830,831,832,833,834,835,836,837,838,839,840,841,842,843,844,845,846,847,848,849,850,851,852,853,854,855,856,857,858,859,860,861,862,863,864,865,866,867,868,869,870,871,872,873,874,875,876,877,878,879,880,881,882,883,884,885,886,887,888,889,890,891,892,893,894,895,896,897,898,899,900,901,902,903,904,905,906,907,908,909,910,911,912,913,914,915,916,917,918,919,920,921,922,923,924,925,926,927,928,929,930,931,932,933,934,935,936,937,938,939,940,941,942,943,944,945,946,947,948,949,950,951,952,953,954,955,956,957,958,959,960,961,962,963,964,965,966,967,968,969,970,971,972,973,974,975,976,977,978,979,980,981,982,983,984,985,986,987,988,989,990,991,992,993,994,995,996,997,998,999,1000,1001,1002,1003,1004,1005,1006,1007,1008,1009,1010,1011,1012,1013,1014,1015,1016,1017,1018,1019,1020,1021,1022,1023,1024,1025,1026,1027,1028,1029,1030,1031,1032,1033,1034,1035,1036,1037,1038,1039,1040,1041,1042,1043,1044,1045,1046,1047,1048,1049,1050,1051,1052,1053,1054,1055,1056,1057,1058,1059,1060,1061,1062,1063,1064,1065,1066,1067,1068,1069,1070,1071,1072,1073,1074,1075,1076,1077,1078,1079,1080,1081,1082,1083,1084,1085,1086,1087,1088,1089,1090,1091,1092,1093,1094,1095,1096,1097
0,-1998.0491056790188,-2864.6223850215238,-2862.701521037554,-2067.6003769720965,-2209.318846949626,-2499.480278996189,-2520.722462300851,-2556.420577469777,-2274.6051585086707,-1991.3554598922983,-2387.478912509273,-2298.013311338097,-2095.6846140673047,-2627.709817735215,-2811.54620441901,-2695.661209769662,-2846.513363912705,-2655.468451577329,-2868.693247213339,-2573.7699478978875,-2549.2012245743813,-2431.267684019691,-2138.6051986283655,-2248.758547206656,-2637.8206075658923,-1884.2331489304095,-2674.253022933605,-2488.862468795467,-2168.303037259363,-1888.9370285318487,-2009.8197423428085,-2644.50401091629,-2433.648317248343,-1795.7381455489003,-2114.679571134969,-1993.0006682285134,-2436.1030384022065,-2207.9729259236738,-2547.298778259911,-2636.632882409965,-2491.813478282195,-2440.5645194430163,-2661.891394819209,-2005.9053971198896,-2493.7426242358397,-2093.582197921965,-2354.431247587494,-2445.0625383596835,-2460.8317573010104,-2165.4345951337887,-2688.1007126974055,-2007.0422171363953,-2016.3657378873181,-1986.368555437131,-2547.425837764492,-2383.2379003406327,-2365.393057317423,-2295.3363954649503,-2394.6014226783514,-2614.6208972459067,-2632.7582358336713,-2002.3301810352825,-1868.458092546954,-1985.2707139421714,-2654.579059551087,-2302.658277300866,-2872.2176487477614,-2297.862913622562,-2104.82041228622,-1882.7908614302219,-2867.091416008908,-2413.2295761886244,-2418.551312619745,-2849.712180713027,-2627.6951860739746,-2403.698212618024,-2473.264772135053,-2795.744679184122,-2517.9741863784943,-2183.3025488428784,-2402.5377605450253,-2685.3447401300036,-2501.2017809470744,-2436.3961522413856,-2488.66366462305,-2831.3484630036564,-2504.4832140702033,-2380.1849446764945,-2499.5630933320062,-2338.1349545301496,-2515.9346847766788,-2633.7437451900387,-2099.514662906082,-2394.9198095885267,-2643.196011107366,-2436.8972817764766,-2521.4046131317414,-2404.39932626327,-2631.1471518418816,-2004.0153505115427,-2370.120739032631,-2795.9589925856353,-2281.4059136658716,-2436.917709005657,-1865.802985303896,-2794.626326189271,-2072.9270739957688,-2388.8748905502234,-2513.8208869056084,-2669.3661012118832,-2509.3547783564613,-2419.448319571954,-1889.455303199265,-2805.0497908052494,-2534.4721692129992,-2424.3522229139962,-2090.9760033654966,-2806.4978500640277,-2635.93218800066,-2337.317968321765,-1999.7069675558628,-2225.4935460538622,-2282.6442756573256,-2293.8585911802766,-2916.897478850732,-2546.126823784768,-2455.5184942995625,-1886.0483495070177,-2803.973356183869,-1991.7905049661767,-1802.4666340195645,-2715.074890635449,-1863.3168410312212,-2251.457325010476,-2003.8158592143488,-2537.8095625420033,-2792.3530481486364,-2274.6650685957916,-2012.175854590814,-2727.3119779642384,-2074.7339812170685,-2518.739586100207,-1884.7743804884215,-2811.4274486051722,-2381.439524516827,-2343.209518187051,-2373.5510238725565,-2847.813072347041,-2083.108419369352,-2520.65906974179,-2420.5361265109823,-2871.091591178055,-2278.7964299845817,-2385.5538669996727,-1991.751291655715,-2801.318743356834,-2509.646597583429,-2474.830918113326,-2261.0750111183665,-2843.3868486299743,-1999.502820800806,-2193.2890291816198,-1993.6771531107313,-2638.4768816244505,-2094.428147496741,-2367.7719681720178,-2682.0628944838422,-2788.0972601073763,-2185.8804844482956,-2489.597754540977,-2383.6782834245773,-1984.4949103797685,-2201.2110595207314,-2209.478274931559,-2454.1975547775064,-2400.0991009252116,-2384.7973988239482,-2500.029933975031,-2691.8656326617697,-2087.3136481003294,-2371.4330793512177,-2369.349515959107,-2473.9957637675316,-2384.576982625626,-2245.2298873380246,-2645.4982556703576,-2647.872850562575,-2095.2610042022434,-2471.3376647983346,-2376.2601095130317,-2789.883207329974,-2451.0599211947806,-2234.6103444663627,-2141.0205319973265,-2792.9122909276284,-2776.223776500541,-1988.339003748256,-1994.8484297383181,-2383.3682251590913,-2010.085258026472,-2887.596892300044,-2411.853228830428,-2098.8339602432707,-2004.3061067256992,-2838.745632872809,-2540.963452640054,-2007.3687267867601,-2406.410404452501,-2784.0287811300636,-2173.396762758457,-2004.1588106438571,-2002.214277052252,-2848.35071735325,-2407.4833279553823,-2519.418269549029,-1990.6941368839784,-2792.982683467717,-2630.4622063414445,-2507.308280432614,-2699.0298822404156,-1866.0869904003512,-2242.668798510102,-2268.570280679771,-2818.948032676004,-2094.342639816773,-2503.701712460247,-2457.6854777994413,-2810.1721545543814,-2101.44746222093,-2229.5079995271017,-1702.349866660325,-2663.465293081698,-2823.0010687300005,-2006.9015614255493,-2122.454599181587,-2643.4943248047725,-2822.522391425375,-2370.6366368750832,-2178.902495601709,-2858.110856072564,-2006.2258000621766,-2003.2947045421047,-2671.5026796074894,-2370.773239656822,-2482.123463197788,-2288.932561656798,-2608.210248867374,-2180.0773595923574,-2256.241875067986,-2190.212430920431,-2682.7876609287305,-1867.6499193773402,-1891.6129669592676,-1994.4710476244124,-2662.0627500953624,-1982.4769146637996,-2469.3564907544437,-2073.229681395473,-2000.1742414340554,-2648.8811589536585,-2824.4836265509457,-2997.5319362605373,-2873.0942282129968,-3296.854695431977,-2657.0680976826734,-2421.366008811052,-2306.05399060972,-2175.6993374397816,-2822.749610955361,-2773.7999116127467,-1997.7813583273044,-2110.506554276892,-2250.5603261352317,-2523.916450375137,-2109.828942391921,-2001.5067789838274,-2308.991452712979,-2503.4122755331664,-2249.661912146777,-2499.242011882546,-2013.945715039961,-2163.494521472989,-2014.6646319841602,-1862.7640934217266,-2696.3227981091654,-2008.12275297561,-2118.5966361902383,-2479.388482886971,-2825.8410598436876,-2528.183720634243,-2575.0371577806573,-2539.562971899687,-2840.893910111362,-1997.5388241584917,-1894.4913258614,-1898.587935163708,-2097.653094251325,-2667.6525816383823,-2264.1619761819443,-1995.1384005909003,-2855.1289202889816,-2279.6591026920964,-1792.0413560119018,-2279.7882719232553,-2633.5154392981253,-2112.965223327803,-2348.589969749378,-2485.5477843010317,-2664.3239589402633,-2455.253283176745,-1994.7091153118379,-2269.105702060714,-2004.5383095707552,-2813.6111896609505,-2000.0023773702242,-2119.310934708187,-2516.512217391067,-2812.5797315522486,-1979.0185009270335,-2012.7386331816733,-2185.675880839487,-2240.4948033205264,-1865.6051873432575,-2001.0788941087503,-2184.634924700323,-2503.159256160555,-2334.3917763572226,-2003.9321740324133,-2511.512524415658,-2006.5400270939003,-2317.9262760066654,-2451.609481112341,-2507.516958691378,-2326.2343061690585,-2315.1290997128303,-2201.718085789053,-2205.6373979493887,-2751.639347893569,-1992.2557526358808,-2296.2691586060323,-2687.7712268754412,-2638.9031367468347,-2012.0989966727143,-2519.760293122061,-2003.5369441825578,-2587.2811036904855,-2113.137309467886,-2036.0721936929551,-2254.8856250374956,-2252.493492210063,-1883.1522147685416,-2454.3355000793176,-1887.9832703742518,-2593.4281464635847,-2112.8113700964254,-2696.606759706943,-2201.959613832904,-2340.826667810468,-2801.1875226541974,-2379.4752617985732,-2003.8940531106239,-2196.471406701331,-2405.8401596413782,-2062.3760224613857,-2014.9820767083747,-2642.2736004627623,-2277.1113726169647,-2619.5172960804393,-2492.257780377116,-2513.8367827055963,-1800.491993979948,-2812.9943466188865,-1990.283590354873,-2461.4449796506556,-2307.436303531717,-1862.0952145093684,-1984.3379200700367,-2250.2780443196993,-2019.1274880441126,-2942.5498317539123,-2179.3956519202366,-1897.425173767264,-1998.154016601027,-1871.9058298157888,-2295.3626488781147,-2099.910173680173,-2462.8854572517976,-2543.019285965198,-2116.8936759538988,-2009.576405572113,-2220.323078457954,-1869.0584822756887,-2473.2883925334513,-2193.4664922503775,-2775.463861586905,-1997.3662510028873,-2303.355764182667,-2272.7893450510473,-2806.6889753052283,-2793.1601064895326,-2182.9152479361987,-2352.4676394775684,-2011.4529891333339,-2809.0773931369185,-2739.221826515831,-2561.5559098802905,-1796.0264484598542,-2669.7980630925895,-1877.6007629156009,-2208.0701386175674,-2011.0868070863874,-2601.5387587971745,-2346.9411901285794,-2593.488524981579,-2197.9630331763537,-2238.570190730763,-2808.8324135466987,-1992.7509684289562,-2270.5628173461173,-2510.8464383649048,-1872.1185038285191,-1977.7461210846757,-2114.6708510168583,-1900.6909903045453,-2647.3035718878637,-2512.25271353603,-2001.491768495427,-2258.692072308301,-2781.266633012211,-2494.0741786029084,-2501.3849921585347,-2200.780742190642,-2352.86479536746,-2730.773896200958,-2214.421697956241,-2368.3465432796825,-1863.770121296066,-2007.740473881475,-2466.367851368909,-2565.207066507138,-1866.0495381913674,-1876.9944296759993,-2308.8312757857725,-2498.680654487342,-2849.5982539806837,-2007.993483800519,-2006.7145071798373,-1886.5622817078947,-1871.1399604994758,-2011.899819208345,-1891.124746132966,-2746.0223567921876,-1997.1501727768823,-1901.115446724387,-2543.2288491515314,-2632.903708925317,-2530.8705911704137,-1897.8096231842437,-1887.7606785769249,-2805.1084332112996,-2487.5833341967946,-2309.093032270729,-2408.421677465963,-1987.7026289451737,-2214.1089544162974,-2492.824008297688,-2483.3757573997805,-2490.6661469759697,-2203.590001237604,-1793.3459100070324,-2481.8206971673044,-1871.7149021939483,-2510.859730253225,-2244.3446290262827,-1872.8126105771892,-2494.5517071408076,-2540.3617106207016,-2277.8077224115536,-2272.579255753631,-2774.4327755809663,-1989.9273790236416,-2177.3799475641554,-1897.4919352899176,-1866.2586583399043,-2971.1490186073115,-2948.3057761813125,-2797.998929738617,-2667.7213947564705,-2558.8366052525707,-2532.6225968789313,-1907.925787761759,-2382.0900964519137,-2788.0441505671756,-2185.8708138550173,-2498.1158767000916,-2512.208025843295,-1984.512732235729,-2691.3252640332125,-2615.4254220334,-2223.2171746828603,-2223.1784394294496,-2283.570472825367,-1888.125597370136,-1886.3840578367442,-2633.469844950717,-2280.4185170989936,-2265.1411485392528,-2003.2092754627924,-2341.869731622186,-2228.2976689826,-2210.2724236845033,-2417.8012120058397,-1991.2909727004298,-2287.2565508968783,-2012.6368072908308,-1994.086754041538,-1987.4837605238597,-2486.0876850018585,-1903.3402449424411,-1991.566131191361,-2002.9569233950883,-2005.4671644514697,-2127.599642621788,-1883.611913875732,-2316.71271020514,-1791.087606572136,-1706.0942594006065,-1870.1995069338143,-2492.6564356062527,-2212.9670067020893,-1906.3268094427167,-1793.2429855303396,-1872.3959900852542,-2602.4856859720207,-2488.4988756289,-2368.99931441849,-1981.3316790399397,-2217.54371773278,-2513.263829691932,-2697.2078549143916,-1975.5866835446238,-2470.021879306795,-2476.966163113268,-1982.3694976800825,-2813.5007061048696,-2378.4984226768483,-2279.7355348550373,-2205.49755932139,-2402.6812992613764,-2650.3416852608243,-2505.9620523049375,-2511.499396385916,-2193.08990963994,-1872.9212474401963,-2468.716735698668,-2483.754916198818,-1789.3480894337854,-2771.0550853254717,-2005.8638927292761,-2255.9763056230777,-2069.2175508143378,-1982.3332892406274,-2622.997715821247,-1894.1932984803618,-2309.321027102569,-2270.371838282176,-2652.582010378542,-1891.535723725399,-2166.1170485053503,-2001.0938447520648,-1986.458924189088,-1995.5685638204186,-2505.3318020446563,-1873.0944879204492,-1878.8906340872202,-2508.295718612175,-1794.3340544912069,-1870.3134845387385,-1868.9358202333187,-2522.7032574951895,-2331.8821281983337,-1882.092817862431,-1788.8483090070408,-2464.028973714481,-2207.1307310874154,-1875.9662085621003,-2070.847391424093,-2262.960370984822,-2306.4212351803726,-2235.5213970878717,-1883.144022910028,-2294.559491223239,-2498.836779711328,-2008.2304278262031,-1866.3517217449455,-2285.673053793771,-2132.494789264637,-1865.1096694809987,-2147.074801238583,-2253.109897084827,-1891.8346651313311,-1869.4831802758797,-1987.7108789026352,-1894.820891580805,-2521.601716527375,-1874.7821145149373,-2009.5102935155332,-2022.2199126929477,-2302.38109605921,-2223.736230884042,-2559.9227821612894,-2285.6377867788906,-2610.9888919482437,-2700.592246049457,-2223.9563512624104,-2267.8521355660987,-2298.6339362109024,-1876.8693687564278,-1871.453844531686,-2253.472101618602,-2151.803765259007,-2208.585019654425,-2322.6221913370787,-1788.6267281582177,-1801.2703879538078,-2257.457352338306,-1868.1036817321412,-2525.382196298647,-2321.884789596335,-1870.775235417569,-2499.978386514193,-2248.861999286552,-1797.817802835524,-1868.9644311988807,-1890.0639998947509,-2352.6406356229595,-1919.9225162022753,-1865.9442809801271,-1864.134745551424,-2007.8661715469464,-2136.5393285851646,-1871.4206350329207,-1880.366752790723,-2391.292503766358,-2146.5292306653255,-1874.9600784136237,-1990.21021027314,-2112.4439285522803,-2520.707089409815,-1979.554099485938,-1981.0560583724086,-2018.650280500883,-2340.844596980938,-1983.7500163664934,-1876.2504832790507,-1888.41086906626,-2284.5110662039815,-2471.3466485733265,-1868.6144256469834,-2208.6202409252915,-2278.365073525171,-1876.5130275752251,-1868.8589838982773,-2415.259958646686,-2303.26371723278,-2001.1284387019446,-1785.9069687695305,-2518.036735325508,-2327.426792235369,-2798.5225453460894,-2114.9011642886107,-2007.8642461582642,-1794.722690887027,-1985.8691334818304,-1867.648669365849,-2012.2483910506337,-2502.336926294228,-1864.6890842954883,-2004.8422836457112,-2339.725931155012,-2349.697187283077,-2801.0958677684603,-1987.2980721419415,-2276.250519311765,-1707.323743886283,-2516.7430121511097,-2118.264347292587,-1905.3610143804196,-1876.4785606428638,-2461.4999056371144,-2373.2962194921897,-2377.7950568787855,-2414.1960965321664,-2546.320597611265,-1961.4262266573724,-2583.144511151624,-2470.259121080109,-2373.1212328333013,-2779.6964427877247,-2419.1687364170866,-2548.341854644494,-2755.6992827789672,-2668.8652656407044,-2423.0148697753475,-2413.7838641804524,-2228.8563084216285,-2634.3444889285347,-2588.00199750914,-2305.1236418746216,-2537.394920725202,-2012.7743207878473,-2359.7900129285194,-2411.099119096811,-2567.571090378085,-2538.5510636642794,-2137.306687182086,-2413.3281753988354,-2596.413655380992,-2422.534479885587,-2125.568732226715,-2474.5519265037283,-1999.9613992499224,-2107.2283424461593,-2546.2368604656435,-2436.7023697715877,-2555.3365798324858,-2522.1024272699956,-2448.523282178975,-2242.960874685549,-2542.163271677204,-2592.344187839017,-2563.2564784596093,-2440.5053314055494,-2520.487538228079,-2699.9657020573964,-2375.6280181854067,-2464.16911605373,-2452.5482439649713,-2641.2200467621424,-2455.9179395040874,-2563.7854479612406,-2399.317387398001,-2225.547595146019,-2362.026962467044,-2555.0913738017853,-2554.6596327299335,-2704.1394766369544,-2570.844299230117,-2467.800899260938,-2524.5294956466946,-2550.367825975269,-2478.015620177476,-2553.6882111848117,-2721.26243011347,-2541.890492271827,-2570.448096549329,-2541.1231740425424,-2997.3685937693685,-2419.2356574864266,-2410.423810668975,-2563.637885295773,-2765.5052109677786,-2386.23277964911,-2408.6036612070448,-2414.6630788269617,-2455.709937827393,-2219.711439561086,-2416.7913218300923,-2389.0132777355634,-2073.6796899455253,-2477.349277805729,-2476.0479779794605,-2128.239566566562,-2500.298180582597,-2367.829498906171,-2258.8814604779172,-2385.3548958877923,-2561.778680234658,-2194.352205781536,-2508.3004966887506,-2642.3404060801327,-2901.8031058292913,-2501.796662913969,-2673.710093079187,-2514.0580648860982,-2968.168590604454,-2702.584547467822,-2725.3389568838893,-2428.465501241759,-2029.6261446320589,-2612.401485978607,-2612.6829976976337,-2516.4422294924316,-2545.8254806546083,-2497.2562668577975,-2098.13331826132,-2557.6015251018835,-2651.1538712602774,-1972.0979147098374,-2623.3979039599008,-2434.494550465891,-2260.535411570439,-2588.9393290765183,-2353.2635175847945,-2383.1615622056083,-2423.3692326980645,-2658.311600237877,-2596.0385792800485,-2596.6827511985152,-2446.8947202259205,-2660.425801544857,-2543.9911874073377,-2458.126472430927,-2470.4043015816137,-2792.862224772065,-2440.4977911775923,-2741.0729667892388,-2444.228629491638,-2807.990299017491,-2108.3613987559725,-2401.5459167364065,-2950.2285439143334,-2795.4116727167348,-2500.6111688399556,-2586.501680341263,-2600.5796437614454,-2661.7976662691162,-2924.6597716302626,-2702.3049196554566,-2722.824355835988,-2630.878703034714,-2426.343644122644,-2567.9458191145914,-2006.9744818035804,-2357.21996520501,-2584.7733117545013,-2575.919556406383,-2796.1955123883017,-2813.8797590658987,-2557.1010572403866,-2617.830938502812,-2271.7287311507785,-2685.895304321724,-2413.3021860128965,-2563.201003289059,-2405.131161259844,-2102.2851690280145,-2602.0126890519728,-2412.685808084852,-2412.0998155576535,-2514.982633640847,-2660.996686836332,-2275.565939478091,-2266.824510672042,-2402.1502452135023,-2512.510071182777,-2122.9878035982956,-2454.3028761984983,-2525.3592694212166,-2417.423135250875,-2429.7282748195516,-2435.0814006522055,-2394.161374696387,-2398.448764228785,-2451.5115599565847,-2161.388615132846,-2837.166432565712,-2525.7390889196804,-2459.493787605041,-2382.0001134459685,-2810.4449228754743,-2650.648695411524,-2444.4423971265037,-2583.6495509725005,-2541.1370346285757,-2389.6868835247124,-2234.791507087707,-2411.945488545167,-2100.2479415763255,-2086.3687752492965,-2393.4273151477987,-2429.125159733793,-2741.27834335889,-1997.6660707198762,-2376.89429947253,-2430.2592320363365,-2245.8075702145547,-2095.665007253324,-2485.0571134404827,-2479.560842402504,-2498.4917358061894,-2342.774180645706,-2401.3872743523234,-2420.8958057942905,-2567.3343742093016,-2509.2693415254294,-2640.8146477999476,-2461.5779171110335,-2101.4018368522993,-2611.177622759016,-2618.909492915025,-2545.2614569366133,-2414.0187269329085,-2609.3489216817024,-2734.9068169560205,-2463.3357856259076,-2727.295894142146,-2633.679866848542,-2403.479022529857,-2556.3774439361496,-2798.5615387466023,-2171.3107453763814,-2021.8055436817401,-2824.470181493632,-2497.2208765490445,-2267.123978232716,-2286.4313682405846,-2259.370674544455,-2458.3606187062587,-2404.3059646157367,-2140.2486766098505,-2527.787291772133,-1993.2142727183082,-2378.898991818757,-2395.6673031530195,-2351.466362271898,-2516.566428153681,-2241.1587278596044,-2336.0966997998703,-2571.7714020203666,-2550.4626003597714,-2772.9784986767127,-2677.4107092495433,-2379.023654080753,-2387.3768408063584,-2138.4582222845,-2779.167418368019,-2100.8656523890136,-2376.3561709520636,-2267.095678526021,-2265.5422776421287,-2705.423577229665,-2635.032327755537,-2397.3231014341295,-2627.6385241109424,-2560.9393606056115,-2349.855441909373,-2404.0372315947034,-2282.28329910908,-2430.1375440967427,-2473.2699019709153,-2524.0725392731897,-2305.634004649913,-2118.4916567950827,-2500.14818431353,-2415.5562566408157,-2539.899116910764,-2134.875006085507,-2650.9273743226718,-2432.834147192879,-2222.4808332531793,-2368.594245334313,-2365.6274732123743,-2388.4755748496605,-2403.2651658920436,-2028.695426353058,-2727.081751441349,-2506.055790279761,-2523.6844932035888,-2103.6965890862,-3638.517338102477,-2819.2877560268935,-3044.6189651771906,-2831.2131619551033,-2781.120279843584,-2992.864119964065,-2697.171058035912,-2633.3845955725196,-2573.4092959378086,-2671.897664685196,-2746.490055297884,-2564.0216850165184,-2661.9496839016947,-2572.092204172161,-2538.936610369023,-2471.17712388256,-2708.6535839475337,-2768.990645997493,-2379.474413580108,-2418.1964933883546,-2580.185577822567,-2706.486308247437,-2002.7896058160516,-2096.2197732086593,-2660.339009304174,-2633.965649338841,-2502.085794801985,-2440.0810717610557,-2253.5680932978426,-2127.760561304092,-2558.6960276302475,-2615.623473199537,-2387.653376752929,-2414.123688689666,-2110.087306176197,-2382.434970740913,-2553.4091869916056,-2275.9561440829584,-2499.8532202186802,-2394.615080643535,-2419.7595250149107,-2426.9773826962196,-2008.5491634848968,-2395.1650718266756,-2565.5181539602463,-2262.832254372096,-2419.036623044934,-2396.4563154582656,-2122.0395150045238,-2417.130518230575,-2298.571565809961,-2270.126814057531,-2680.0947388331256,-2399.1345781075343,-2413.68674326195,-2530.63301801303,-2421.4733651717524,-2684.8190460602614,-2415.2695871941482,-2482.751215043887,-2008.033525849329,-2246.90555265556,-2358.341200701929,-2458.957394859248,-2372.568353688464,-2507.055463891136,-2437.288036624221,-2568.6219284392796,-2739.6910066751675,-2308.8457139137868,-2287.132290389831,-2130.495126993681,-2597.449190994873,-2755.520381338364,-2719.1800504769567,-2529.345411762556,-2413.316025507499,-2697.5160784071686,-2276.139928410041,-2705.7890902894246,-2421.2712593413075,-2661.9530541255276,-2574.0596358614885,-2829.055490296918,-2588.6642700396615,-2661.697025528384,-2433.2712169038896,-2401.3450048047507,-2702.7374939955253,-2569.262095137432,-2440.5080702961227,-1985.7480116971503,-1999.5841909885414,-2616.898866857575,-2714.3069473400037,-1880.3083878873374,-2530.8434616150525,-2541.591445018421,-2555.128892349729,-2475.9478844362097,-1984.8609113960194,-2122.686226001167,-2594.7210156580645,-2395.7881217632184,-2781.4394860636153,-2047.494905729399,-2037.9481971153125,-2422.732924798329,-2088.523194547523,-2500.6839705084003,-2505.0122513143524,-2698.7588486511204,-1988.300720569271,-2482.5213806303045,-2542.2350770922612,-2376.1394320144204,-2102.7442448769925,-2534.760023978754,-2441.4611115868956,-1871.7903762824376,-2143.224322477958,-2080.8607541457022,-2510.882417416991,-2584.2240724811068,-1984.9588600093907,-2593.1984609657793,-2483.9659165647163,-2409.1741576850054
1,348.3871447354702,342.3808307596535,342.38051390168795,347.3869961737502,346.38498622111354,344.3826648968988,344.3830455057612,344.3826592983277,346.38537964665636,348.38735106866665,345.38426511510534,346.3850165563751,347.3861589236871,343.3817358957074,342.38077643907343,343.38199491759576,342.38109109824865,343.38203230915246,342.38063092045235,344.3833526697414,344.3829466694737,345.38419587527125,347.38612200659384,346.3850554058981,343.3815811819987,349.3883110266669,343.3817578527537,344.38318585302744,347.38634384799064,349.3885636941846,348.387885061413,343.3816171581036,345.38382074661934,350.3896926410804,347.3868316836382,348.3878176892194,345.38432298297556,346.38502785136615,344.38296380119795,343.38156579541544,344.38288223038376,345.3838030712539,343.38204045131624,348.3873442492246,344.3826927303834,347.38661881688336,345.3841739854814,344.3831072457567,344.3832760045227,346.3850966727689,343.381539560766,348.38728822152916,348.3875105809772,348.3873164041897,344.3829231433279,345.3842506529156,345.3843572447305,346.38492845227927,345.3842231828604,343.3816868845923,343.3816175813408,348.3872245313571,349.38832597080915,348.3876891713178,342.3808313644161,346.3850980500446,342.38063931941133,346.3850334193256,347.38625986477695,349.38861774644243,342.38072854657065,345.38379546706614,345.38478326637863,342.3806696846644,343.381560559547,345.38396722996043,344.3826973422963,342.3811087825744,344.3833011267438,346.38500604632037,345.3849701911275,343.3816437887009,344.3828023521632,344.3827024474122,344.3826643623281,342.38075323495417,344.3826689465621,345.3837979384896,344.38283474414817,345.38391443049994,344.38272904423815,343.3816049808077,347.3860331190357,345.38452602237504,343.38175939061244,345.3837679485184,344.3830363840624,345.3839034668242,343.38160507163843,348.3877165702811,345.3839730353005,342.3805414087598,345.3838295265941,345.3842724935455,349.3886227162002,342.3807355041625,347.38606769052285,345.38397278464424,344.38299348117846,343.3815626985676,344.3828535567937,345.38395503519024,349.38856838429945,342.3806385144029,344.3828732379702,345.38450296810004,347.3861722119829,342.3806753843924,343.3815955676792,345.3840909994664,348.3875779523018,346.3849477215704,346.38543793022603,346.3854931249857,342.3807690953644,344.3826573997475,344.38324896365225,349.3895225303851,342.3804758145439,348.3872559180693,350.3893581451944,343.38172333370886,349.38822206201553,346.38520610668047,348.38738689250755,344.3827206129172,342.38055091121913,346.38512570905476,348.3884018874458,343.38176772333105,347.38674705393237,344.38270685418297,349.38850506209866,342.3806699714483,345.3840303019571,345.3837607293996,345.3838123510448,342.3804315770218,347.38612429840407,344.3827261039497,345.38437110805404,342.3806875365156,346.38517890405853,345.38391615359336,348.38715859202284,342.38043018624006,344.3826914602866,344.3828668925102,345.3850536071041,342.3808150427271,348.3871480572176,346.38540916636316,348.3878341127276,343.38187350769914,347.3861494239514,345.38410823630056,343.38175163719734,342.3805459926811,346.38558257722497,344.38265736313406,345.3847351041475,348.3874692226378,346.3854143101872,346.3854934028812,344.3828247626968,345.3838726883375,344.38272656586435,344.3833004367409,343.381703450595,347.3860693284054,345.38379572328824,345.38421308688504,344.3831675641062,345.38394219936623,346.3852092030455,343.38168538878347,343.3815889678459,347.3862141359896,344.38279953567286,345.38503418833125,342.38066572811834,344.38298808809833,346.38562014519266,347.38624513910264,342.38067975250596,342.3805185047843,348.38714864187733,348.3882472948405,345.3842746326415,348.38725520373066,342.38057464543374,345.38397819631825,347.3862980933387,348.38724610358696,342.38067007908523,344.38267865915844,348.38736060559495,345.3837687155729,342.3806364970971,346.38574777733277,348.38849276779854,348.38811494782516,342.3804700782089,345.38396924821495,344.3827354642275,348.387287023011,342.3809864863936,343.38170426782614,344.3834653815222,343.3818198186513,349.3883957547995,346.3853028320468,345.38432243558253,342.38046071129173,347.3860093866114,344.3834870165013,344.382917135794,342.3811678968945,347.3862856173199,346.38597046604724,351.39102956537715,343.3823523101726,342.3809291409464,348.38740941187393,347.38620214965175,343.3815589233814,342.38061857976436,345.3839738900427,346.3852673790554,342.38042572747196,348.3873507249034,348.3872918171462,343.3817024028441,345.38387636812473,344.382724653964,345.384886986131,343.38204916390765,346.3854000848841,345.3841159967351,346.38503617558064,343.3817717099924,349.38860365797854,349.3890074586954,348.38718526328483,343.38153902847387,348.3877809465682,344.3832399807974,347.3863962295867,348.38777073898575,343.38155017513486,342.38044228081014,341.3793472766807,342.3806957475127,340.3782827911088,343.38155195862856,345.3838107215871,346.38494754304355,346.3857510049724,342.38065770325045,342.3805857175591,348.38713110795806,347.38622258986436,346.3852897301283,344.38301970770334,347.386209364,348.38715002160865,346.3852513924301,344.38354946456053,346.38514360380805,344.3827073462445,348.38745547744753,347.38606959979705,348.3872110556673,349.3884073856273,342.3807027503778,348.38768239814283,347.3868088548894,344.3836510500704,342.3805027832912,344.38305403747955,343.38220939456215,344.3826717206348,342.381027514888,348.3871118535852,349.3882884142202,349.3882375709292,347.3861423084051,343.3815931802179,345.38451465430427,348.3872213946825,342.38068291643197,345.3840619746577,350.3898793045853,346.38488920469734,343.38224205174987,347.3867171005547,345.3839261498755,344.38275644025566,343.38173483315285,344.3832422312749,348.3872308997621,345.38376147316336,348.38715800778584,342.3804673305135,348.3874278339698,347.3866856826345,344.38267801967464,342.3804682156733,348.38764786733475,348.387147809661,346.38510051210704,346.3851829254537,349.38840438599135,348.38721525808023,346.3851454113939,344.38282855668314,345.38437423295824,348.3872427684848,344.38290070680983,348.387197061711,345.3840009553407,344.3826878004294,344.3827855074624,345.38378359912554,345.38426804167705,346.3854677949049,346.3853498123163,342.3806068641551,348.3873889714341,345.3841045822128,343.3816075991111,343.3823069293953,348.38721448089296,344.38308301005947,348.3881082881127,343.3820574488543,347.3860387692115,348.3873843326901,346.38491591085995,346.38510871110833,349.3883400003006,344.38293836092004,349.38827707112773,343.3816327369918,347.38604343812557,343.38163057024826,346.38527266369306,345.3840395845605,342.38094231190854,345.3838432087957,348.38743284252996,346.3855851369803,345.3837776603076,347.38616118838735,348.3878037693262,342.3806274365788,345.3843161357921,343.38186806162634,344.38321258163177,344.3831845144412,350.389415745704,342.38067169190197,348.3874794729672,344.38328915595866,345.3837938658893,349.388281885709,348.3872390791698,345.38388204940503,348.3874505497386,341.37952027156496,346.385024995739,349.38846562320236,348.3878004108312,349.3887100020786,345.3845020541415,346.38502347467005,344.3830491426874,341.3793272102969,346.38499520026323,348.388116818806,346.3848834457261,349.3883449557873,344.3832523224006,346.3849139438294,342.38113729884174,348.38719356273316,345.38403379465234,345.3837958045231,342.38070165171297,342.38068163811147,346.38498033879137,344.382901391983,348.3872342787631,342.3807438150515,342.3804984962225,343.3819765719893,350.38960396212707,343.38182039995695,349.3882384684255,346.38614016734175,348.3877803179565,343.38224391467395,345.38391213836445,342.38141298661344,346.3851173314239,346.38500909192203,342.3806243574416,348.3874706474799,345.3842144173048,344.38271170421785,349.388549243985,348.3872152083249,347.3860985338618,349.3884187427677,343.3821488947364,344.38289081657285,348.3878600162105,346.3849399429052,342.3805740852985,344.3829400285693,344.38332510767896,346.38493201070537,345.3843095944444,342.38055284032754,346.38540060495563,344.38274821548436,349.3894916522194,348.3872799404138,344.38267443153336,343.38156581904235,349.38847035998384,349.3886658807197,345.3846109241107,344.3829324045715,342.38050792888157,348.38731294392227,348.38740118030523,349.38826572961,349.38881016359164,348.3872580912527,349.38850931200056,343.3816790981912,348.3871942593866,349.38835986108296,344.3826526533734,343.3816302367987,344.38276698682455,349.38873761428147,349.38900053706,342.3805763491414,344.3828592953787,345.3838620543125,345.38390809997765,348.38723712168576,346.384891354218,344.3830680976538,344.3826749431768,344.3826771165944,346.38550693579555,350.3897405492268,344.38288635233266,349.3884893529117,344.3832537944077,345.38384963775076,349.38855625709755,344.38273859773454,344.38298875570024,345.3838134424272,345.38385490131907,342.380450575703,348.38736734205634,346.3850734788269,349.38862540511127,349.3882228798704,341.3793391859693,341.3793679290037,342.38054017056595,343.38199706472284,344.3826873617782,344.38329902850546,349.38875295999026,345.3844587917395,342.3810794052581,346.384957524719,344.3828814926404,344.38329043678516,348.38808217678815,342.3807088997104,343.38196762487974,346.38561245262633,346.3851690049659,345.3842306863339,349.3884883223869,349.389018784736,343.3815616741246,345.3839207255216,345.3839826947409,348.387300099509,345.3843153263577,345.38449039683985,346.38491516770983,345.38444331070224,348.387098855733,345.38392376683805,348.387918240742,348.3877152711156,348.3877345886072,344.3827124546806,349.38828982688307,348.3871058282715,348.3872181253001,348.38751931101723,346.3856982629183,349.38866662590084,345.3848904713373,350.389524510825,351.3922219664279,349.3886784894587,344.38313292103135,346.38532549223373,349.3884355827231,350.38947858754307,349.3887912982571,343.381687399548,344.3830443003204,345.3838660488322,348.38721849802755,346.3849931641563,344.38296478928265,343.38191583390466,348.38819981771354,344.38314016803986,344.3827306229288,348.38747941521456,342.3811207686974,344.3833376709329,345.38393496302905,346.3861459654136,345.3840653652664,343.3816459361211,344.3826868710182,344.3828575663413,346.38549234816156,349.3882965638293,344.3829766362401,344.3828126747497,350.3893265623113,342.3806267192995,348.38785216359963,345.38380116430886,347.38625179723493,348.38748447092155,343.38205227067675,349.38839252594164,345.3839090211718,346.38507115715566,343.3818956312557,349.3886677986817,347.3866198855038,348.3876907621731,348.38725040105476,348.3870973231187,344.3828009054292,349.3894532401895,349.3882474207498,344.382793748645,350.3897849376276,349.3889550331645,349.388769106956,344.382686507746,345.38408635026167,349.38848698933253,350.3895901048286,344.38304058049584,346.3861757689273,349.3882562086019,347.38643807984903,345.384169008223,345.383881773642,346.38559225742125,349.3890540815444,345.3843774856167,344.38274623224214,348.3876490673761,349.3882917986058,345.3842391975066,347.38633163492165,349.38837747198494,346.38522373705865,345.3838988779238,349.38828167511764,349.38843667826444,348.3873035138233,349.3884167430142,343.3815471652995,349.3883405266781,348.3871121733905,348.3871898004909,345.3840461127396,346.385154959426,343.38170719800627,345.38380722459556,343.38192969683905,343.38172094153276,346.38536468149664,346.385182618691,345.383816712413,349.38849896349376,349.388298965779,345.3843207073036,346.3855114956506,346.385163913543,345.3841536489424,350.3895671277175,350.38949502270617,345.3843849181659,349.3886323467271,344.38314294854285,345.3840027868476,349.38937962370323,343.3819304232972,345.3837901267496,350.38941947344586,349.3885809754431,349.3886663687189,344.38272541646853,349.3883080867881,349.3882400910411,349.3883641712537,348.387332563824,346.3849760709587,349.38840289392294,349.3882462499338,345.3838106116231,346.3852359602958,349.3882541712278,348.3874951168215,347.38637601372716,344.38300984769177,348.3874983361244,348.3872753306764,348.38718259745735,345.3846055653064,348.38731360295026,349.38835813761324,349.38881214457314,345.38453566562976,344.3827433271129,349.3888470122736,346.38495235056644,345.3838940186484,349.38863900665325,349.38824721585127,345.38378583149876,345.38411186692974,348.3874032970016,350.38952406016455,344.3830014701714,345.3839540064638,342.38064829717473,347.38637298313193,348.38743522322744,350.39045924499106,348.38728236427164,349.3893643837455,348.38715345073746,344.38276456295824,349.3886925321851,348.3872080779471,344.3836428392515,345.38385231481885,342.3807841348452,348.38737878691137,346.384934270057,351.3912399761643,344.38296013250437,347.38687566152066,349.3883502790804,349.38861409466506,344.38295716743585,345.3849913402494,345.38380446810726,345.3839542674665,344.3833606324931,348.38734931773934,344.38335857895436,345.38447998967354,345.38405469858367,342.3804440788644,345.3838631448516,344.38275892545823,343.3818627601026,343.38213792324785,345.3840746771253,345.3842893021342,346.38510537259276,343.3815756776294,344.38271746159387,346.385327091856,344.38290056206523,348.38738896504987,345.3841323333121,345.38440572804944,344.3827540519366,344.3826670280279,347.3860411127256,345.38399743312493,344.3831798062935,345.3847690744212,347.38701918014095,345.383997591265,348.38759338360796,347.3861623821722,344.3831698373265,345.38423594202993,344.3835313606289,344.38306929970616,345.3838914535627,346.3849299443778,344.382862947797,344.3830835924996,344.3835056779425,345.38390128476374,344.3828134763438,343.3822166097773,345.3838877364892,345.38402612274956,345.38462811453695,343.3817565923379,345.3840041484326,344.3826917200043,345.3839345801102,346.3853196239211,345.3839255742374,344.3828205722685,344.38279975005474,343.3816129508407,344.3826793118392,345.383894624407,344.38270667459966,344.38271402167186,344.3826998898384,344.3827152661165,343.3817444600615,344.38321510533797,344.3832609344855,344.3832802074763,341.37935352993145,345.38383296743064,345.384219398468,344.38269470538836,342.38087925406734,345.3838076063127,345.3837928739087,345.3839098414765,344.3827440297125,346.38502398772096,345.38421888122514,345.38454291856067,347.3861650384207,344.3831086907049,344.3829936770786,347.3868978337425,344.3827975144375,345.38387965073747,346.3848808574708,345.38414998312675,344.38363077805815,346.3856961172846,344.38266815694806,343.3823767001117,342.3806340989119,344.38299436131393,343.3819323612978,344.38269074643006,342.38048669960807,343.38170987089745,343.38167818794454,345.384267533468,348.3876924493963,343.38159115600996,343.38188324393894,344.38266400237694,344.38275343815184,344.3826807765083,347.38638223404314,344.3829682601408,343.3820234777186,348.3872291639304,343.3816580524646,345.3839858670277,346.3854195093819,344.38277358597543,345.3842067808231,345.3843138912673,345.3840999591646,343.3816373956139,344.38359177680434,344.3826769775241,345.38379916250034,343.3816217885298,344.38305838079265,345.38406550812266,345.3838542235056,342.3805667523231,345.383960865801,343.3822013823372,345.3840457853954,342.38082130137354,347.38655946803425,345.38381969602995,342.380687517171,342.380646100239,345.3839996745292,344.3830097485965,343.3824020684448,343.3816594639875,342.3805032023193,343.3817087641758,343.38163008870316,343.3815866192369,345.3838029546702,344.38302758666873,348.3873706068355,345.3839213162329,344.3829830359192,344.382952470913,343.3818314018197,342.3806204807362,344.38285079936315,344.3828097374521,346.38531388679866,343.38168482428284,345.3840397247848,344.38282765200165,345.3837926122646,347.38647761950796,344.3827344446343,345.38377323815996,345.3842841429222,344.38273261977184,343.3820270447978,346.3850163892256,346.3850628834941,345.3844202247115,344.38266373829794,347.3864445748634,345.3838055321208,344.38279884340045,345.3839703853135,345.3840160673389,345.3838732154958,345.3839789898917,345.38390722234834,345.3846662374943,347.3864368462974,342.38066795963294,344.3827179974457,345.38378742081545,345.38385423601426,342.38052774769267,343.3815662475949,345.3839831027665,344.38354295698423,344.3830180396004,345.3840703698103,346.38543688465063,345.38386631161217,347.38644048786176,347.3865221504748,345.3838929272786,345.38382421261804,343.3818784967236,348.3874449179266,345.3841069886984,345.38382968253813,346.38490253944923,347.38608179492,344.3826754920901,344.3829868842526,344.38336664821924,345.3837676732154,345.384280154162,345.38389153648484,344.3827789138455,344.38299424680525,343.3815466034946,344.38300937534837,347.3863362814817,343.3816569778372,343.3817418391849,344.38278258796595,345.3838769825315,343.3815710681471,343.38158811467156,345.3838477299534,343.38184813840877,344.3827481521262,345.383859487615,343.38231350541685,342.3809748870608,346.3857002823141,348.38790558235627,342.3805995282315,344.38295804725357,346.3850261885797,346.3849575318156,346.38532967581733,344.3830879232274,345.38397529414686,347.38599079368646,344.38303100941226,348.38768594263064,345.3837989458629,345.3839338621189,345.38392258327224,344.3827751131522,346.38600180990704,345.3843130618865,344.38265456709564,344.38276323762653,342.3805478861425,343.381585797141,345.38395523512094,345.38387193334364,347.3864600410117,342.38056601944413,347.3860230829135,345.3838878117457,346.38519118160434,346.38603075177934,343.381597730551,343.38204632510565,345.383955806669,343.38163933347323,344.3826729463651,345.3839714990262,345.38399309352957,346.3849174202204,345.3840600692531,344.3827170674362,344.38322761571555,346.3849137967074,347.38626710767255,344.38336417100396,345.3838675042495,344.3828504519395,347.3860984783421,343.38208758873367,345.38393089152686,346.3856612010656,345.3840259383578,345.3848197283954,345.3838270520253,345.3840613073823,348.38747645448063,342.38077081749094,344.3829742770847,344.3829885341832,347.38618332464097,338.37621569152054,342.3804698208925,341.37969055837704,342.3807104828728,342.38061678576855,341.3794049630313,343.3818059408913,343.3816317716029,343.38161204318214,343.3821751220432,343.3818482661401,344.38292164753665,343.3820180888116,344.3826973563335,344.38293583778517,344.38269950958244,343.3819096281953,342.381313898896,345.38398976969256,345.3838806938479,344.38352072961413,343.38161575670006,348.38783842963517,347.3864266824509,343.3816663448238,343.38170079344286,344.3829467091609,345.3839113142516,346.3857437261874,347.38638891917685,344.3829635241894,343.38196517335655,345.3839303653628,345.3841440947912,347.38626298052964,345.3837793438191,344.3827314469414,346.3856946439997,344.38299321798036,345.3845356633356,345.38413322795594,345.38413177048415,348.38747244690217,345.3839560373401,344.38332248995573,346.38538751900546,345.3839994411615,345.38416310746595,347.3866706453136,345.3838560555976,346.38521596014726,346.3850908540877,343.3816152854979,345.38383796251003,345.38383153590485,344.3830296009013,345.38402935747945,343.3817997765979,345.38383246192683,345.3841486089707,348.38740915812167,346.3854306699664,345.3838519233993,345.3843111214146,345.38385782572993,344.38268731755835,345.3840159380895,344.38273190439196,342.38067070491024,346.3856897733365,346.38523196768244,347.3869278843015,344.38327390287446,343.3818859881182,343.3818122356874,344.3827690041327,345.38395597893896,343.3817304300079,346.38491878022916,343.3820291383601,345.3839449321357,343.3818854118947,344.38273814347673,342.38044562072236,344.38280417622525,343.3815936990589,345.3842681273365,345.38423819879125,343.38198489348736,344.3835273251787,345.383806660388,348.38709806984474,348.38717722465174,344.3832108868706,343.38211377812917,349.388360302729,344.382908713282,344.3826601970878,344.38290315159463,344.3828098555636,348.3880631140689,347.38598751053723,343.3819716847753,345.384149152946,342.38050551036065,347.38618580050445,348.3873686693977,345.38397652448214,347.3861375817647,344.38267606480474,344.3828073883382,343.38156191302295,348.3878241195423,344.38290285739936,344.38280841050465,345.38377749048624,347.38639318983905,344.3828660340311,344.38271643907797,349.38825384246945,347.38645816015,347.3861832116843,344.382669367643,343.3815376882841,348.3873786045888,343.3816642938504,344.38271497497715,345.38394511024944
2,-0.002823782438562452,-0.004009529972487367,-0.004062769812399181,-0.002690467417842635,-0.003145434434524387,-0.003756581395537755,-0.004130265306804388,-0.004006064954923685,-0.0034584443193472047,-0.0029029996352275874,-0.003703995126299693,-0.003589187216090538,-0.003017825092915802,-0.0033447504349485573,-0.003643839503928957,-0.0036067003592188374,-0.0039342631150667,-0.003991831383874266,-0.004161343822746615,-0.003619650274975142,-0.004099954649871001,-0.00383681189012937,-0.0031535710225498556,-0.00317264204176648,-0.004463651525734951,-0.0027210215973677487,-0.003982298308156456,-0.0036958130951422956,-0.003294113686366955,-0.002711237100604701,-0.0029408392512604614,-0.0037494657064578237,-0.0038442485742771846,-0.0026915313179226995,-0.0029549443027929467,-0.0029485529055475706,-0.003867710207996806,-0.0035433384584675847,-0.00369576504983576,-0.004275289474549403,-0.004203471690665458,-0.0038485237569191983,-0.003808391938326663,-0.0029281904635771712,-0.004154596673218491,-0.0034057488396340785,-0.003382654941621067,-0.004299143859063459,-0.004373020044356407,-0.003772242529711743,-0.003919512885593443,-0.0030057563977874836,-0.0030596601672249458,-0.0030004312691485975,-0.0036310714907176723,-0.0036986323879716395,-0.003946088977576563,-0.003539269317757412,-0.003548697082027599,-0.003927593730483931,-0.0045035214339896965,-0.003002304261703499,-0.0025026844708451526,-0.002756989275785341,-0.005118015395352461,-0.003601274048368662,-0.004105980723232325,-0.0034665008407931967,-0.0032657408947966812,-0.0026257661634034282,-0.003954924299666802,-0.0037373927346938717,-0.003768461784535978,-0.004173066535138841,-0.004061406587470812,-0.00365854109477384,-0.0042198910017286085,-0.004077183074287372,-0.003908178669490767,-0.003777096253453634,-0.0037494262092758524,-0.00377650285330926,-0.0037699949413016703,-0.00438054636344368,-0.004290483254410431,-0.004073206343504448,-0.004064676543511493,-0.003850298484320447,-0.0042858997703957005,-0.0032861838658071567,-0.0036694781877731827,-0.004473396786154054,-0.0033681184793171166,-0.00339203033868621,-0.0038813417588616887,-0.0036201048910105035,-0.004203545976867352,-0.0033613599802661217,-0.003939668152490524,-0.0030219084372153887,-0.00383706873288585,-0.00397364040865517,-0.003768592097607783,-0.00380864169928807,-0.0025004902072842325,-0.004006780120586953,-0.0032008960971227013,-0.0037699463209207263,-0.0038908282137788026,-0.00389059269551706,-0.0037661969441331556,-0.003561714422916798,-0.002699742131816766,-0.004221493327065394,-0.0037162424610347445,-0.003743486125062386,-0.0032667575892040683,-0.004114214063442064,-0.004390039452278167,-0.004105881207758338,-0.0028212997011081613,-0.00313937437618265,-0.0034946579987657216,-0.0035093358255341854,-0.004412776434337483,-0.003712504706284921,-0.004233945295408264,-0.0026891033743611384,-0.004249004437869,-0.002903144639687212,-0.0027308421638822093,-0.0038744330562662174,-0.002497068352478726,-0.0032901981373819893,-0.0028978128544495927,-0.003702934051078085,-0.00416566900033666,-0.0035064383253126923,-0.003022815409803784,-0.0037915508448839222,-0.0031240629584688086,-0.004225531781611232,-0.0026818524673076073,-0.0037847244732562967,-0.0036513409329168457,-0.004065397409139069,-0.0034131056635685743,-0.004077206871933439,-0.0032756587780914705,-0.0041485315828016876,-0.0035667397175857688,-0.004161611038986144,-0.003428891393720021,-0.003776630250859647,-0.0026594376448835153,-0.0039374492588289175,-0.0041935412716817685,-0.004155014078700845,-0.0037473972414081938,-0.004213598099971836,-0.002900940279000275,-0.003748567600047216,-0.0028236077080471622,-0.0037059752572374334,-0.0033927050850917156,-0.003852086489353591,-0.0037285027827590887,-0.004389374224747073,-0.003685968384252238,-0.00432906684477552,-0.0035890465173563286,-0.0027821530745966295,-0.003855349822793265,-0.003855583764909885,-0.003494283366905342,-0.003714340416635958,-0.0041159486462982245,-0.004152645333323916,-0.003969918102345559,-0.00332778085292041,-0.00404700574920813,-0.003959308379570524,-0.0034521528112340413,-0.003906770928358039,-0.003691959052038235,-0.0036573767550344863,-0.004025886158309137,-0.003528195948186617,-0.0042874594943577106,-0.003440736588806734,-0.003898995442134424,-0.0038263038556346106,-0.0037040055118134877,-0.0031407990383462404,-0.0041230159749841636,-0.004067484578336191,-0.0027358197696677406,-0.0029857616037176856,-0.004059293577512196,-0.0028721644519185798,-0.004140143409593724,-0.0036266582658836255,-0.0033218503554010423,-0.002988541542669291,-0.004292805881020527,-0.003881495870494132,-0.0029774353653001517,-0.003729904614914966,-0.0037822564828234773,-0.0035831528184757017,-0.002959634238385248,-0.0028403569757716207,-0.004127662175560292,-0.0035176866259905622,-0.004284337535880481,-0.002758300390849865,-0.004134016985944869,-0.0045306043524489725,-0.004070683613064949,-0.003961365565589101,-0.002629827546237672,-0.00364900179767142,-0.003916615497605529,-0.0041784555443700674,-0.0032071263322554656,-0.004425040164325384,-0.004372946388488939,-0.004103776686689528,-0.003052514915008914,-0.0036421873347636047,-0.002722187995156362,-0.003814329840893153,-0.004161054119751883,-0.003014311938064627,-0.0035122094636514064,-0.004358103303283988,-0.004264977333254548,-0.00390946715460467,-0.003672060996590636,-0.004070321569759811,-0.0029847523118972192,-0.0029939444204570087,-0.003949797362182507,-0.0033396543956301524,-0.004444830042860942,-0.0038908334799427923,-0.003886759287197561,-0.003719792094298805,-0.004079350759788661,-0.003774768605932759,-0.003957185750751991,-0.002596876969914381,-0.002814178883319944,-0.0029926428510999694,-0.0038408813009700505,-0.002857944081598668,-0.004428102679578703,-0.003385053330380942,-0.002984703261718788,-0.003761977580665212,-0.003955993573618154,-0.004211574836060507,-0.004224719292307306,-0.00520632196156003,-0.003927454685312604,-0.003520133899549037,-0.0036190483150316892,-0.0038426814241898028,-0.0042551680105523786,-0.004314209091924037,-0.00291578214416508,-0.0034055267562850306,-0.003403152547418925,-0.0036752410279111266,-0.0029953177424336124,-0.003007182323560843,-0.0036097622645766022,-0.004416373482847183,-0.0032297173840966135,-0.003818755367306703,-0.002998904103650934,-0.003365504519475371,-0.0029128284860232803,-0.0024967872954958347,-0.004908986907177731,-0.0030516313389096104,-0.003057440764130379,-0.003476202120935767,-0.004145351463397708,-0.0038367247129651237,-0.004597379604640608,-0.004313012385998512,-0.00422331809075814,-0.002897085028375678,-0.002814709589465111,-0.002828703585600156,-0.0029098843954521603,-0.003954753639099663,-0.004016220277931724,-0.0028358166192985856,-0.0041697736039156014,-0.003776880286246898,-0.002704671434498152,-0.0034262245827163546,-0.003664417135087616,-0.003102162452012379,-0.0040916727718273305,-0.004313999848591364,-0.0039327942976108005,-0.003667191956423414,-0.00295768427114521,-0.003816674183700811,-0.0029688222157096557,-0.00423642446050277,-0.0029231273451055823,-0.0035284747271978247,-0.0043924165435952605,-0.004175582618785612,-0.0029187062769502094,-0.0032088279043728475,-0.003798999139905359,-0.003357508360902565,-0.002611926852388296,-0.0030244018502372317,-0.0038446468641286347,-0.00390049878042821,-0.0032827474176469335,-0.0029748963628958816,-0.0043703070445907394,-0.0028361783687114494,-0.0033029666184530805,-0.00433746051009626,-0.00437156494442981,-0.0032751439130854344,-0.003469964887863146,-0.0037798893861804334,-0.003754568569069084,-0.0038120988947383467,-0.002976003765399338,-0.003817374445998961,-0.003929068495364837,-0.0038800102944555044,-0.002936036109333461,-0.0043393884510251534,-0.0029081569522324143,-0.0038059429626488865,-0.0033903422675791686,-0.0031839104499059114,-0.003135613362609187,-0.0032039729997204083,-0.00274969718459253,-0.004471635745970689,-0.0026752059417250633,-0.003809732702624896,-0.0031591662323997706,-0.004764627090710437,-0.0037155295837841855,-0.003169167683800479,-0.004100410520096723,-0.0036518832175436843,-0.0030183961173302766,-0.0037780551118974837,-0.003322411066638292,-0.0032486668315827067,-0.003128490848938057,-0.005251708431580691,-0.004053003077375014,-0.003847651331451717,-0.003963467898089058,-0.004328111320071496,-0.0027451019747242408,-0.0042174634832033465,-0.0028913635213825934,-0.004473793750601303,-0.004051271319418713,-0.0025067318365775645,-0.002916079267896113,-0.004145253482753493,-0.0029900281588465145,-0.0041122537683343195,-0.003816935234628435,-0.0028745880610339647,-0.002804805134842345,-0.0026385728331247585,-0.004172954061426301,-0.0034181991825438986,-0.003509012142778094,-0.00518202842271639,-0.003530952308628831,-0.0032918801494155217,-0.003232018762617201,-0.002598718454051164,-0.004513331879992012,-0.003765178859026204,-0.004126866606343495,-0.003016676271397352,-0.0038674979767115217,-0.0037431019732784105,-0.004013211747517615,-0.004359238030948643,-0.0037790281287235256,-0.004370911870704749,-0.0030060164773547705,-0.004078396865828076,-0.004690971951817384,-0.004654643193553197,-0.0027316762005263878,-0.003854833879859523,-0.0027058308693281236,-0.003852990711126489,-0.003074518752202426,-0.0037285657148359666,-0.0036808753084703323,-0.005166721592021228,-0.0037967399016003,-0.003329307263483829,-0.004072070625118768,-0.0028564181293907784,-0.0041312053065819775,-0.004244887544334901,-0.002572382839132852,-0.002782018184922934,-0.0034465150740283644,-0.002831640198399714,-0.003695285094545188,-0.0038315605630348925,-0.0029800733909702976,-0.003651365807484242,-0.0037443689659898173,-0.003871562972537506,-0.004622194387055907,-0.003835257525162817,-0.0032297359596465468,-0.004880320985373981,-0.003834079964162683,-0.0042529547620169675,-0.0025643809225023386,-0.003047486870980617,-0.004409686039924231,-0.0047835575363969745,-0.002495738296538206,-0.0027103760247686906,-0.003840684655960408,-0.004238753458985389,-0.004155188676212785,-0.002928862593553191,-0.002993760154434968,-0.002671428642051128,-0.0026059698634862925,-0.003009315243512868,-0.002797193492526218,-0.0037992696664547678,-0.0029662501879962853,-0.002849465013297536,-0.004013935685950377,-0.003675966866781322,-0.003995411038074083,-0.002812826788769979,-0.0026626166364636214,-0.004129157873345332,-0.00428098100205498,-0.003883387224135217,-0.00358663650219409,-0.002831319708822672,-0.0038220860078132836,-0.004332198716106412,-0.003876290534869871,-0.003939374743869545,-0.0038147676033915964,-0.0027302156343489365,-0.0034927477124431835,-0.0026014469700670426,-0.004328225541536395,-0.004132860464319684,-0.0026047634674978646,-0.003704751221918301,-0.0042717252792898236,-0.0041677588082444095,-0.004003565601173136,-0.003935909331423605,-0.0028139110736768646,-0.003741513892920179,-0.002837801555259837,-0.002593603759821942,-0.004194978857836771,-0.004226097720404675,-0.004042058474717188,-0.004181315273796929,-0.003916388213880773,-0.004080367855332043,-0.0028912412534545157,-0.0035659306673205713,-0.003970247021585158,-0.0036266066398494747,-0.004391640218703403,-0.004424075877497374,-0.0028035002669325915,-0.004920447685771614,-0.004990050906370349,-0.003689725801688835,-0.0032281859203014064,-0.004040683215119648,-0.0028347332626130514,-0.002788138156948383,-0.004035301147578781,-0.00408420351981075,-0.0040483780971370155,-0.0029954007858343243,-0.0034437613447363042,-0.00407918047120756,-0.0038705173595823127,-0.0036454915586819985,-0.0028419246353150016,-0.0041641268129616014,-0.0031622588946032125,-0.0028042633502898453,-0.0028048432481352866,-0.004365072050106221,-0.0028259208232983626,-0.002784171485550418,-0.0029778092625424623,-0.003080264467025465,-0.003574177067190675,-0.0026896355071939454,-0.003912686041711884,-0.0027155430176328123,-0.0027596467404408724,-0.002558264358667311,-0.0038529584608375006,-0.00371641034991012,-0.002834691171601233,-0.0026755869027877918,-0.002617229685775359,-0.004746414737379805,-0.004467165806479339,-0.003536071445731288,-0.0028253117579081755,-0.0038820921564954127,-0.00443132884969835,-0.0040131430090343985,-0.0027251057976199083,-0.004386553490331425,-0.004440938641835046,-0.0027858466374863977,-0.004150900925202581,-0.003989976539870397,-0.0037267474057902654,-0.003801535238046627,-0.003605952096542559,-0.0039999699760819764,-0.004363797622617693,-0.004322783839394848,-0.0037012868763894595,-0.0026728489802079207,-0.004619936581964852,-0.004439026000759169,-0.0026691830653619198,-0.0041271031899190805,-0.0029935674905004544,-0.004124430874999141,-0.003453949112462855,-0.0027906907065320253,-0.0038976190619360042,-0.0027908902619741484,-0.003784076792527018,-0.003359244882572249,-0.0038261221529953867,-0.0027677132439497213,-0.0034285607963669518,-0.0027864367888548163,-0.002747043213099512,-0.002913737056483439,-0.004238654021921479,-0.002563504762324302,-0.002687074157574935,-0.0042399217994001535,-0.002725566131215409,-0.0026245790360721393,-0.0026074222661720743,-0.004399227804160883,-0.004001226327827344,-0.00268747262465021,-0.00270836137678987,-0.004590556184664048,-0.003689904655682303,-0.0025850289936347683,-0.0032837538598002513,-0.004047450010778637,-0.0044049959884314045,-0.0030961717318097872,-0.002729994666028917,-0.0043486521034421435,-0.004498638603603437,-0.0028929699494425216,-0.0025318309873284188,-0.004193738397751702,-0.003456358963128984,-0.0025007301190689345,-0.0036631110686748247,-0.00397754628680606,-0.002766542387059386,-0.002566389435538893,-0.002842677821970346,-0.002831775824929825,-0.004689645521798357,-0.0025774706003780052,-0.0029343021254886253,-0.0030409887204828,-0.0043734135865105645,-0.0030415805768157895,-0.004808036829195069,-0.0040664172013485525,-0.004717725006397988,-0.0038118341021727404,-0.003346547764722885,-0.003581129939747114,-0.004219259314926604,-0.002597599232468269,-0.002621918563011139,-0.004012373286204822,-0.003844423078307219,-0.0035282569770986663,-0.003336992265508529,-0.002686949402653287,-0.002767963749879316,-0.004054340775739574,-0.0025567545567122558,-0.004335110774305018,-0.004072183580768173,-0.0025059102673809877,-0.004677098773283853,-0.004024769190689937,-0.0027199165404868746,-0.0025270622493417955,-0.002820398246664374,-0.004398564684199067,-0.0031462336500028736,-0.002523989738043274,-0.002634416038392903,-0.0031004971386369767,-0.003501449655574719,-0.002544533156435712,-0.0027451308594688296,-0.004086440438472094,-0.0036809763427414727,-0.0025882923827070634,-0.002944777020800378,-0.003507283171649579,-0.00458604902346244,-0.0028014740214180574,-0.0027640162321979837,-0.0030299188106791743,-0.003958203734417163,-0.0029202322558860754,-0.00258018811558053,-0.0027784840363496892,-0.004166955499202055,-0.004065132567764649,-0.00263351648490993,-0.0038386273674398583,-0.0040572980682137385,-0.0025926812226747696,-0.0026199674658387677,-0.0038888838299493992,-0.004077497099073269,-0.002730268260492956,-0.002684655578812913,-0.0043800030306273266,-0.00386730636767133,-0.003919159055877923,-0.003025533544892668,-0.0029518234851107442,-0.002732662877563448,-0.0026640918416432316,-0.0025751008817400277,-0.0029912076671645086,-0.004303983233911272,-0.0024993599390584617,-0.0029251855776972558,-0.004412435202949046,-0.0040557591969034084,-0.0042028305761896865,-0.0027866916016244187,-0.003356324838658264,-0.0027744428153656064,-0.0035291166750532075,-0.0032845122510426665,-0.002841345112825336,-0.0027493426455202923,-0.003488929183413151,-0.004006666963434487,-0.00396800167975042,-0.003782085156230672,-0.0037347260268351455,-0.0025154602667588014,-0.003961816696151179,-0.003687913994435066,-0.004025603895050048,-0.004125929789467992,-0.003709754076477604,-0.004224966513347751,-0.004516840470647863,-0.0036829469290093307,-0.0036734452304983604,-0.004047654431631442,-0.003147773827353548,-0.0039609481347142195,-0.004287154556533259,-0.003458396673163994,-0.0035643888867277662,-0.002930682842642894,-0.003987936220513401,-0.003847670887780723,-0.0037539032778681433,-0.003924728998359547,-0.0034036630559591773,-0.0038945140452686156,-0.0038288316111954154,-0.003657240363533733,-0.0032267319761608584,-0.003681313269368414,-0.0028972144531674783,-0.0029355934882860633,-0.004285955432856819,-0.00372052749379445,-0.0038780972307256942,-0.0035139748999494934,-0.0036311341616835505,-0.0035747882816526957,-0.0037392038745392296,-0.003803239814976825,-0.0042896419937238205,-0.00397957994928352,-0.0034878527630698274,-0.003973274529995593,-0.004012342429927147,-0.003990739216743573,-0.0035684988104419473,-0.003903391633735975,-0.0036972549645601987,-0.004125719232791985,-0.0033786810346298104,-0.003325534936000244,-0.003981966552577233,-0.004280197921839423,-0.0037201672673691927,-0.004051497164778813,-0.0042399524660649,-0.003946788853699939,-0.003556093281170423,-0.0039026664474116294,-0.004121497179133658,-0.004370912051657215,-0.0040638365697658165,-0.003692725695101487,-0.004279574430307237,-0.004327768511511241,-0.004609509451658061,-0.0036399496596292097,-0.004084249826030096,-0.00437031002348046,-0.004189336910465165,-0.0037214366125517167,-0.0036851370363039063,-0.003720063532386965,-0.003732623763158627,-0.003288149375073796,-0.004125413437792658,-0.004006945268775951,-0.002727734535070427,-0.004081395023313049,-0.004164038903037235,-0.003304444917768435,-0.0034667839515562546,-0.003965814334374205,-0.0035919026925275775,-0.0040555579945333875,-0.003643561019885099,-0.0032881388517939066,-0.004456833744079896,-0.004577280449120474,-0.004222828723272216,-0.0037474337521743077,-0.004548470099884461,-0.004248649412741276,-0.00521841610510605,-0.0038372221732627496,-0.00390814026117098,-0.0033802879705912437,-0.003467728839318017,-0.0037313142903105776,-0.004250405194282151,-0.004417838830073153,-0.004525250155518716,-0.003680456609447737,-0.0031264258647005954,-0.004523290073955283,-0.00459053100031883,-0.00257373854222122,-0.003996519776054304,-0.0036217419590549352,-0.0035539057745031834,-0.0037594576614526976,-0.003771099936013298,-0.004146408822769807,-0.004123259988943211,-0.0038581932712437417,-0.003898917320249462,-0.004155604247217952,-0.0037363928420958738,-0.0038074536658825454,-0.0036588600004945223,-0.003724705319535567,-0.0035503445040236804,-0.004177635208569183,-0.00360689865016679,-0.0045567110458370995,-0.004074927771454226,-0.00398365251631191,-0.003052435404030163,-0.003697724975875754,-0.005019287879794014,-0.003994090542705201,-0.003620964752293407,-0.004122849712939206,-0.003988691576436837,-0.004004814441555632,-0.005154963389228971,-0.004697103839434437,-0.004008412155354325,-0.003943012957759703,-0.003686373392114534,-0.004296139111346474,-0.0028962006811245906,-0.0033369866761925457,-0.004290579220734633,-0.004354253295471354,-0.003869975833939601,-0.004040506197129103,-0.0040576691963100505,-0.004293427455297084,-0.0033945155674857774,-0.004061044860315625,-0.00372027079410925,-0.004116196623733764,-0.003651010998276154,-0.0030837188220413938,-0.0041326063318758285,-0.0037916845470230233,-0.0037192969433005795,-0.003512398709521712,-0.0045894848853622345,-0.003575527768413544,-0.003558266250033801,-0.003404549607806932,-0.0038000982608964954,-0.0033943094023406377,-0.003753964986253203,-0.0038046526985618476,-0.0036555633303238357,-0.0037613118221261777,-0.0037334158783819257,-0.003273215152916271,-0.0035062303012500847,-0.0037392306168594173,-0.0032203783587011437,-0.004120168647071514,-0.0038471445527584257,-0.003913816261075656,-0.0037350814740524673,-0.004047048483490971,-0.004604843072791135,-0.003900267506434322,-0.004161505900928589,-0.003477252563094375,-0.003818719954352776,-0.0036847025123223024,-0.00401704376245313,-0.002869143485012145,-0.00303569876656863,-0.004118708033708715,-0.0037668523653305638,-0.003991920676700512,-0.0028892128002403887,-0.004129875728155507,-0.0038680111666038507,-0.0032547634291944356,-0.002886827370277794,-0.004056829121090138,-0.004380342548563136,-0.0036894293451376426,-0.0035669701749237908,-0.0036788169164668465,-0.0039776575296085704,-0.003645625479795431,-0.003732756772422105,-0.004905124991337786,-0.004334704676481577,-0.0030667054573109234,-0.004109096429647391,-0.004703483016000689,-0.004400535647975878,-0.003797914121531074,-0.0038580826302612925,-0.0045384824608782305,-0.003962723797120782,-0.003985184678027239,-0.003808775141777519,-0.0036534324655861394,-0.00464824603368852,-0.0038826655181422457,-0.003438620062037149,-0.003392575550106068,-0.0048491364566000264,-0.003662741460556622,-0.003699231188008533,-0.0037137683337653657,-0.003327660011780069,-0.0037535051170226965,-0.003981211237454414,-0.0032846648288747775,-0.0036119067892327918,-0.0029679915743365775,-0.004037719560989088,-0.004110112434016298,-0.003951992015521905,-0.0037377883285266977,-0.00321527580243231,-0.004273759798339223,-0.004352968528813242,-0.003764886004920929,-0.003996807970399421,-0.00428703762388558,-0.003740229688144338,-0.003990413675222294,-0.0033410639811324813,-0.004106045144695457,-0.003093630855937351,-0.003980167833908603,-0.0041247320518330065,-0.00354835042732412,-0.004047285970333477,-0.004083030803673157,-0.004016120133630604,-0.004676528517404321,-0.0037558476966342872,-0.003462451130854566,-0.0037685774898164534,-0.003551103042637392,-0.003690354739730219,-0.003616074532896463,-0.004067240721497098,-0.003722659662973306,-0.003253483606121795,-0.0036648124085664376,-0.0038392767637442497,-0.004504583743497308,-0.0031367396997244753,-0.004052974952435743,-0.0040525653782187525,-0.0038340860434909764,-0.003491025209429845,-0.003447230188393975,-0.0038063984521669605,-0.0038137329869593864,-0.0030194542463593817,-0.004178254464056322,-0.004052307752017048,-0.004494956711370601,-0.002964737834935523,-0.005169502747528574,-0.003832815491977065,-0.004482215416928111,-0.004133905696725322,-0.004099840337843222,-0.004731223425992406,-0.004260661587419606,-0.004185296917783309,-0.004489235251974409,-0.004094176922781462,-0.004314714822781612,-0.003940694523761244,-0.004689940008102332,-0.004331141503362198,-0.004219048837382264,-0.004384431599963183,-0.003987660847732335,-0.00398684166576022,-0.0036540511126845004,-0.003627349213364821,-0.004161119037633688,-0.0046168735976344,-0.002868755842933302,-0.0028577418629211543,-0.004590779583349476,-0.004978306222034915,-0.004376571529902428,-0.004021481326859829,-0.003154228782389314,-0.0031773688717035074,-0.004193381633097076,-0.004964326363213033,-0.0037826917777643103,-0.0034186767929086466,-0.0031028523391434843,-0.0041126864302440825,-0.004426840035034303,-0.003596689135426557,-0.0036133606135122292,-0.0037232317819356304,-0.004031759305674333,-0.003969140662152013,-0.0028790993572362237,-0.003541627151014994,-0.0041654582902754325,-0.0035699856001138166,-0.003969663747815772,-0.0034309438880119913,-0.0029362798860146817,-0.004096501033118573,-0.00348070935712006,-0.0035931008113409954,-0.0038162697237724796,-0.003637887761221594,-0.004059677358110067,-0.004236057110084259,-0.0036445600821016226,-0.0040085104626931085,-0.003645587760230941,-0.003692614787539873,-0.002944552502017753,-0.003170359648586316,-0.003992314015064055,-0.003660679036760352,-0.0034118750029739596,-0.004366721158245387,-0.003851935146583873,-0.003856458764944475,-0.004316172969971177,-0.0036717960669756635,-0.003998734539993825,-0.0029302822188479443,-0.003822686668595118,-0.004645120465286507,-0.004699013749428499,-0.0034703097860751516,-0.003641098949566595,-0.004631938826036093,-0.0036041142674517286,-0.003953020676915916,-0.003480680221334542,-0.0045826742406177125,-0.004263060115063978,-0.004172841687831182,-0.0039663858818714814,-0.004587075302581645,-0.0038711275466865305,-0.003522892792964941,-0.004231263341036168,-0.004097276332919849,-0.0037402963813974216,-0.00274617746217222,-0.0028799634007093287,-0.004226613972406607,-0.004484237854604579,-0.0025802387384791167,-0.0037346597197757186,-0.004482982225974697,-0.004439482955277688,-0.004062316882716001,-0.002748852258712642,-0.003342032377834784,-0.004815590333498486,-0.0035359593758600015,-0.00472203119897252,-0.003644549925609305,-0.0038857252350922517,-0.003967162467283899,-0.0030734207589974668,-0.0044230999221081604,-0.004337855105333145,-0.004598613037847826,-0.0027965902801471536,-0.004361996800863495,-0.004527479891116772,-0.003523598287618437,-0.003108762908497966,-0.004595012002739926,-0.0044192269500545845,-0.0025275548058045316,-0.0031817792171870583,-0.003484244994256443,-0.004474912102127684,-0.004697242643283684,-0.002774300521393369,-0.004756633339990066,-0.0042890584029086345,-0.0037702087720062768
3,-13164169.376178868,-13164169.37617887,-13164169.37617887,-13164169.376178872,-13164169.376178872,-13164169.376178874,-13164169.376178874,-13164169.376178876,-13164169.376178876,-13164169.376178877,-13164169.376178877,-13164169.37617888,-13164169.37617888,-13164169.376178881,-13164169.376178881,-13164169.376178883,-13164169.376178883,-13164169.376178885,-13164169.376178885,-13164169.376178887,-13164169.376178887,-13164169.376178889,-13164169.376178889,-13164169.37617889,-13164169.37617889,-13164169.376178892,-13164169.376178892,-13164169.376178894,-13164169.376178894,-13164169.376178896,-13164169.376178896,-13164169.376178898,-13164169.376178898,-13164169.3761789,-13164169.3761789,-13164169.376178902,-13164169.376178902,-13164169.376178904,-13164169.376178904,-13164169.376178905,-13164169.376178905,-13164169.376178907,-13164169.376178907,-13164169.37617891,-13164169.37617891,-13164169.376178911,-13164169.376178911,-13164169.376178913,-13164169.376178913,-13164169.376178915,-13164169.376178915,-13164169.376178917,-13164169.376178917,-13164169.376178918,-13164169.376178918,-13164169.37617892,-13164169.37617892,-13164169.376178922,-13164169.376178922,-13164169.376178924,-13164169.376178924,-13164169.376178924,-13164169.376178926,-13164169.376178926,-13164169.376178928,-13164169.376178928,-13164169.37617893,-13164169.37617893,-13164169.376178931,-13164169.376178931,-13164169.376178933,-13164169.376178933,-13164169.376178935,-13164169.376178935,-13164169.376178937,-13164169.376178937,-13164169.376178939,-13164169.376178939,-13164169.37617894,-13164169.37617894,-13164169.376178943,-13164169.376178943,-13164169.376178944,-13164169.376178944,-13164169.376178946,-13164169.376178946,-13164169.376178948,-13164169.376178948,-13164169.37617895,-13164169.37617895,-13164169.376178952,-13164169.376178952,-13164169.376178954,-13164169.376178954,-13164169.376178956,-13164169.376178956,-13164169.376178958,-13164169.376178958,-13164169.37617896,-13164169.37617896,-13164169.376178961,-13164169.376178961,-13164169.376178963,-13164169.376178963,-13164169.376178963,-13164169.376178965,-13164169.376178965,-13164169.376178967,-13164169.376178967,-13164169.376178969,-13164169.376178969,-13164169.37617897,-13164169.37617897,-13164169.376178972,-13164169.376178972,-13164169.376178974,-13164169.376178974,-13164169.376178976,-13164169.376178976,-13164169.376178978,-13164169.376178978,-13164169.37617898,-13164169.37617898,-13164169.376178982,-13164169.376178982,-13164169.376178984,-13164169.376178984,-13164169.376178985,-13164169.376178985,-13164169.376178987,-13164169.376178987,-13164169.37617899,-13164169.37617899,-13164169.376178991,-13164169.376178991,-13164169.376178993,-13164169.376178993,-13164169.376178995,-13164169.376178995,-13164169.376178995,-13164169.376178997,-13164169.376178997,-13164169.376178999,-13164169.376178999,-13164169.376179,-13164169.376179,-13164169.376179002,-13164169.376179002,-13164169.376179004,-13164169.376179004,-13164169.376179006,-13164169.376179006,-13164169.376179008,-13164169.376179008,-13164169.37617901,-13164169.37617901,-13164169.376179012,-13164169.376179012,-13164169.376179013,-13164169.376179013,-13164169.376179015,-13164169.376179015,-13164169.376179017,-13164169.376179017,-13164169.376179019,-13164169.376179019,-13164169.37617902,-13164169.37617902,-13164169.37617902,-13164169.376179023,-13164169.376179023,-13164169.376179025,-13164169.376179025,-13164169.376179026,-13164169.376179026,-13164169.376179028,-13164169.376179028,-13164169.37617903,-13164169.37617903,-13164169.376179032,-13164169.376179032,-13164169.376179034,-13164169.376179034,-13164169.376179036,-13164169.376179036,-13164169.376179038,-13164169.376179038,-13164169.37617904,-13164169.37617904,-13164169.376179041,-13164169.376179041,-13164169.376179043,-13164169.376179043,-13164169.376179045,-13164169.376179045,-13164169.376179045,-13164169.376179047,-13164169.376179047,-13164169.376179049,-13164169.376179049,-13164169.37617905,-13164169.37617905,-13164169.376179053,-13164169.376179053,-13164169.376179054,-13164169.376179054,-13164169.376179056,-13164169.376179056,-13164169.376179058,-13164169.376179058,-13164169.37617906,-13164169.37617906,-13164169.376179062,-13164169.376179062,-13164169.376179064,-13164169.376179064,-13164169.376179066,-13164169.376179066,-13164169.376179066,-13164169.376179067,-13164169.376179067,-13164169.37617907,-13164169.37617907,-13164169.376179071,-13164169.376179071,-13164169.376179073,-13164169.376179073,-13164169.376179075,-13164169.376179075,-13164169.376179077,-13164169.376179077,-13164169.376179079,-13164169.376179079,-13164169.37617908,-13164169.37617908,-13164169.376179082,-13164169.376179082,-13164169.376179084,-13164169.376179084,-13164169.376179086,-13164169.376179086,-13164169.376179086,-13164169.376179088,-13164169.376179088,-13164169.37617909,-13164169.37617909,-13164169.376179092,-13164169.376179092,-13164169.376179093,-13164169.376179093,-13164169.376179095,-13164169.376179095,-13164169.376179097,-13164169.376179097,-13164169.3761791,-13164169.3761791,-13164169.376179101,-13164169.376179101,-13164169.376179103,-13164169.376179103,-13164169.376179105,-13164169.376179105,-13164169.376179105,-13164169.376179107,-13164169.376179107,-13164169.376179108,-13164169.376179108,-13164169.37617911,-13164169.37617911,-13164169.376179112,-13164169.376179112,-13164169.376179114,-13164169.376179114,-13164169.376179116,-13164169.376179116,-13164169.376179118,-13164169.376179118,-13164169.37617912,-13164169.37617912,-13164169.376179121,-13164169.376179121,-13164169.376179121,-13164169.376179123,-13164169.376179123,-13164169.376179125,-13164169.376179125,-13164169.376179127,-13164169.376179127,-13164169.376179129,-13164169.376179129,-13164169.37617913,-13164169.37617913,-13164169.376179133,-13164169.376179133,-13164169.376179134,-13164169.376179134,-13164169.376179136,-13164169.376179136,-13164169.376179136,-13164169.376179138,-13164169.376179138,-13164169.37617914,-13164169.37617914,-13164169.376179142,-13164169.376179142,-13164169.376179144,-13164169.376179144,-13164169.376179146,-13164169.376179146,-13164169.376179148,-13164169.376179148,-13164169.37617915,-13164169.37617915,-13164169.376179151,-13164169.376179151,-13164169.376179153,-13164169.376179153,-13164169.376179153,-13164169.376179155,-13164169.376179155,-13164169.376179157,-13164169.376179157,-13164169.376179159,-13164169.376179159,-13164169.37617916,-13164169.37617916,-13164169.376179162,-13164169.376179162,-13164169.376179164,-13164169.376179164,-13164169.376179166,-13164169.376179166,-13164169.376179166,-13164169.376179168,-13164169.376179168,-13164169.37617917,-13164169.37617917,-13164169.376179172,-13164169.376179172,-13164169.376179174,-13164169.376179174,-13164169.376179175,-13164169.376179175,-13164169.376179177,-13164169.376179177,-13164169.37617918,-13164169.37617918,-13164169.376179181,-13164169.376179181,-13164169.376179181,-13164169.376179183,-13164169.376179183,-13164169.376179185,-13164169.376179185,-13164169.376179187,-13164169.376179187,-13164169.376179188,-13164169.376179188,-13164169.37617919,-13164169.37617919,-13164169.376179192,-13164169.376179192,-13164169.376179194,-13164169.376179194,-13164169.376179194,-13164169.376179196,-13164169.376179196,-13164169.376179198,-13164169.376179198,-13164169.3761792,-13164169.3761792,-13164169.376179202,-13164169.376179202,-13164169.376179203,-13164169.376179203,-13164169.376179205,-13164169.376179205,-13164169.376179207,-13164169.376179207,-13164169.376179207,-13164169.376179209,-13164169.376179209,-13164169.37617921,-13164169.37617921,-13164169.376179213,-13164169.376179213,-13164169.376179215,-13164169.376179215,-13164169.376179216,-13164169.376179216,-13164169.376179218,-13164169.376179218,-13164169.37617922,-13164169.37617922,-13164169.37617922,-13164169.376179222,-13164169.376179222,-13164169.376179224,-13164169.376179224,-13164169.376179226,-13164169.376179226,-13164169.376179228,-13164169.376179228,-13164169.37617923,-13164169.37617923,-13164169.376179231,-13164169.376179231,-13164169.376179231,-13164169.376179233,-13164169.376179233,-13164169.376179235,-13164169.376179235,-13164169.376179237,-13164169.376179237,-13164169.376179239,-13164169.376179239,-13164169.37617924,-13164169.37617924,-13164169.376179243,-13164169.376179243,-13164169.376179244,-13164169.376179244,-13164169.376179244,-13164169.376179246,-13164169.376179246,-13164169.376179248,-13164169.376179248,-13164169.37617925,-13164169.37617925,-13164169.376179252,-13164169.376179252,-13164169.376179254,-13164169.376179254,-13164169.376179256,-13164169.376179256,-13164169.376179256,-13164169.376179257,-13164169.376179257,-13164169.37617926,-13164169.37617926,-13164169.376179261,-13164169.376179261,-13164169.376179263,-13164169.376179263,-13164169.376179265,-13164169.376179265,-13164169.376179267,-13164169.376179267,-13164169.376179267,-13164169.376179269,-13164169.376179269,-13164169.37617927,-13164169.37617927,-13164169.376179272,-13164169.376179272,-13164169.376179274,-13164169.376179274,-13164169.376179276,-13164169.376179276,-13164169.376179278,-13164169.376179278,-13164169.376179278,-13164169.37617928,-13164169.37617928,-13164169.376179282,-13164169.376179282,-13164169.376179283,-13164169.376179283,-13164169.376179285,-13164169.376179285,-13164169.376179287,-13164169.376179287,-13164169.376179287,-13164169.37617929,-13164169.37617929,-13164169.376179291,-13164169.376179291,-13164169.376179293,-13164169.376179293,-13164169.376179295,-13164169.376179295,-13164169.376179297,-13164169.376179297,-13164169.376179298,-13164169.376179298,-13164169.376179298,-13164169.3761793,-13164169.3761793,-13164169.376179302,-13164169.376179302,-13164169.376179304,-13164169.376179304,-13164169.376179306,-13164169.376179306,-13164169.376179308,-13164169.376179308,-13164169.376179308,-13164169.37617931,-13164169.37617931,-13164169.376179311,-13164169.376179311,-13164169.376179313,-13164169.376179313,-13164169.376179315,-13164169.376179315,-13164169.376179317,-13164169.376179317,-13164169.376179319,-13164169.376179319,-13164169.376179319,-13164169.37617932,-13164169.37617932,-13164169.376179323,-13164169.376179323,-13164169.376179324,-13164169.376179324,-13164169.376179326,-13164169.376179326,-13164169.376179328,-13164169.376179328,-13164169.376179328,-13164169.37617933,-13164169.37617933,-13164169.376179332,-13164169.376179332,-13164169.376179334,-13164169.376179334,-13164169.376179336,-13164169.376179336,-13164169.376179338,-13164169.376179338,-13164169.376179338,-13164169.37617934,-13164169.37617934,-13164169.376179341,-13164169.376179341,-13164169.376179343,-13164169.376179343,-13164169.376179345,-13164169.376179345,-13164169.376179347,-13164169.376179347,-13164169.376179347,-13164169.376179349,-13164169.376179349,-13164169.37617935,-13164169.37617935,-13164169.376179352,-13164169.376179352,-13164169.376179354,-13164169.376179354,-13164169.376179356,-13164169.376179356,-13164169.376179356,-13164169.376179358,-13164169.376179358,-13164169.37617936,-13164169.37617936,-13164169.376179362,-13164169.376179362,-13164169.376179364,-13164169.376179364,-13164169.376179365,-13164169.376179365,-13164169.376179365,-13164169.376179367,-13164169.376179367,-13164169.37617937,-13164169.37617937,-13164169.376179371,-13164169.376179371,-13164169.376179373,-13164169.376179373,-13164169.376179373,-13164169.376179375,-13164169.376179375,-13164169.376179377,-13164169.376179377,-13164169.376179378,-13164169.376179378,-13164169.37617938,-13164169.37617938,-13164169.376179382,-13164169.376179382,-13164169.376179382,-13164169.376179384,-13164169.376179384,-13164169.376179386,-13164169.376179386,-13164169.376179388,-13164169.376179388,-13164169.37617939,-13164169.37617939,-13164169.376179392,-13164169.376179392,-13164169.376179392,-13164169.376179393,-13164169.376179393,-13164169.376179395,-13164169.376179395,-13164169.376179397,-13164169.376179397,-13164169.376179399,-13164169.376179399,-13164169.376179399,-13164169.3761794,-13164169.3761794,-13164169.376179403,-13164169.376179403,-13164169.376179405,-13164169.376179405,-13164169.376179406,-13164169.376179406,-13164169.376179408,-13164169.376179408,-13164169.376179408,-13164169.37617941,-13164169.37617941,-13164169.376179412,-13164169.376179412,-13164169.376179414,-13164169.376179414,-13164169.376179416,-13164169.376179416,-13164169.376179416,-13164169.376179418,-13164169.376179418,-13164169.37617942,-13164169.37617942,-13164169.376179421,-13164169.376179421,-13164169.376179423,-13164169.376179423,-13164169.376179423,-13164169.376179425,-13164169.376179425,-13164169.376179427,-13164169.376179427,-13164169.376179429,-13164169.376179429,-13164169.37617943,-13164169.37617943,-13164169.376179432,-13164169.376179432,-13164169.376179432,-13164169.376179434,-13164169.376179434,-13164169.376179436,-13164169.376179436,-13164169.376179438,-13164169.376179438,-13164169.37617944,-13164169.37617944,-13164169.37617944,-13164169.376179442,-13164169.376179442,-13164169.376179444,-13164169.376179444,-13164169.376179446,-13164169.376179446,-13164169.376179447,-13164169.376179447,-13164169.376179447,-13164169.37617945,-13164169.37617945,-13164169.376179451,-13164169.376179451,-13164169.376179453,-13164169.376179453,-13164169.376179455,-13164169.376179455,-13164169.376179455,-13164169.376179457,-13164169.376179457,-13164169.376179459,-13164169.376179459,-13164169.37617946,-13164169.37617946,-13164169.376179462,-13164169.376179462,-13164169.376179462,-13164169.376179464,-13164169.376179464,-13164169.376179466,-13164169.376179466,-13164169.376179468,-13164169.376179468,-13164169.37617947,-13164169.37617947,-13164169.37617947,-13164169.376179472,-13164169.376179472,-13164169.376179473,-13164169.376179473,-13164169.376179475,-13164169.376179475,-13164169.376179477,-13164169.376179477,-13164169.376179477,-13164169.376179479,-13164169.376179479,-13164169.37617948,-13164169.37617948,-13164169.376179483,-13164169.376179483,-13164169.376179485,-13164169.376179485,-13164169.376179485,-13164169.376179487,-13164169.376179487,-13164169.376179488,-13164169.376179488,-13164169.37617949,-13164169.37617949,-13164169.376179492,-13164169.376179492,-13164169.376179492,-13164169.376179494,-13164169.376179494,-13164169.376179496,-13164169.376179496,-13164169.376179498,-13164169.376179498,-13164169.3761795,-13164169.3761795,-13164169.3761795,-13164169.376179501,-13164169.376179501,-13164169.376179503,-13164169.376179503,-13164169.376179505,-13164169.376179505,-13164169.376179505,-13164169.376179507,-13164169.376179507,-13164169.376179509,-13164169.376179509,-13164169.37617951,-13164169.37617951,-13164169.376179513,-13164169.376179513,-13164169.376179513,-13164169.376179514,-13164169.376179514,-13164169.376179516,-13164169.376179516,-13164169.376179518,-13164169.376179518,-13164169.37617952,-13164169.37617952,-13164169.37617952,-13164169.376179522,-13164169.376179522,-13164169.376179524,-13164169.376179524,-13164169.376179526,-13164169.376179526,-13164169.376179526,-13164169.376179527,-13164169.376179527,-13164169.37617953,-13164169.37617953,-13164169.376179531,-13164169.376179531,-13164169.376179533,-13164169.376179533,-13164169.376179533,-13164169.376179535,-13164169.376179535,-13164169.376179537,-13164169.376179537,-13164169.376179539,-13164169.376179539,-13164169.37617954,-13164169.37617954,-13164169.37617954,-13164169.376179542,-13164169.376179542,-13164169.376179544,-13164169.376179544,-13164169.376179546,-13164169.376179546,-13164169.376179546,-13164169.376179548,-13164169.376179548,-13164169.37617955,-13164169.37617955,-13164169.376179552,-13164169.376179552,-13164169.376179554,-13164169.376179554,-13164169.376179554,-13164169.376179555,-13164169.376179555,-13164169.376179557,-13164169.376179557,-13164169.37617956,-13164169.37617956,-13164169.37617956,-13164169.376179561,-13164169.376179561,-13164169.376179563,-13164169.376179563,-13164169.376179565,-13164169.376179565,-13164169.376179565,-13164169.376179567,-13164169.376179567,-13164169.376179568,-13164169.376179568,-13164169.37617957,-13164169.37617957,-13164169.376179572,-13164169.376179572,-13164169.376179572,-13164169.376179574,-13164169.376179574,-13164169.376179576,-13164169.376179576,-13164169.376179578,-13164169.376179578,-13164169.376179578,-13164169.37617958,-13164169.37617958,-13164169.376179582,-13164169.376179582,-13164169.376179583,-13164169.376179583,-13164169.376179585,-13164169.376179585,-13164169.376179585,-13164169.376179587,-13164169.376179587,-13164169.376179589,-13164169.376179589,-13164169.37617959,-13164169.37617959,-13164169.37617959,-13164169.376179593,-13164169.376179593,-13164169.376179595,-13164169.376179595,-13164169.376179596,-13164169.376179596,-13164169.376179596,-13164169.376179598,-13164169.376179598,-13164169.3761796,-13164169.3761796,-13164169.376179602,-13164169.376179602,-13164169.376179602,-13164169.376179604,-13164169.376179604,-13164169.376179606,-13164169.376179606,-13164169.376179608,-13164169.376179608,-13164169.37617961,-13164169.37617961,-13164169.37617961,-13164169.376179611,-13164169.376179611,-13164169.376179613,-13164169.376179613,-13164169.376179615,-13164169.376179615,-13164169.376179615,-13164169.376179617,-13164169.376179617,-13164169.376179619,-13164169.376179619,-13164169.37617962,-13164169.37617962,-13164169.37617962,-13164169.376179622,-13164169.376179622,-13164169.376179624,-13164169.376179624,-13164169.376179626,-13164169.376179626,-13164169.376179626,-13164169.376179628,-13164169.376179628,-13164169.37617963,-13164169.37617963,-13164169.376179632,-13164169.376179632,-13164169.376179632,-13164169.376179634,-13164169.376179634,-13164169.376179636,-13164169.376179636,-13164169.376179637,-13164169.376179637,-13164169.376179637,-13164169.37617964,-13164169.37617964,-13164169.376179641,-13164169.376179641,-13164169.376179643,-13164169.376179643,-13164169.376179643,-13164169.376179645,-13164169.376179645,-13164169.376179647,-13164169.376179647,-13164169.376179649,-13164169.376179649,-13164169.376179649,-13164169.37617965,-13164169.37617965,-13164169.376179652,-13164169.376179652,-13164169.376179654,-13164169.376179654,-13164169.376179654,-13164169.376179656,-13164169.376179656,-13164169.376179658,-13164169.376179658,-13164169.37617966,-13164169.37617966,-13164169.37617966,-13164169.376179662,-13164169.376179662,-13164169.376179663,-13164169.376179663,-13164169.376179665,-13164169.376179665,-13164169.376179665,-13164169.376179667,-13164169.376179667,-13164169.376179669,-13164169.376179669,-13164169.37617967,-13164169.37617967,-13164169.37617967,-13164169.376179673,-13164169.376179673,-13164169.376179675,-13164169.376179675,-13164169.376179677,-13164169.376179677,-13164169.376179677,-13164169.376179678,-13164169.376179678,-13164169.37617968,-13164169.37617968,-13164169.376179682,-13164169.376179682,-13164169.376179682,-13164169.376179684,-13164169.376179684,-13164169.376179686,-13164169.376179686,-13164169.376179688,-13164169.376179688,-13164169.376179688,-13164169.37617969,-13164169.37617969,-13164169.376179691,-13164169.376179691,-13164169.376179693,-13164169.376179693,-13164169.376179693,-13164169.376179695,-13164169.376179695,-13164169.376179697,-13164169.376179697,-13164169.376179699,-13164169.376179699,-13164169.376179699,-13164169.3761797,-13164169.3761797,-13164169.376179703,-13164169.376179703,-13164169.376179704,-13164169.376179704,-13164169.376179704,-13164169.376179706,-13164169.376179706,-13164169.376179708,-13164169.376179708,-13164169.376179708,-13164169.37617971,-13164169.37617971,-13164169.376179712,-13164169.376179712,-13164169.376179714,-13164169.376179714,-13164169.376179714,-13164169.376179716,-13164169.376179716,-13164169.376179717,-13164169.376179717,-13164169.37617972,-13164169.37617972,-13164169.37617972,-13164169.376179721,-13164169.376179721,-13164169.376179723,-13164169.376179723,-13164169.376179725,-13164169.376179725,-13164169.376179725,-13164169.376179727,-13164169.376179727,-13164169.376179729,-13164169.376179729,-13164169.37617973,-13164169.37617973,-13164169.37617973,-13164169.376179732,-13164169.376179732,-13164169.376179734,-13164169.376179734,-13164169.376179734,-13164169.376179736,-13164169.376179736,-13164169.376179738,-13164169.376179738,-13164169.37617974,-13164169.37617974,-13164169.37617974,-13164169.376179742,-13164169.376179742,-13164169.376179744,-13164169.376179744,-13164169.376179745,-13164169.376179745,-13164169.376179745,-13164169.376179747,-13164169.376179747,-13164169.37617975,-13164169.37617975,-13164169.37617975,-13164169.376179751,-13164169.376179751,-13164169.376179753,-13164169.376179753,-13164169.376179755,-13164169.376179755,-13164169.376179755,-13164169.376179757,-13164169.376179757,-13164169.376179758,-13164169.376179758,-13164169.37617976,-13164169.37617976,-13164169.37617976,-13164169.376179762,-13164169.376179762,-13164169.376179764,-13164169.376179764,-13164169.376179764,-13164169.376179766,-13164169.376179766,-13164169.376179768,-13164169.376179768,-13164169.37617977,-13164169.37617977,-13164169.37617977,-13164169.376179771,-13164169.376179771,-13164169.376179773,-13164169.376179773,-13164169.376179773,-13164169.376179775,-13164169.376179775,-13164169.376179777,-13164169.376179777,-13164169.376179779,-13164169.376179779,-13164169.376179779,-13164169.37617978,-13164169.37617978,-13164169.376179783,-13164169.376179783,-13164169.376179785,-13164169.376179785,-13164169.376179785,-13164169.376179786,-13164169.376179786,-13164169.376179788,-13164169.376179788,-13164169.376179788,-13164169.37617979,-13164169.37617979,-13164169.376179792,-13164169.376179792,-13164169.376179794,-13164169.376179794,-13164169.376179794,-13164169.376179796,-13164169.376179796,-13164169.376179798,-13164169.376179798
