,0,1,2,3,4,5,6,7,8,9,10,11,12,13,14,15,16,17,18,19,20,21,22,23,24,25,26,27,28,29,30,31,32,33,34,35,36,37,38,39,40,41,42,43,44,45,46,47,48,49,50,51,52,53,54,55,56,57,58,59,60,61,62,63,64,65,66,67,68,69,70,71,72,73,74,75,76,77,78,79,80,81,82,83,84,85,86,87,88,89,90,91,92,93,94,95,96,97,98,99,100,101,102,103,104,105,106,107,108,109,110,111,112,113,114,115,116,117,118,119,120,121,122,123,124,125,126,127,128,129,130,131,132,133,134,135,136,137,138,139,140,141,142,143,144,145,146,147,148,149,150,151,152,153,154,155,156,157,158,159,160,161,162,163,164,165,166,167,168,169,170,171,172,173,174,175,176,177,178,179,180,181,182,183,184,185,186,187,188,189,190,191,192,193,194,195,196,197,198,199,200,201,202,203,204,205,206,207,208,209,210,211,212,213,214,215,216,217,218,219,220,221,222,223,224,225,226,227,228,229,230,231,232,233,234,235,236,237,238,239,240,241,242,243,244,245,246,247,248,249,250,251,252,253,254,255,256,257,258,259,260,261,262,263,264,265,266,267,268,269,270,271,272,273,274,275,276,277,278,279,280,281,282,283,284,285,286,287,288,289,290,291,292,293,294,295,296,297,298,299,300,301,302,303,304,305,306,307,308,309,310,311,312,313,314,315,316,317,318,319,320,321,322,323,324,325,326,327,328,329,330,331,332,333,334,335,336,337,338,339,340,341,342,343,344,345,346,347,348,349,350,351,352,353,354,355,356,357,358,359,360,361,362,363,364,365,366,367,368,369,370,371,372,373,374,375,376,377,378,379,380,381,382,383,384,385,386,387,388,389,390,391,392,393,394,395,396,397,398,399,400,401,402,403,404,405,406,407,408,409,410,411,412,413,414,415,416,417,418,419,420,421,422,423,424,425,426,427
0,54298.56211298703,54298.56211298703,54298.56211298703,54298.56211298703,54298.56211298703,54298.56211298703,54298.56211298703,54298.562112987034,54298.562112987034,54298.562112987034,54298.562112987034,54298.562112987034,54298.562112987034,54298.562112987034,54298.562112987034,54298.562112987034,54298.562112987034,54298.562112987034,54298.562112987034,54298.562112987034,54298.562112987034,54298.562112987034,54298.562112987034,54298.562112987034,54298.562112987034,54298.562112987034,54298.562112987034,54298.562112987034,54298.562112987034,54298.562112987034,54298.562112987034,54298.562112987034,54298.562112987034,54298.562112987034,54298.562112987034,54298.562112987034,54298.562112987034,54298.562112987034,54298.562112987034,54298.562112987034,54298.562112987034,54298.562112987034,54298.562112987034,54298.562112987034,54298.562112987034,54298.562112987034,54298.562112987034,54298.562112987034,54298.562112987034,54298.562112987034,54298.562112987034,54298.562112987034,54298.562112987034,54298.562112987034,54298.562112987034,54298.562112987034,54298.562112987034,54298.562112987034,54298.562112987034,54298.562112987034,54298.562112987034,54298.562112987034,54298.562112987034,54298.562112987034,54298.562112987034,54298.562112987034,54298.562112987034,54298.562112987034,54298.562112987034,54298.562112987034,54298.562112987034,54298.562112987034,54298.562112987034,54298.562112987034,54298.562112987034,54298.562112987034,54298.562112987034,54298.562112987034,54298.562112987034,54298.562112987034,54298.562112987034,54298.562112987034,54298.562112987034,54298.562112987034,54298.562112987034,54298.562112987034,54298.562112987034,54298.562112987034,54298.562112987034,54298.562112987034,54298.562112987034,54298.562112987034,54298.562112987034,54298.562112987034,54298.562112987034,54298.562112987034,54298.562112987034,54298.562112987034,54298.562112987034,54298.562112987034,54298.562112987034,54298.562112987034,54298.562112987034,54298.562112987034,54298.562112987034,54298.562112987034,54298.562112987034,54298.562112987034,54298.562112987034,54298.562112987034,54298.562112987034,54298.562112987034,54298.562112987034,54298.562112987034,54298.562112987034,54298.562112987034,54298.562112987034,54298.562112987034,54298.562112987034,54298.562112987034,54298.562112987034,54298.562112987034,54298.562112987034,54298.562112987034,54298.562112987034,54298.562112987034,54298.562112987034,54298.562112987034,54298.562112987034,54298.562112987034,54298.562112987034,54298.562112987034,54298.562112987034,54298.562112987034,54298.562112987034,54298.562112987034,54298.562112987034,54298.562112987034,54298.562112987034,54298.562112987034,54298.562112987034,54298.562112987034,54298.562112987034,54298.562112987034,54298.562112987034,54298.562112987034,54298.562112987034,54298.562112987034,54298.562112987034,54298.562112987034,54298.562112987034,54298.562112987034,54298.562112987034,54298.562112987034,54298.562112987034,54298.562112987034,54298.562112987034,54298.562112987034,54298.562112987034,54298.562112987034,54298.562112987034,54298.562112987034,54298.562112987034,54298.562112987034,54298.562112987034,54298.562112987034,54298.562112987034,54298.562112987034,54298.562112987034,54298.562112987034,54298.562112987034,54298.562112987034,54298.562112987034,54298.562112987034,54298.562112987034,54298.562112987034,54298.562112987034,54298.562112987034,54298.562112987034,54298.562112987034,54298.562112987034,54298.562112987034,54298.562112987034,54298.562112987034,54298.562112987034,54298.562112987034,54298.562112987034,54298.562112987034,54298.562112987034,54298.562112987034,54298.562112987034,54298.562112987034,54298.562112987034,54298.562112987034,54298.562112987034,54298.562112987034,54298.562112987034,54298.562112987034,54298.562112987034,54298.562112987034,54298.562112987034,54298.562112987034,54298.562112987034,54298.562112987034,54298.562112987034,54298.562112987034,54298.562112987034,54298.562112987034,54298.562112987034,54298.562112987034,54298.562112987034,54298.562112987034,54298.562112987034,54298.562112987034,54298.562112987034,54298.562112987034,54298.562112987034,54298.562112987034,54298.562112987034,54298.562112987034,54298.562112987034,54298.562112987034,54298.562112987034,54298.562112987034,54298.562112987034,54298.562112987034,54298.562112987034,54298.562112987034,54298.562112987034,54298.562112987034,54298.562112987034,54298.562112987034,54298.562112987034,54298.562112987034,54298.562112987034,54298.562112987034,54298.562112987034,54298.562112987034,54298.562112987034,54298.562112987034,54298.562112987034,54298.562112987034,54298.562112987034,54298.562112987034,54298.562112987034,54298.562112987034,54298.562112987034,54298.562112987034,54298.562112987034,54298.562112987034,54298.562112987034,54298.562112987034,54298.562112987034,54298.562112987034,54298.562112987034,54298.562112987034,54298.562112987034,54298.562112987034,54298.562112987034,54298.562112987034,54298.562112987034,54298.562112987034,54298.562112987034,54298.562112987034,54298.562112987034,54298.562112987034,54298.562112987034,54298.562112987034,54298.562112987034,54298.562112987034,54298.562112987034,54298.562112987034,54298.562112987034,54298.562112987034,54298.562112987034,54298.562112987034,54298.562112987034,54298.562112987034,54298.562112987034,54298.562112987034,54298.562112987034,54298.562112987034,54298.562112987034,54298.562112987034,54298.562112987034,54298.562112987034,54298.562112987034,54298.562112987034,54298.562112987034,54298.562112987034,54298.562112987034,54298.562112987034,54298.562112987034,54298.562112987034,54298.562112987034,54298.562112987034,54298.562112987034,54298.562112987034,54298.562112987034,54298.562112987034,54298.562112987034,54298.562112987034,54298.562112987034,54298.562112987034,54298.562112987034,54298.562112987034,54298.562112987034,54298.562112987034,54298.562112987034,54298.562112987034,54298.562112987034,54298.562112987034,54298.562112987034,54298.562112987034,54298.562112987034,54298.562112987034,54298.562112987034,54298.562112987034,54298.562112987034,54298.562112987034,54298.562112987034,54298.562112987034,54298.562112987034,54298.562112987034,54298.562112987034,54298.562112987034,54298.562112987034,54298.562112987034,54298.562112987034,54298.562112987034,54298.562112987034,54298.562112987034,54298.562112987034,54298.562112987034,54298.562112987034,54298.562112987034,54298.562112987034,54298.562112987034,54298.562112987034,54298.562112987034,54298.562112987034,54298.562112987034,54298.562112987034,54298.562112987034,54298.562112987034,54298.562112987034,54298.562112987034,54298.562112987034,54298.562112987034,54298.562112987034,54298.562112987034,54298.562112987034,54298.562112987034,54298.562112987034,54298.562112987034,54298.562112987034,54298.562112987034,54298.562112987034,54298.562112987034,54298.562112987034,54298.562112987034,54298.562112987034,54298.562112987034,54298.562112987034,54298.562112987034,54298.562112987034,54298.562112987034,54298.562112987034,54298.562112987034,54298.562112987034,54298.562112987034,54298.562112987034,54298.562112987034,54298.562112987034,54298.562112987034,54298.562112987034,54298.562112987034,54298.562112987034,54298.562112987034,54298.562112987034,54298.562112987034,54298.562112987034,54298.562112987034,54298.562112987034,54298.562112987034,54298.562112987034,54298.562112987034,54298.562112987034,54298.562112987034,54298.562112987034,54298.562112987034,54298.562112987034,54298.562112987034,54298.562112987034,54298.562112987034,54298.562112987034,54298.562112987034,54298.562112987034,54298.562112987034,54298.562112987034,54298.562112987034,54298.562112987034,54298.562112987034,54298.562112987034,54298.562112987034,54298.562112987034,54298.562112987034,54298.562112987034,54298.562112987034,54298.562112987034,54298.562112987034,54298.562112987034,54298.562112987034,54298.562112987034,54298.562112987034,54298.562112987034,54298.562112987034,54298.562112987034,54298.562112987034,54298.562112987034,54298.562112987034,54298.562112987034,54298.562112987034,54298.562112987034,54298.562112987034,54298.562112987034,54298.562112987034,54298.562112987034
1,1589.2458303891049,1589.2458303891046,1589.2458303891046,1589.2458303891044,1589.2458303891044,1589.2458303891042,1589.245830389104,1589.245830389104,1589.2458303891037,1589.2458303891037,1589.2458303891035,1589.2458303891033,1589.2458303891033,1589.245830389103,1589.245830389103,1589.2458303891028,1589.2458303891028,1589.2458303891026,1589.2458303891024,1589.2458303891024,1589.2458303891021,1589.2458303891021,1589.245830389102,1589.2458303891017,1589.2458303891017,1589.2458303891015,1589.2458303891015,1589.2458303891012,1589.2458303891012,1589.245830389101,1589.2458303891008,1589.2458303891008,1589.2458303891005,1589.2458303891005,1589.2458303891003,1589.2458303891003,1589.2458303891,1589.2458303890999,1589.2458303890999,1589.2458303890996,1589.2458303890996,1589.2458303890994,1589.2458303890994,1589.2458303890992,1589.245830389099,1589.245830389099,1589.2458303890987,1589.2458303890987,1589.2458303890985,1589.2458303890985,1589.2458303890983,1589.245830389098,1589.245830389098,1589.2458303890978,1589.2458303890978,1589.2458303890976,1589.2458303890976,1589.2458303890974,1589.2458303890971,1589.2458303890971,1589.245830389097,1589.245830389097,1589.2458303890967,1589.2458303890967,1589.2458303890965,1589.2458303890962,1589.2458303890962,1589.245830389096,1589.245830389096,1589.2458303890958,1589.2458303890958,1589.2458303890955,1589.2458303890955,1589.2458303890953,1589.245830389095,1589.245830389095,1589.2458303890949,1589.2458303890949,1589.2458303890946,1589.2458303890946,1589.2458303890944,1589.2458303890944,1589.2458303890942,1589.245830389094,1589.245830389094,1589.2458303890937,1589.2458303890937,1589.2458303890935,1589.2458303890935,1589.2458303890933,1589.2458303890933,1589.245830389093,1589.2458303890928,1589.2458303890928,1589.2458303890926,1589.2458303890926,1589.2458303890924,1589.2458303890924,1589.2458303890921,1589.2458303890921,1589.245830389092,1589.245830389092,1589.2458303890917,1589.2458303890915,1589.2458303890915,1589.2458303890912,1589.2458303890912,1589.245830389091,1589.245830389091,1589.2458303890908,1589.2458303890908,1589.2458303890905,1589.2458303890903,1589.2458303890903,1589.24583038909,1589.24583038909,1589.2458303890899,1589.2458303890899,1589.2458303890896,1589.2458303890896,1589.2458303890894,1589.2458303890894,1589.2458303890892,1589.2458303890892,1589.245830389089,1589.2458303890887,1589.2458303890887,1589.2458303890885,1589.2458303890885,1589.2458303890883,1589.2458303890883,1589.245830389088,1589.245830389088,1589.2458303890878,1589.2458303890878,1589.2458303890876,1589.2458303890876,1589.2458303890874,1589.2458303890871,1589.2458303890871,1589.245830389087,1589.245830389087,1589.2458303890867,1589.2458303890867,1589.2458303890864,1589.2458303890864,1589.2458303890862,1589.2458303890862,1589.245830389086,1589.245830389086,1589.2458303890858,1589.2458303890858,1589.2458303890855,1589.2458303890855,1589.2458303890853,1589.245830389085,1589.245830389085,1589.2458303890849,1589.2458303890849,1589.2458303890846,1589.2458303890846,1589.2458303890844,1589.2458303890844,1589.2458303890842,1589.2458303890842,1589.245830389084,1589.245830389084,1589.2458303890837,1589.2458303890837,1589.2458303890835,1589.2458303890835,1589.2458303890833,1589.2458303890833,1589.245830389083,1589.2458303890828,1589.2458303890828,1589.2458303890826,1589.2458303890826,1589.2458303890824,1589.2458303890824,1589.2458303890821,1589.2458303890821,1589.245830389082,1589.245830389082,1589.2458303890817,1589.2458303890817,1589.2458303890814,1589.2458303890814,1589.2458303890812,1589.2458303890812,1589.245830389081,1589.245830389081,1589.2458303890808,1589.2458303890808,1589.2458303890805,1589.2458303890805,1589.2458303890803,1589.2458303890803,1589.24583038908,1589.24583038908,1589.2458303890799,1589.2458303890799,1589.2458303890796,1589.2458303890796,1589.2458303890794,1589.2458303890794,1589.2458303890792,1589.2458303890792,1589.245830389079,1589.2458303890787,1589.2458303890787,1589.2458303890785,1589.2458303890785,1589.2458303890783,1589.2458303890783,1589.245830389078,1589.245830389078,1589.2458303890778,1589.2458303890778,1589.2458303890776,1589.2458303890776,1589.2458303890774,1589.2458303890774,1589.2458303890771,1589.2458303890771,1589.245830389077,1589.245830389077,1589.2458303890767,1589.2458303890767,1589.2458303890764,1589.2458303890764,1589.2458303890762,1589.2458303890762,1589.245830389076,1589.245830389076,1589.2458303890758,1589.2458303890758,1589.2458303890755,1589.2458303890755,1589.2458303890753,1589.2458303890753,1589.245830389075,1589.245830389075,1589.2458303890749,1589.2458303890749,1589.2458303890746,1589.2458303890746,1589.2458303890744,1589.2458303890744,1589.2458303890742,1589.2458303890742,1589.245830389074,1589.245830389074,1589.2458303890737,1589.2458303890737,1589.2458303890735,1589.2458303890735,1589.2458303890733,1589.2458303890733,1589.245830389073,1589.245830389073,1589.245830389073,1589.2458303890728,1589.2458303890728,1589.2458303890726,1589.2458303890726,1589.2458303890724,1589.2458303890724,1589.2458303890721,1589.2458303890721,1589.245830389072,1589.245830389072,1589.2458303890717,1589.2458303890717,1589.2458303890714,1589.2458303890714,1589.2458303890712,1589.2458303890712,1589.245830389071,1589.245830389071,1589.2458303890708,1589.2458303890708,1589.2458303890705,1589.2458303890705,1589.2458303890703,1589.2458303890703,1589.24583038907,1589.24583038907,1589.2458303890699,1589.2458303890699,1589.2458303890696,1589.2458303890696,1589.2458303890694,1589.2458303890694,1589.2458303890692,1589.2458303890692,1589.2458303890692,1589.245830389069,1589.245830389069,1589.2458303890687,1589.2458303890687,1589.2458303890685,1589.2458303890685,1589.2458303890683,1589.2458303890683,1589.245830389068,1589.245830389068,1589.2458303890678,1589.2458303890678,1589.2458303890676,1589.2458303890676,1589.2458303890674,1589.2458303890674,1589.2458303890671,1589.2458303890671,1589.245830389067,1589.245830389067,1589.245830389067,1589.2458303890667,1589.2458303890667,1589.2458303890664,1589.2458303890664,1589.2458303890662,1589.2458303890662,1589.245830389066,1589.245830389066,1589.2458303890658,1589.2458303890658,1589.2458303890655,1589.2458303890655,1589.2458303890653,1589.2458303890653,1589.245830389065,1589.245830389065,1589.245830389065,1589.2458303890648,1589.2458303890648,1589.2458303890646,1589.2458303890646,1589.2458303890644,1589.2458303890644,1589.2458303890642,1589.2458303890642,1589.245830389064,1589.245830389064,1589.2458303890637,1589.2458303890637,1589.2458303890635,1589.2458303890635,1589.2458303890635,1589.2458303890633,1589.2458303890633,1589.245830389063,1589.245830389063,1589.2458303890628,1589.2458303890628,1589.2458303890626,1589.2458303890626,1589.2458303890623,1589.2458303890623,1589.2458303890621,1589.2458303890621,1589.2458303890621,1589.245830389062,1589.245830389062,1589.2458303890617,1589.2458303890617,1589.2458303890614,1589.2458303890614,1589.2458303890612,1589.2458303890612,1589.245830389061,1589.245830389061,1589.245830389061,1589.2458303890608,1589.2458303890608,1589.2458303890605,1589.2458303890605,1589.2458303890603,1589.2458303890603,1589.24583038906,1589.24583038906,1589.2458303890598,1589.2458303890598,1589.2458303890598,1589.2458303890596,1589.2458303890596,1589.2458303890594,1589.2458303890594,1589.2458303890592,1589.2458303890592,1589.245830389059,1589.245830389059,1589.2458303890587,1589.2458303890587,1589.2458303890587,1589.2458303890585,1589.2458303890585,1589.2458303890583,1589.2458303890583,1589.245830389058,1589.245830389058,1589.2458303890578,1589.2458303890578,1589.2458303890578,1589.2458303890576,1589.2458303890576,1589.2458303890573,1589.2458303890573,1589.2458303890571,1589.2458303890571,1589.245830389057,1589.245830389057,1589.2458303890567,1589.2458303890567,1589.2458303890567,1589.2458303890564,1589.2458303890564,1589.2458303890562,1589.2458303890562,1589.245830389056,1589.245830389056,1589.245830389056,1589.2458303890558,1589.2458303890558,1589.2458303890555,1589.2458303890555,1589.2458303890553
2,-0.031799520025829094,-0.031799520025829094,-0.031799520025829094,-0.031799520025829094,-0.031799520025829094,-0.031799520025829094,-0.031799520025829094,-0.031799520025829094,-0.031799520025829094,-0.031799520025829094,-0.031799520025829094,-0.031799520025829094,-0.03179952002582909,-0.03179952002582909,-0.03179952002582909,-0.03179952002582909,-0.03179952002582909,-0.03179952002582909,-0.03179952002582909,-0.03179952002582909,-0.03179952002582909,-0.03179952002582909,-0.03179952002582909,-0.03179952002582909,-0.03179952002582909,-0.03179952002582909,-0.03179952002582909,-0.03179952002582909,-0.03179952002582909,-0.03179952002582909,-0.03179952002582909,-0.03179952002582908,-0.03179952002582908,-0.03179952002582908,-0.03179952002582908,-0.03179952002582908,-0.03179952002582908,-0.03179952002582908,-0.03179952002582908,-0.03179952002582908,-0.03179952002582908,-0.03179952002582908,-0.03179952002582908,-0.03179952002582908,-0.03179952002582908,-0.03179952002582908,-0.03179952002582908,-0.03179952002582908,-0.03179952002582908,-0.03179952002582908,-0.03179952002582907,-0.03179952002582907,-0.03179952002582907,-0.03179952002582907,-0.03179952002582907,-0.03179952002582907,-0.03179952002582907,-0.03179952002582907,-0.03179952002582907,-0.03179952002582907,-0.03179952002582907,-0.03179952002582907,-0.03179952002582907,-0.03179952002582907,-0.03179952002582907,-0.03179952002582907,-0.03179952002582907,-0.03179952002582907,-0.03179952002582907,-0.03179952002582907,-0.031799520025829066,-0.031799520025829066,-0.031799520025829066,-0.031799520025829066,-0.031799520025829066,-0.031799520025829066,-0.031799520025829066,-0.031799520025829066,-0.031799520025829066,-0.031799520025829066,-0.031799520025829066,-0.031799520025829066,-0.031799520025829066,-0.031799520025829066,-0.031799520025829066,-0.031799520025829066,-0.031799520025829066,-0.031799520025829066,-0.031799520025829066,-0.031799520025829066,-0.03179952002582906,-0.03179952002582906,-0.03179952002582906,-0.03179952002582906,-0.03179952002582906,-0.03179952002582906,-0.03179952002582906,-0.03179952002582906,-0.03179952002582906,-0.03179952002582906,-0.03179952002582906,-0.03179952002582906,-0.03179952002582906,-0.03179952002582906,-0.03179952002582906,-0.03179952002582906,-0.03179952002582906,-0.03179952002582906,-0.03179952002582906,-0.03179952002582906,-0.03179952002582905,-0.03179952002582905,-0.03179952002582905,-0.03179952002582905,-0.03179952002582905,-0.03179952002582905,-0.03179952002582905,-0.03179952002582905,-0.03179952002582905,-0.03179952002582905,-0.03179952002582905,-0.03179952002582905,-0.03179952002582905,-0.03179952002582905,-0.03179952002582905,-0.03179952002582905,-0.03179952002582905,-0.03179952002582905,-0.03179952002582905,-0.03179952002582905,-0.031799520025829045,-0.031799520025829045,-0.031799520025829045,-0.031799520025829045,-0.031799520025829045,-0.031799520025829045,-0.031799520025829045,-0.031799520025829045,-0.031799520025829045,-0.031799520025829045,-0.031799520025829045,-0.031799520025829045,-0.031799520025829045,-0.031799520025829045,-0.031799520025829045,-0.031799520025829045,-0.031799520025829045,-0.031799520025829045,-0.031799520025829045,-0.031799520025829045,-0.031799520025829045,-0.03179952002582904,-0.03179952002582904,-0.03179952002582904,-0.03179952002582904,-0.03179952002582904,-0.03179952002582904,-0.03179952002582904,-0.03179952002582904,-0.03179952002582904,-0.03179952002582904,-0.03179952002582904,-0.03179952002582904,-0.03179952002582904,-0.03179952002582904,-0.03179952002582904,-0.03179952002582904,-0.03179952002582904,-0.03179952002582904,-0.03179952002582904,-0.03179952002582904,-0.03179952002582904,-0.03179952002582903,-0.03179952002582903,-0.03179952002582903,-0.03179952002582903,-0.03179952002582903,-0.03179952002582903,-0.03179952002582903,-0.03179952002582903,-0.03179952002582903,-0.03179952002582903,-0.03179952002582903,-0.03179952002582903,-0.03179952002582903,-0.03179952002582903,-0.03179952002582903,-0.03179952002582903,-0.03179952002582903,-0.03179952002582903,-0.03179952002582903,-0.03179952002582903,-0.03179952002582903,-0.03179952002582903,-0.031799520025829024,-0.031799520025829024,-0.031799520025829024,-0.031799520025829024,-0.031799520025829024,-0.031799520025829024,-0.031799520025829024,-0.031799520025829024,-0.031799520025829024,-0.031799520025829024,-0.031799520025829024,-0.031799520025829024,-0.031799520025829024,-0.031799520025829024,-0.031799520025829024,-0.031799520025829024,-0.031799520025829024,-0.031799520025829024,-0.031799520025829024,-0.031799520025829024,-0.031799520025829024,-0.03179952002582902,-0.03179952002582902,-0.03179952002582902,-0.03179952002582902,-0.03179952002582902,-0.03179952002582902,-0.03179952002582902,-0.03179952002582902,-0.03179952002582902,-0.03179952002582902,-0.03179952002582902,-0.03179952002582902,-0.03179952002582902,-0.03179952002582902,-0.03179952002582902,-0.03179952002582902,-0.03179952002582902,-0.03179952002582902,-0.03179952002582902,-0.03179952002582902,-0.03179952002582902,-0.03179952002582902,-0.03179952002582901,-0.03179952002582901,-0.03179952002582901,-0.03179952002582901,-0.03179952002582901,-0.03179952002582901,-0.03179952002582901,-0.03179952002582901,-0.03179952002582901,-0.03179952002582901,-0.03179952002582901,-0.03179952002582901,-0.03179952002582901,-0.03179952002582901,-0.03179952002582901,-0.03179952002582901,-0.03179952002582901,-0.03179952002582901,-0.03179952002582901,-0.03179952002582901,-0.03179952002582901,-0.03179952002582901,-0.03179952002582901,-0.031799520025829,-0.031799520025829,-0.031799520025829,-0.031799520025829,-0.031799520025829,-0.031799520025829,-0.031799520025829,-0.031799520025829,-0.031799520025829,-0.031799520025829,-0.031799520025829,-0.031799520025829,-0.031799520025829,-0.031799520025829,-0.031799520025829,-0.031799520025829,-0.031799520025829,-0.031799520025829,-0.031799520025829,-0.031799520025829,-0.031799520025829,-0.031799520025829,-0.031799520025828996,-0.031799520025828996,-0.031799520025828996,-0.031799520025828996,-0.031799520025828996,-0.031799520025828996,-0.031799520025828996,-0.031799520025828996,-0.031799520025828996,-0.031799520025828996,-0.031799520025828996,-0.031799520025828996,-0.031799520025828996,-0.031799520025828996,-0.031799520025828996,-0.031799520025828996,-0.031799520025828996,-0.031799520025828996,-0.031799520025828996,-0.031799520025828996,-0.031799520025828996,-0.031799520025828996,-0.031799520025828996,-0.03179952002582899,-0.03179952002582899,-0.03179952002582899,-0.03179952002582899,-0.03179952002582899,-0.03179952002582899,-0.03179952002582899,-0.03179952002582899,-0.03179952002582899,-0.03179952002582899,-0.03179952002582899,-0.03179952002582899,-0.03179952002582899,-0.03179952002582899,-0.03179952002582899,-0.03179952002582899,-0.03179952002582899,-0.03179952002582899,-0.03179952002582899,-0.03179952002582899,-0.03179952002582899,-0.03179952002582899,-0.03179952002582899,-0.03179952002582899,-0.03179952002582898,-0.03179952002582898,-0.03179952002582898,-0.03179952002582898,-0.03179952002582898,-0.03179952002582898,-0.03179952002582898,-0.03179952002582898,-0.03179952002582898,-0.03179952002582898,-0.03179952002582898,-0.03179952002582898,-0.03179952002582898,-0.03179952002582898,-0.03179952002582898,-0.03179952002582898,-0.03179952002582898,-0.03179952002582898,-0.03179952002582898,-0.03179952002582898,-0.03179952002582898,-0.03179952002582898,-0.03179952002582898,-0.031799520025828976,-0.031799520025828976,-0.031799520025828976,-0.031799520025828976,-0.031799520025828976,-0.031799520025828976,-0.031799520025828976,-0.031799520025828976,-0.031799520025828976,-0.031799520025828976,-0.031799520025828976,-0.031799520025828976,-0.031799520025828976,-0.031799520025828976,-0.031799520025828976,-0.031799520025828976,-0.031799520025828976,-0.031799520025828976,-0.031799520025828976,-0.031799520025828976,-0.031799520025828976,-0.031799520025828976,-0.031799520025828976,-0.031799520025828976,-0.031799520025828976,-0.03179952002582897,-0.03179952002582897,-0.03179952002582897,-0.03179952002582897,-0.03179952002582897,-0.03179952002582897,-0.03179952002582897,-0.03179952002582897,-0.03179952002582897,-0.03179952002582897,-0.03179952002582897,-0.03179952002582897,-0.03179952002582897,-0.03179952002582897,-0.03179952002582897,-0.03179952002582897,-0.03179952002582897,-0.03179952002582897,-0.03179952002582897,-0.03179952002582897,-0.03179952002582897,-0.03179952002582897,-0.03179952002582897,-0.03179952002582897,-0.03179952002582896,-0.03179952002582896,-0.03179952002582896,-0.03179952002582896,-0.03179952002582896,-0.03179952002582896,-0.03179952002582896,-0.03179952002582896,-0.03179952002582896,-0.03179952002582896,-0.03179952002582896,-0.03179952002582896,-0.03179952002582896,-0.03179952002582896,-0.03179952002582896,-0.03179952002582896,-0.03179952002582896,-0.03179952002582896,-0.03179952002582896,-0.03179952002582896,-0.03179952002582896,-0.03179952002582896,-0.03179952002582896,-0.03179952002582896,-0.03179952002582896,-0.031799520025828955,-0.031799520025828955
3,0.5655956369173654,0.5655956369173654,0.5655956369173654,0.5655956369173654,0.5655956369173654,0.5655956369173654,0.5655956369173654,0.5655956369173654,0.5655956369173654,0.5655956369173654,0.5655956369173654,0.5655956369173654,0.5655956369173653,0.5655956369173653,0.5655956369173653,0.5655956369173653,0.5655956369173653,0.5655956369173653,0.5655956369173653,0.5655956369173653,0.5655956369173653,0.5655956369173653,0.5655956369173653,0.5655956369173653,0.5655956369173653,0.5655956369173653,0.5655956369173653,0.5655956369173653,0.5655956369173653,0.5655956369173653,0.5655956369173653,0.5655956369173653,0.5655956369173653,0.5655956369173653,0.5655956369173651,0.5655956369173651,0.5655956369173651,0.5655956369173651,0.5655956369173651,0.5655956369173651,0.5655956369173651,0.5655956369173651,0.5655956369173651,0.5655956369173651,0.5655956369173651,0.5655956369173651,0.5655956369173651,0.5655956369173651,0.5655956369173651,0.5655956369173651,0.5655956369173651,0.5655956369173651,0.5655956369173651,0.5655956369173651,0.5655956369173651,0.565595636917365,0.565595636917365,0.565595636917365,0.565595636917365,0.565595636917365,0.565595636917365,0.565595636917365,0.565595636917365,0.565595636917365,0.565595636917365,0.565595636917365,0.565595636917365,0.565595636917365,0.565595636917365,0.565595636917365,0.565595636917365,0.565595636917365,0.565595636917365,0.565595636917365,0.565595636917365,0.565595636917365,0.565595636917365,0.5655956369173649,0.5655956369173649,0.5655956369173649,0.5655956369173649,0.5655956369173649,0.5655956369173649,0.5655956369173649,0.5655956369173649,0.5655956369173649,0.5655956369173649,0.5655956369173649,0.5655956369173649,0.5655956369173649,0.5655956369173649,0.5655956369173649,0.5655956369173649,0.5655956369173649,0.5655956369173649,0.5655956369173649,0.5655956369173649,0.5655956369173649,0.5655956369173649,0.5655956369173649,0.5655956369173648,0.5655956369173648,0.5655956369173648,0.5655956369173648,0.5655956369173648,0.5655956369173648,0.5655956369173648,0.5655956369173648,0.5655956369173648,0.5655956369173648,0.5655956369173648,0.5655956369173648,0.5655956369173648,0.5655956369173648,0.5655956369173648,0.5655956369173648,0.5655956369173648,0.5655956369173648,0.5655956369173648,0.5655956369173648,0.5655956369173648,0.5655956369173648,0.5655956369173647,0.5655956369173647,0.5655956369173647,0.5655956369173647,0.5655956369173647,0.5655956369173647,0.5655956369173647,0.5655956369173647,0.5655956369173647,0.5655956369173647,0.5655956369173647,0.5655956369173647,0.5655956369173647,0.5655956369173647,0.5655956369173647,0.5655956369173647,0.5655956369173647,0.5655956369173647,0.5655956369173647,0.5655956369173647,0.5655956369173647,0.5655956369173647,0.5655956369173647,0.5655956369173646,0.5655956369173646,0.5655956369173646,0.5655956369173646,0.5655956369173646,0.5655956369173646,0.5655956369173646,0.5655956369173646,0.5655956369173646,0.5655956369173646,0.5655956369173646,0.5655956369173646,0.5655956369173646,0.5655956369173646,0.5655956369173646,0.5655956369173646,0.5655956369173646,0.5655956369173646,0.5655956369173646,0.5655956369173646,0.5655956369173646,0.5655956369173646,0.5655956369173646,0.5655956369173646,0.5655956369173645,0.5655956369173645,0.5655956369173645,0.5655956369173645,0.5655956369173645,0.5655956369173645,0.5655956369173645,0.5655956369173645,0.5655956369173645,0.5655956369173645,0.5655956369173645,0.5655956369173645,0.5655956369173645,0.5655956369173645,0.5655956369173645,0.5655956369173645,0.5655956369173645,0.5655956369173645,0.5655956369173645,0.5655956369173645,0.5655956369173645,0.5655956369173645,0.5655956369173645,0.5655956369173645,0.5655956369173644,0.5655956369173644,0.5655956369173644,0.5655956369173644,0.5655956369173644,0.5655956369173644,0.5655956369173644,0.5655956369173644,0.5655956369173644,0.5655956369173644,0.5655956369173644,0.5655956369173644,0.5655956369173644,0.5655956369173644,0.5655956369173644,0.5655956369173644,0.5655956369173644,0.5655956369173644,0.5655956369173644,0.5655956369173644,0.5655956369173644,0.5655956369173644,0.5655956369173644,0.5655956369173644,0.5655956369173643,0.5655956369173643,0.5655956369173643,0.5655956369173643,0.5655956369173643,0.5655956369173643,0.5655956369173643,0.5655956369173643,0.5655956369173643,0.5655956369173643,0.5655956369173643,0.5655956369173643,0.5655956369173643,0.5655956369173643,0.5655956369173643,0.5655956369173643,0.5655956369173643,0.5655956369173643,0.5655956369173643,0.5655956369173643,0.5655956369173643,0.5655956369173643,0.5655956369173643,0.5655956369173643,0.5655956369173641,0.5655956369173641,0.5655956369173641,0.5655956369173641,0.5655956369173641,0.5655956369173641,0.5655956369173641,0.5655956369173641,0.5655956369173641,0.5655956369173641,0.5655956369173641,0.5655956369173641,0.5655956369173641,0.5655956369173641,0.5655956369173641,0.5655956369173641,0.5655956369173641,0.5655956369173641,0.5655956369173641,0.5655956369173641,0.5655956369173641,0.5655956369173641,0.5655956369173641,0.5655956369173641,0.5655956369173641,0.565595636917364,0.565595636917364,0.565595636917364,0.565595636917364,0.565595636917364,0.565595636917364,0.565595636917364,0.565595636917364,0.565595636917364,0.565595636917364,0.565595636917364,0.565595636917364,0.565595636917364,0.565595636917364,0.565595636917364,0.565595636917364,0.565595636917364,0.565595636917364,0.565595636917364,0.565595636917364,0.565595636917364,0.565595636917364,0.565595636917364,0.565595636917364,0.565595636917364,0.565595636917364,0.5655956369173639,0.5655956369173639,0.5655956369173639,0.5655956369173639,0.5655956369173639,0.5655956369173639,0.5655956369173639,0.5655956369173639,0.5655956369173639,0.5655956369173639,0.5655956369173639,0.5655956369173639,0.5655956369173639,0.5655956369173639,0.5655956369173639,0.5655956369173639,0.5655956369173639,0.5655956369173639,0.5655956369173639,0.5655956369173639,0.5655956369173639,0.5655956369173639,0.5655956369173639,0.5655956369173639,0.5655956369173639,0.5655956369173639,0.5655956369173638,0.5655956369173638,0.5655956369173638,0.5655956369173638,0.5655956369173638,0.5655956369173638,0.5655956369173638,0.5655956369173638,0.5655956369173638,0.5655956369173638,0.5655956369173638,0.5655956369173638,0.5655956369173638,0.5655956369173638,0.5655956369173638,0.5655956369173638,0.5655956369173638,0.5655956369173638,0.5655956369173638,0.5655956369173638,0.5655956369173638,0.5655956369173638,0.5655956369173638,0.5655956369173638,0.5655956369173638,0.5655956369173638,0.5655956369173637,0.5655956369173637,0.5655956369173637,0.5655956369173637,0.5655956369173637,0.5655956369173637,0.5655956369173637,0.5655956369173637,0.5655956369173637,0.5655956369173637,0.5655956369173637,0.5655956369173637,0.5655956369173637,0.5655956369173637,0.5655956369173637,0.5655956369173637,0.5655956369173637,0.5655956369173637,0.5655956369173637,0.5655956369173637,0.5655956369173637,0.5655956369173637,0.5655956369173637,0.5655956369173637,0.5655956369173637,0.5655956369173637,0.5655956369173637,0.5655956369173636,0.5655956369173636,0.5655956369173636,0.5655956369173636,0.5655956369173636,0.5655956369173636,0.5655956369173636,0.5655956369173636,0.5655956369173636,0.5655956369173636,0.5655956369173636,0.5655956369173636,0.5655956369173636,0.5655956369173636,0.5655956369173636,0.5655956369173636,0.5655956369173636,0.5655956369173636,0.5655956369173636,0.5655956369173636,0.5655956369173636,0.5655956369173636,0.5655956369173636,0.5655956369173636,0.5655956369173636,0.5655956369173636,0.5655956369173636,0.5655956369173635,0.5655956369173635,0.5655956369173635,0.5655956369173635,0.5655956369173635,0.5655956369173635,0.5655956369173635,0.5655956369173635,0.5655956369173635,0.5655956369173635,0.5655956369173635,0.5655956369173635,0.5655956369173635,0.5655956369173635,0.5655956369173635,0.5655956369173635,0.5655956369173635,0.5655956369173635,0.5655956369173635,0.5655956369173635,0.5655956369173635,0.5655956369173635,0.5655956369173635,0.5655956369173635,0.5655956369173635,0.5655956369173635,0.5655956369173635,0.5655956369173635,0.5655956369173634,0.5655956369173634
