,0,1,2,3,4,5,6,7,8,9,10,11,12,13,14,15,16,17,18,19,20,21,22,23,24,25,26,27,28,29,30,31,32,33,34,35,36,37,38,39,40,41,42,43,44,45,46,47,48,49,50,51,52,53,54,55,56,57,58,59,60,61,62,63,64,65,66,67,68,69,70,71,72,73,74,75,76,77,78,79,80,81,82,83,84,85,86,87,88,89,90,91,92,93,94,95,96,97,98,99,100,101,102,103,104,105,106,107,108,109,110,111,112,113,114,115,116,117,118,119,120,121,122,123,124,125,126,127,128,129,130,131,132,133,134,135,136,137,138,139,140,141,142,143,144,145,146,147,148,149,150,151,152,153,154,155,156,157,158,159,160,161,162,163,164,165,166,167,168,169,170,171,172,173,174,175,176,177,178,179,180,181,182,183,184,185,186,187,188,189,190,191,192,193,194,195,196,197,198,199,200,201,202,203,204,205,206,207,208,209,210,211,212,213,214,215,216,217,218,219,220,221,222,223,224,225,226,227,228,229,230,231,232,233,234,235,236,237,238,239,240,241,242,243,244,245,246,247,248,249,250,251,252,253,254,255,256,257,258,259,260,261,262,263,264,265,266,267,268,269,270,271,272,273,274,275,276,277,278,279,280,281,282,283,284,285,286,287,288,289,290,291,292,293,294,295,296,297,298,299,300,301,302,303,304,305,306,307,308,309,310,311,312,313,314,315,316,317,318,319,320,321,322,323,324,325,326,327,328,329,330,331,332,333,334,335,336,337,338,339,340,341,342,343,344,345,346,347,348,349,350,351,352,353,354,355,356,357,358,359,360,361,362,363,364,365,366,367,368,369,370,371,372,373,374,375,376,377,378,379,380,381,382,383,384,385,386,387,388,389,390,391,392,393,394,395,396,397,398,399,400,401,402,403,404,405,406,407,408,409,410,411,412,413,414,415,416,417,418,419,420,421,422,423,424,425,426,427,428,429,430,431,432,433,434,435,436,437,438,439,440,441,442,443,444,445,446,447,448,449,450,451,452,453,454,455,456,457,458,459,460,461,462,463,464,465,466,467,468,469,470,471,472,473,474,475,476,477,478,479,480,481,482,483,484,485,486,487,488,489,490,491,492,493,494,495,496,497,498,499,500,501,502,503,504,505,506,507,508,509,510,511,512,513,514,515,516,517,518,519,520,521,522,523,524,525,526,527,528,529,530,531,532,533,534,535,536,537,538,539,540,541,542,543,544,545,546,547,548,549,550,551,552,553,554,555,556,557,558,559,560,561,562,563,564,565,566,567,568,569,570,571,572,573,574,575,576,577,578,579,580,581,582,583,584,585,586,587,588,589,590,591,592,593,594,595,596,597,598,599,600,601,602,603,604,605,606,607,608,609,610,611,612,613,614,615,616,617,618,619,620,621,622,623,624,625,626,627,628,629,630,631,632,633,634,635,636,637,638,639,640,641,642,643,644,645,646,647,648,649,650,651,652,653,654,655,656,657,658,659,660,661,662,663,664,665,666,667,668,669,670,671,672,673,674,675,676,677,678,679,680,681,682,683,684,685,686,687,688,689,690,691,692,693,694,695,696,697,698,699,700,701,702,703,704,705,706,707,708,709,710,711,712,713,714,715,716,717,718,719,720,721,722,723,724,725,726,727,728,729,730,731,732,733,734,735,736,737,738,739,740,741,742,743,744,745,746,747,748,749,750,751,752,753,754,755,756,757,758,759,760,761,762,763,764,765,766,767,768,769,770,771,772,773,774,775,776,777,778,779,780,781,782,783,784,785,786,787,788,789,790,791,792,793,794,795,796,797,798,799,800,801,802,803,804,805,806,807,808,809,810,811,812,813,814,815,816,817,818,819,820,821,822,823,824,825,826,827,828,829,830,831,832,833,834,835,836,837,838,839,840,841,842,843,844,845,846,847,848,849,850,851,852,853,854,855,856,857,858,859,860,861,862,863,864,865,866,867,868,869,870,871,872,873,874,875,876,877,878,879,880,881,882,883,884,885,886,887,888,889,890,891,892,893,894,895,896,897,898,899,900,901,902,903,904,905,906,907,908,909,910,911,912,913,914,915,916,917,918,919,920,921,922,923,924,925,926,927,928,929,930,931,932,933,934,935,936,937,938,939,940,941,942,943,944,945,946,947,948,949,950,951,952,953,954,955,956,957,958,959,960,961,962,963,964,965,966,967,968,969,970,971,972,973,974,975,976,977,978,979,980,981,982,983,984,985,986,987,988,989,990,991,992,993,994,995,996,997,998,999,1000,1001,1002,1003,1004,1005,1006,1007,1008,1009,1010,1011,1012,1013,1014,1015,1016,1017,1018,1019,1020,1021,1022,1023,1024,1025,1026,1027,1028,1029,1030,1031,1032,1033,1034,1035,1036,1037,1038,1039,1040,1041,1042,1043,1044,1045,1046,1047,1048,1049,1050,1051,1052,1053,1054,1055,1056,1057,1058,1059,1060,1061,1062,1063,1064,1065,1066,1067,1068,1069,1070,1071,1072,1073,1074,1075,1076,1077,1078,1079,1080,1081,1082,1083,1084,1085,1086,1087,1088,1089,1090,1091,1092,1093,1094,1095,1096,1097,1098,1099,1100,1101,1102,1103,1104,1105,1106,1107,1108,1109,1110,1111,1112,1113,1114,1115,1116,1117,1118,1119,1120,1121,1122,1123,1124,1125,1126,1127,1128,1129,1130,1131,1132,1133,1134,1135,1136,1137,1138,1139,1140,1141,1142,1143,1144,1145,1146,1147,1148,1149,1150,1151,1152,1153,1154,1155,1156,1157,1158,1159,1160,1161,1162,1163,1164,1165,1166,1167,1168,1169,1170,1171,1172,1173,1174,1175,1176,1177,1178,1179,1180,1181,1182,1183,1184,1185,1186,1187,1188,1189,1190,1191,1192,1193,1194,1195,1196,1197,1198,1199,1200,1201,1202,1203,1204,1205,1206,1207,1208,1209,1210,1211,1212,1213,1214,1215,1216,1217,1218,1219,1220,1221,1222,1223,1224,1225,1226,1227,1228,1229,1230,1231,1232,1233,1234,1235,1236,1237,1238,1239,1240,1241,1242,1243,1244,1245,1246,1247,1248,1249,1250,1251,1252,1253,1254,1255,1256,1257,1258,1259,1260,1261,1262,1263,1264,1265,1266,1267,1268,1269,1270,1271,1272,1273,1274,1275,1276,1277,1278,1279,1280,1281,1282,1283,1284,1285,1286,1287,1288,1289,1290,1291,1292,1293,1294,1295,1296,1297,1298,1299,1300,1301,1302,1303,1304,1305,1306,1307,1308,1309,1310,1311,1312,1313,1314,1315,1316,1317,1318,1319,1320,1321,1322,1323,1324,1325,1326,1327,1328,1329
0,-5497.396233422044,-5085.918416918991,-6665.487192011358,-5540.470020856218,-5504.253217319647,-6026.356144351077,-5577.803644029711,-4413.173241288764,-5876.523035474888,-6326.6530788511,-4805.085974871599,-5337.237660509821,-5102.326088068673,-4621.276074652176,-6511.296394126763,-5622.819275175757,-5605.356200801314,-4826.054516022162,-5334.503937522227,-5642.9946542327,-5627.338793970985,-4425.786598368659,-5306.409521509546,-5545.91674520958,-5714.821540923493,-4054.105009019912,-5644.636718665877,-5270.298097119273,-4596.171377999638,-4357.032324767772,-4352.5508710328095,-5072.266822883871,-5489.224691662458,-5109.050126150575,-5008.921417387927,-4699.179590435263,-5494.1065565691015,-4342.609969333035,-5019.661407440123,-6549.540126700851,-5486.140860971257,-5997.974614402392,-5879.621770491552,-5530.414885355987,-5076.426059042107,-5606.1444203391275,-5500.9732432105575,-5010.522353628354,-5383.271997102785,-5648.957296698304,-5630.420720407432,-6879.208042377408,-5676.531230016895,-5102.307701748375,-5533.510922265057,-5623.276211863994,-5394.677858599174,-5742.711270782746,-6067.188181475661,-5272.984841981929,-5700.836842337979,-5479.668752496214,-5322.793792611712,-5037.117083900044,-5025.210537158326,-5591.723204201333,-4715.751536937187,-5079.206846389282,-5478.055557640101,-5168.3636746872,-6015.912515379907,-4364.44879303247,-5486.482002573511,-5027.160047457994,-5016.411561332476,-5083.343644392697,-5012.851912720304,-5005.161911783549,-5088.517096815572,-5801.9429914947295,-6087.100994403205,-5109.110798331939,-5536.035751252962,-5978.972893039819,-6377.427250380376,-4791.1046189783165,-3982.8577049380747,-6529.336179012978,-5010.5152254662125,-5532.237141885573,-5354.051922013492,-5280.666809709448,-5557.487537857223,-4339.988368938561,-5652.219765149154,-5302.5903972936985,-5634.042971447436,-4746.459224300435,-4917.365400501779,-5427.906426979474,-4931.5149891329875,-5324.428461765657,-5409.4068758712765,-5357.630062316878,-5419.6284091950265,-5291.762798544377,-5998.592370864911,-5497.829504666539,-5420.786085596334,-4767.49716297651,-5005.6678046130655,-5502.1765750350405,-5523.275406003317,-5047.365954006284,-4969.388495485404,-4597.89505910618,-5313.457084075253,-5709.930467304981,-4954.191289436755,-5618.603105300739,-5365.565262222797,-5362.45916746428,-5096.51828987234,-4807.246683558518,-5352.400370075947,-5319.944871474108,-4354.096853199067,-5404.029974856868,-6352.619331837768,-6588.277164456241,-5923.073839995918,-4389.015050831315,-5043.661927902898,-5299.790852324303,-6276.508294939095,-5269.1931108815525,-5923.708283176384,-6285.7414730233695,-4805.858555234655,-5289.058868290285,-4420.0036701819845,-5324.706388368498,-4910.296158679929,-5596.71405437463,-5357.045691421925,-4111.206122369821,-5370.846013073864,-5699.540264130703,-4781.680468639864,-5013.848952127376,-5328.724593776307,-4750.260921993517,-4353.424285146713,-5480.175553060682,-6789.470404589237,-4914.139113372919,-5045.508285202366,-4725.978437132617,-5008.286474454242,-5060.194634475056,-5397.339807865969,-4996.629555600797,-4710.597470488313,-4336.503278806968,-4769.70774858706,-5484.580461916183,-5348.057284933167,-5946.1877681588885,-5986.787830428773,-5920.227234512627,-5413.221018245172,-5034.34373597958,-5339.231116023825,-5989.835553238387,-5001.530178845154,-3867.67615270991,-4715.264746030643,-5800.320715574889,-4343.250554080025,-5291.969671558472,-5972.816771880456,-5964.36166946192,-5272.31234367521,-4952.831826098353,-6147.303670593762,-5564.4372479073845,-5315.111979170915,-5981.223199013772,-6335.46049508094,-5278.835548143555,-5304.28890585716,-5043.225304182137,-5687.862569673357,-4415.403591664713,-5195.657824298583,-4089.2032973005926,-5378.564332212408,-4331.6765643670915,-4787.574556712054,-4949.849696600177,-5914.983041775405,-4291.017809083605,-4493.506193543582,-5498.994381186485,-6069.4408195160195,-4330.666869006415,-4723.732592851123,-5041.960313915409,-4961.939871032323,-4959.953493605235,-5828.321443380672,-5615.258374781416,-5850.622372944538,-6131.673606742817,-5408.657667270072,-5246.241915926452,-4751.068313207247,-5259.856622609895,-6611.39599363203,-5284.135105188058,-5370.303885837904,-5340.684357278283,-5295.8392583474015,-4864.849429691613,-5285.32593580621,-4743.65198318744,-4562.083442914399,-5508.883532897227,-3908.231829207628,-5243.923983034834,-5224.320377396986,-6375.4313036466765,-4863.8195048395255,-5224.258762541596,-5259.677513339575,-5181.428917587312,-5599.248586026999,-4576.2417592324955,-5504.707759307461,-5610.760935378867,-4704.975285851803,-5963.942929614423,-6017.37850023739,-5563.822501472782,-4718.743167160281,-6016.404829123287,-4937.698225339492,-5431.743358227908,-4553.7446431094695,-5491.052668023547,-5540.667156351197,-6034.595358760652,-5003.7015858811465,-5299.347322207705,-4907.782911991932,-5573.276128599341,-5292.263139173935,-6561.914732752708,-5220.685556931074,-4338.578847319314,-4517.926555247201,-4764.10456376355,-5800.935428664234,-5408.54043205871,-4415.478408384868,-5509.1990367261005,-4954.112105780433,-5212.557942299478,-4354.107118281908,-5319.982131792849,-4801.854218795632,-5358.335472926968,-5273.22099446176,-3837.503595995894,-4856.606586711184,-5226.035889887682,-4859.861480908921,-4373.878698963326,-4758.169752115959,-5437.245933508731,-6000.989194566769,-6275.477275483478,-4537.223835195179,-4791.602863044874,-5370.13979367043,-5352.210305461304,-5212.007062025698,-5327.35806980111,-4976.389021068639,-5514.611444192837,-5192.353132506182,-4751.58199992287,-4770.601427798035,-4943.727382393799,-5758.5711238500935,-5668.338423631684,-3815.5772905591343,-5241.251542094201,-5996.408016200909,-4339.840621827055,-5356.691686036749,-6160.315689114874,-6145.616128337309,-5248.10617466898,-4724.712180036421,-5890.188787713308,-5320.199339806516,-4542.196880910151,-5257.128732113861,-5206.600857270965,-5191.098374817687,-4915.064309342479,-5245.231460197902,-4700.4811701909575,-4980.319437349985,-4387.449129140755,-5174.464791048999,-5287.170756548598,-5749.956268787457,-4840.950414474935,-3669.445820799106,-4796.290823303213,-5308.991663645395,-5336.369806600484,-4306.878508779597,-4723.6897016064195,-5324.696550676691,-4747.134978376734,-4774.07818048862,-4889.176670812691,-4809.133395969295,-4926.467836286958,-5213.8327147245955,-4994.2933651527155,-4417.5766235733645,-4831.407895666294,-4948.153476981083,-4312.864655230553,-4647.422063711576,-5208.669191929164,-5325.061958335984,-5192.360187637378,-4937.064438726788,-5697.5307275549485,-5174.0912594066795,-5353.961557024095,-5162.244383385165,-4675.4963403853735,-5172.922203187569,-5231.753161445996,-4970.952969920096,-4903.095077532584,-4851.181516254726,-4738.95424114948,-4955.146070475342,-4770.6343580624625,-4861.660457166478,-5743.58843030158,-4287.000477313995,-4828.015274339232,-4793.393830518717,-5334.729464443459,-5241.102303235191,-4749.95914890819,-5180.603517640089,-4219.976674314592,-4918.21856840121,-4962.551776694451,-4287.2130816119625,-4955.24174565854,-4952.4359595478145,-4653.504911513127,-5142.920088477236,-4845.601813682736,-4764.301530114355,-4553.392372285616,-4392.219539620706,-5409.872331640618,-5531.604159247766,-3866.925750005065,-5153.5689184983075,-4775.915039277143,-5912.80209264394,-5205.777819331354,-3972.9648060238483,-3934.3062642218956,-4441.057631883304,-3947.7269017645826,-3664.127124214969,-3623.322453778968,-5922.649227755177,-5078.035038789513,-5190.315685417505,-4653.422531074988,-4958.85362234207,-4862.150835544802,-5780.738263943176,-4638.918059678706,-3810.391021873274,-6051.721992847988,-5137.882224017643,-3987.5577461187418,-4899.9456457737515,-4740.885924215457,-5099.776750267236,-4802.594826353436,-3970.35129789668,-5148.613046764377,-5366.5208972607,-4707.50474426563,-4190.937105514489,-5298.465400944332,-4818.765757018804,-5158.138937273855,-4843.93709431451,-3714.1489486639416,-3801.030514189624,-5158.731650760417,-5171.4378945710405,-3867.243101779209,-6139.132083769978,-3949.617294983367,-4720.564024434154,-5494.370391533709,-5279.914539979072,-5994.014842685804,-5251.668459953726,-4403.403646909482,-4011.6851211418016,-5188.631495169238,-6120.776487118362,-5208.02347103873,-5211.150196760617,-4273.130910698416,-5746.774085284096,-6016.778245189537,-4024.6449208171657,-3985.8093289557514,-5203.478145421361,-4824.156503930168,-5273.92676006589,-3826.3636660276197,-4510.864058426343,-4913.08585860284,-5191.639465491003,-3860.037615152404,-3939.935689678109,-5076.89184855208,-4630.805639875855,-4443.466425691179,-3632.0006703214626,-3888.1639687785137,-5100.74195727429,-4554.12803169757,-5479.71465472781,-5233.737034418066,-4693.457017893749,-5139.937431547741,-4623.235741469378,-5239.47044832477,-4884.494053604915,-4350.709093213604,-3685.4009017946782,-5415.16210799184,-5166.17737543974,-3207.8778760609957,-6564.402145546677,-5275.564968572125,-3909.2054863232242,-5655.948058812587,-3923.339123992401,-4622.506830972077,-4769.989901065496,-5190.5218311668295,-5355.376788013963,-4709.37720160746,-5299.942777182004,-5099.1816647161995,-4859.343518927099,-6025.542410785429,-3972.0680099906967,-3989.0245087049652,-4884.000565732341,-5169.143472249386,-3978.011097300805,-4486.461209437991,-5122.151623789302,-6596.579221910912,-5746.33203466039,-3697.3169439193925,-5089.746297125445,-5790.872545902243,-5431.877755213763,-3678.162057152667,-3822.3879508385407,-5182.136320762047,-4769.709477283856,-4816.732728497397,-4036.07240213391,-3819.046362524392,-5373.396842901121,-5766.6217242810535,-5409.112655683851,-3952.7440466689977,-5134.41903312678,-4877.525302751163,-4069.4357979909582,-4012.864287680112,-5794.124620071079,-4796.503408121375,-4469.8517348570285,-4687.163196163815,-4425.251114051322,-5089.6008509967605,-3865.6357414032627,-4221.889481674765,-5799.157804309239,-5358.257048673704,-5420.918551299332,-5269.96241483241,-5610.2815417498305,-5324.454002367929,-4009.4232076236253,-3662.6317665331585,-5901.174990328434,-5389.1007021686655,-4896.194320897466,-5155.305188667942,-3803.797603213266,-5138.37645794453,-5829.534305343974,-5071.236211586594,-4777.041492906585,-3883.314184229273,-5124.216267353637,-5141.549412283549,-4281.779324771974,-3920.4268152404125,-4847.371434238554,-4678.080510412563,-4608.012080448946,-4816.525919155165,-5076.485704903445,-4349.860551485839,-4615.246028903229,-5046.744210338273,-4779.6506177287265,-4837.159708001745,-4543.588187550322,-5263.30997727244,-3953.33067810322,-5064.600788734487,-3938.8030620111567,-4569.255164636742,-3923.737773718135,-4714.162554264007,-5091.566197722841,-4481.6172939801245,-5095.82439313195,-5007.665127160742,-4789.894955809606,-3834.821846264489,-3948.869188262229,-4383.706363268419,-4694.320310027573,-4587.972368977807,-3836.609855757251,-5128.9917647743105,-5478.256894329277,-4234.492931482919,-3832.4718946819557,-4786.270358492062,-5043.173306122193,-6002.586786691132,-3871.6593232306504,-5372.410648376561,-3857.6214798481446,-5125.525561772219,-5083.509214994012,-4211.076482675443,-5283.7860755785705,-5069.214256145845,-5181.565115034568,-4012.84745802515,-5085.88332460109,-5886.73634508632,-5832.387549226736,-4568.609313720434,-5307.133167779878,-4700.197812574347,-3914.1244682375714,-4981.160683883798,-4290.8660582446555,-4799.279866588983,-4696.131361210531,-5803.504222391637,-5031.370196606436,-4615.0852097021425,-4782.736647074318,-5012.74365439552,-5282.621865550201,-5046.25494966133,-4516.049039927362,-5035.890091932695,-5133.565267005797,-5716.452527797519,-3979.540144823952,-5019.509009038311,-5150.1239617921665,-5071.360312450519,-4693.782836604761,-3809.416604837344,-5853.364108958194,-5729.324649590401,-5279.276365311693,-5009.474205075162,-5004.660726370281,-5056.916113999301,-5104.050949868136,-3977.9515455191895,-4731.7532954420285,-5617.6305895218875,-5030.812546583815,-5055.218335945492,-4468.407757947851,-5012.6880882256255,-5046.2173653019245,-5756.502648856911,-4739.889223811863,-4688.417469204365,-5912.8207239513185,-5051.308136873052,-5338.946892275619,-5095.4869100886135,-3864.5364171368833,-5123.464291939533,-5179.781358715965,-4612.858717519789,-5087.395855671333,-5018.47238065975,-5078.61397774143,-3845.244047199952,-5360.455711725441,-6024.362492795638,-5100.200250820939,-5025.134155024665,-5075.619686300372,-4715.457538020827,-4709.949467303422,-4824.7463443383795,-4807.094932501752,-5049.199066964438,-5027.783575586142,-3903.628732232394,-3854.537365527839,-5000.910602819377,-5289.789281506534,-5084.177314905216,-5104.959278974787,-4570.34436273905,-5808.065177894633,-5083.431481320356,-3918.1135392543556,-3956.085893977912,-5068.558288672817,-5099.208873716264,-4708.275458669857,-5104.682689010683,-4809.845668845476,-5124.225564701536,-5834.9663049087285,-5321.44941778988,-5397.686761939511,-3822.905341275046,-5012.639547444263,-4964.950318422853,-5842.270816454242,-4467.203218946923,-4777.682573028771,-5027.346360892654,-5653.5148321589495,-5815.322096974549,-4601.065508903608,-5071.743984852631,-4981.361044709202,-5084.110450074735,-4769.472829124384,-4746.155156352972,-5162.445421609713,-5093.753121453291,-4035.6365533155745,-4593.144708489966,-5038.502195750613,-5604.49034597492,-3866.15372018465,-3982.841115367959,-5088.303763718784,-5029.178581008323,-5067.3221609355505,-4567.25721750536,-5066.975772814082,-5891.665900759799,-4582.325197297372,-5232.952818249894,-4980.7014832406685,-3936.91753334632,-4295.623016917722,-4341.088230843712,-5225.984400043361,-5707.278774849423,-4464.7863259456635,-3944.111627194689,-5014.657285624603,-3910.4831916395556,-5028.993446530824,-4558.055489059098,-5211.178367233068,-5763.587247514694,-5042.682268588871,-4961.013247987254,-4712.979562893602,-5015.615936833776,-4661.864146828313,-4951.758006910123,-4555.998425157251,-4967.847926203717,-5039.742622197077,-3848.6959692461423,-5042.485666041534,-4972.021720362644,-5748.602486294771,-5660.867037337788,-3835.8831876050403,-4708.692416403672,-5061.734246835423,-4649.079751182567,-4980.661329411441,-4547.548386305332,-5142.222014585557,-4985.715772443505,-3810.510917124635,-3933.168367486034,-4999.976884040706,-4645.020373592618,-5018.535559760547,-4677.733081785372,-5015.155490919093,-4527.033938279266,-3835.932710740443,-5158.373599352136,-4985.466071608537,-5027.952804039167,-4978.686851910838,-5008.09447371775,-5949.708726704768,-4582.959715003504,-5086.772110358081,-5060.165009046173,-5054.1289950647,-5082.854678434498,-5042.950322092649,-5101.167888624217,-5162.26949028967,-3868.9984105278645,-5051.287719164194,-5045.052389992332,-3840.8834777304487,-4746.733276606298,-4980.445643900087,-3925.8120836036146,-3825.07070890945,-4715.640712619067,-5021.934219826021,-3789.755674546217,-5059.257495035359,-4995.609261457277,-5032.486100095948,-3662.9868403590744,-4533.905004271976,-5202.85466765225,-4960.298671459923,-5246.315549987711,-4442.796311228602,-4981.39049770223,-5574.163712999301,-5149.785998689882,-4542.240340652258,-5622.8968481328475,-5035.095044140887,-3964.147079910755,-4542.143899598314,-5618.802910546233,-5188.26867424072,-4609.2395879906635,-5271.24164906875,-5725.408267349783,-4545.365617671419,-4016.803988564302,-5701.70451686053,-5570.416928363091,-3847.295500356887,-3956.814093343672,-5026.832389567394,-5031.1662115240115,-4404.148860137386,-5607.386898507037,-5601.861031529938,-4723.485448764999,-5235.699972152642,-5666.5116693553255,-5041.56541862254,-4560.262408825977,-3944.9104995180855,-4966.861800916228,-5090.79176151656,-3807.696617223378,-5074.7710139663795,-5008.88537919826,-5015.0117432241805,-3850.6421441054786,-5034.541000564914,-5004.675860924329,-4465.099207685145,-4563.673860996751,-3947.258774062208,-5497.449089601434,-4966.058039464566,-4418.004519476486,-4982.482740289931,-5934.97926079595,-5025.313348712053,-4948.841541261584,-4565.825708123487,-5031.856505409922,-4927.132773179234,-4995.2048552211445,-4603.76198085418,-5235.029015970697,-5653.6484102088825,-4479.6575565910525,-3854.8012959570437,-4501.130767305344,-5007.830130004959,-5034.861447875507,-4473.444430356265,-3811.9547998047424,-5010.970765852056,-5566.344566388634,-4007.850585407875,-3918.1706706165733,-5605.314843269555,-5305.972419676174,-5199.989863424022,-4916.28414151943,-5233.648446946652,-5040.075525960553,-5936.613778083597,-4517.162037270193,-4460.08360285678,-4978.552314942906,-5003.759905012787,-5323.124132542822,-5593.889017566291,-4952.974130527038,-5185.5883138370855,-5401.281384256934,-4525.539698129314,-4942.212172035274,-3758.166604275804,-3620.118303808171,-4928.999222349514,-4636.915450122547,-4942.4201850432855,-5029.504350139667,-3786.171412134774,-5647.95018438917,-4944.714674217705,-4350.535046295276,-4704.572790407417,-5762.569780799097,-5100.162697984308,-5257.685928921971,-4553.269443543662,-5231.2947833441385,-4990.170433600759,-4570.649885461099,-5145.014188549481,-4943.014320911644,-3955.1287436698926,-5099.419397040947,-5005.638635439744,-5509.416271613936,-5006.17153524795,-4811.661031644514,-4956.005276080559,-5274.833324322756,-4595.725642988735,-3821.943845949827,-4961.673415353199,-5510.225001838007,-3836.3141335472146,-3789.0874203155654,-4941.573643445474,-4968.65928191746,-5004.432441353247,-3986.316448602476,-5004.946235118908,-4934.995555946247,-4988.766125747696,-4299.6434972687775,-4647.396346896883,-5528.589260514071,-4584.4578014293165,-6492.837648531733,-5653.435966673155,-5599.7368504278475,-5015.645667665004,-4738.964353992558,-5529.8323761525235,-5583.935548074414,-3833.3179117508976,-4637.4750643990765,-4949.666230581881,-4944.829046570029,-3817.711923986288,-4982.002511539892,-4991.763564487488,-5105.445443688145,-3987.4845269919488,-5067.2805967842405,-5057.166805768226,-3973.8168326031314,-4554.8720403885745,-4975.392860239319,-5111.339564787908,-5486.890910274648,-4974.843187067469,-4986.539464225493,-5019.524498670652,-5048.936914707406,-4498.935831552508,-3890.337132628664,-4946.935879750794,-4594.531730361544,-4992.003890384499,-5451.297322752024,-4905.374015059382,-4503.158503312123,-3931.041615547538,-5036.6715972264,-4988.295160280905,-4961.987920043801,-4984.312822163824,-5475.136653982862,-5256.203712412136,-3866.809171625402,-5009.385780220808,-4981.893764537176,-3818.0281572286103,-4985.346822696326,-4606.938321747096,-4705.793445608092,-5230.511398550693,-3811.9865794435277,-4973.05665164388,-5168.542096160447,-4562.904814673663,-3946.92934412328,-5152.482292155821,-4621.581609693459,-4697.5667425249785,-5477.087904110026,-4932.618318378754,-3617.953117780149,-3593.8230272892347,-5099.268660122181,-5441.438227349486,-3812.2685951359326,-4691.308695219694,-4969.315053582892,-3795.984095332456,-4323.4980518324055,-3910.2152636406854,-5436.747720831948,-4975.601660815558,-3826.1680311233595,-5146.468772644087,-5449.771094735279,-5384.305273844577,-5015.193340201652,-3783.2545734394785,-5487.559181653204,-5485.491092144979,-4637.3927083435965,-4418.03296791714,-5191.966509745229,-4947.879346481038,-4920.821591272458,-4864.782916372102,-4939.004857537144,-4937.153196084145,-3786.994495295479,-4943.69845621043,-5396.319392798755,-4862.065169888574,-4937.403595382559,-4268.946063252955,-5480.463237888492,-5503.967501068732,-3598.4679292672467,-4971.213275357986,-4954.691926657183,-5444.043086365776,-4839.347396289887,-3824.081686897955,-4938.641663485871,-5010.786519195557,-3999.3090058082175,-4768.179104350882,-4434.064699381063,-4875.491333082212,-5384.600755330014,-4517.601567636196,-4861.217317283706,-4662.510921127247,-5157.707739250037,-3763.673958300622,-3820.201295203371,-5129.6021120170235,-4608.827732814663,-4870.815247863639,-4846.894253563856,-4471.562907537516,-4869.485628911408,-5474.102606648604,-4487.661513841343,-4916.143848135341,-3745.464141223201,-4935.228803729685,-4465.328759772556,-4496.473599153732,-4747.728620070631,-4979.13013534127,-4454.47935658842,-4940.993698182656,-4897.422599993286,-5520.101627933937,-3951.454696896123,-4054.7615372401133,-5108.83200962973,-4951.045029516271,-4860.029496308979,-4486.510108783453,-4611.287423623869,-5465.406735764115,-3793.6284939281177,-4965.175800273014,-4741.6313920652,-5173.7845477748515,-3615.8497991932854,-4523.309642174673,-3903.2716985949482,-5093.191987736811,-5156.475057056508,-3977.9678856844453,-4882.072886227865,-5053.851638731566,-4760.830621207395,-4619.596872833603,-4964.479725255401,-5492.899430122111,-3620.5020851957156,-3835.499366995754,-4568.510465700305,-3877.583929764518,-5349.226582520653,-3920.680903189981,-4724.383176880204,-4904.104969024939,-3814.5677662241173,-4908.811640827095,-4659.938544410914,-5448.669579876785,-4866.455687293331,-3778.213040070095,-3883.447690999253,-4920.582121132977,-4300.84061664296,-4809.424047394721,-5397.625588783372,-4705.36960309956,-4715.888871418305,-4907.05818575969,-5423.983032566598,-4913.181913736907,-4641.940241461234,-3970.98057239924,-4452.949533413255,-4932.7699075551145,-3773.914452355612,-3790.417987071407,-4901.506686446764,-4923.745741938051,-4909.99356340349,-4400.291302700413,-5540.288760974571,-5372.716618502205,-4969.771739797849,-4488.627914826378,-4688.193136967388,-3793.816764250466,-4143.582180777362,-4464.2840874232525,-4988.677762310629,-4452.6485281888135,-4692.013246024256,-4688.386605242667,-3925.6141638152794,-4795.144727260147,-4783.535475780852,-3929.6172276280126,-4714.318396370921,-4993.872349941557,-4478.934853502936,-3913.3248412600706,-3912.7742774228295,-3806.131457929859,-4439.5589465555295,-5162.3530379046015,-4695.732566967431,-4444.358486471711,-4803.081879855359,-4455.587414467521,-4915.229723098837,-5134.162601159669,-3975.9834015541646,-4865.093896130342,-4628.251647819376,-3763.1385776313646,-5170.333633698644,-5358.209345061842,-4885.048599268171,-5103.786550851595,-4516.265121214002,-3782.7302639429595,-4797.707388982593,-4596.571299463433,-4656.360820815258,-3929.8869808393256,-4899.181530958712,-3950.273609380636,-3650.5002752858695,-3780.887102470187,-5586.263922038801,-5145.512154984277,-4747.326012249693,-4456.7015629736825,-3931.5808763423306,-4608.385473103597,-3944.266889417618,-5216.062409689199,-5151.725954409278,-5093.514502554182,-4541.363329174931,-4718.116845164505,-3950.425798272635,-4513.113128179044,-4548.978521584822,-4831.061327846072,-4907.174527641497,-4326.366192951466,-5166.676306768216,-5118.325329007934,-4727.0203713345845,-4519.048964830443,-4636.389885402145,-4731.50109392689,-4726.916250238902,-4654.33884838703,-4756.912460440252,-5180.624051449742,-3972.1606893719913,-5113.9320042413665,-3919.4080756879666,-3922.240220148841,-3975.2070345929387,-4514.562839284279,-5074.968752374217,-3945.1462272177787,-4537.600575383832,-4720.539317293849,-4887.7275928841,-4520.176920049022,-4671.675668440939,-4691.451821583794,-4701.921075155665,-4662.625967107546,-4488.516176369548,-5472.957816360871,-4680.563686259658,-4689.308788886106,-3617.4016580332204,-5496.206599645783,-4550.9445392891885,-4736.870715012446,-3626.9188524663714,-5647.579818620323,-5535.000156175111,-5492.480169760404,-4463.324808467651,-4622.106463129824,-3924.252384871232,-4698.570881693056,-5134.487438972115,-4795.381974522585,-5139.669594614499,-4682.463049043664,-3784.4385662695017,-4428.57006145056,-4721.157509270662,-4516.152950843867,-5133.684249264238,-5022.435266987468,-4532.719493746286,-4510.09625309947,-5063.081504464525,-4632.634638919119,-5127.366900422131,-4473.773986022808,-5126.074276816021,-4797.512181655098,-4668.836627736272,-4729.875421074521,-4048.047560983108,-4711.707326593296,-4755.41406914423,-5387.372354213749,-4888.880640233597,-3807.714606519275,-4315.572961089268,-4504.132282954557,-3910.602988544065,-4929.428517494851,-4353.25117527982,-5052.372441287319,-4683.851339922517,-4611.155731996355,-4465.096284667734,-3640.090071056759,-4502.721634830408,-5013.700555861935,-4642.394245297379,-4499.2137209389775,-4676.079862449551,-4692.949378388334,-3950.7602442123016,-3841.9016197516703,-4521.957937872514,-4400.1902267288415,-4615.8519563720265,-5477.900173299917,-4857.351845183007,-5102.662552146553,-3746.782648607882,-5084.423068184202,-4457.316582760654,-4903.452224611084,-5108.546590001045,-4894.871680668584,-4345.687005643981,-3923.548626223819,-5041.688732537425,-5407.703341834114,-3642.9234608749452,-3630.085937043473,-4650.12208386489,-4692.199856846268,-5423.842830426378,-4623.25205090883,-4881.025934768204,-5048.466288768322,-4554.893636663516,-5114.9351628606,-5846.612761565524,-4346.04359922836,-4694.669152336242,-5455.983775671046,-4654.217796697474,-4493.437644209978,-4615.441597625357,-4826.667805501342,-5087.943305655524,-3775.3296599002947,-4684.268643152491,-5494.919432777884,-4654.107225583501,-4524.0337800105235,-4511.924286919687,-4034.565161516114,-4634.442582553736,-4835.464311428911,-3821.463570871035,-4478.277222560579,-5109.864968691939,-4874.046196870621,-4841.561764321998,-4540.147290302191,-4539.440856629489,-3899.29210429466,-3897.457931122806,-4731.03356148103,-4616.98549771243,-3881.080262084548,-4455.473959196937,-3973.559802175671,-4507.352430187189,-4370.836752449392,-4786.452422708878,-4453.62955816338,-4410.612814288588,-4740.015159584752,-4737.7293460225565,-4443.913503405396,-4763.779691608726,-4639.144676445528,-3922.038758512838,-4494.084342288046,-4722.312721424039,-4805.793259334078,-4865.793253755491
1,333.3705482243621,333.37044655670263,332.36948019172496,333.37059873994644,333.37044672792547,333.37041426433484,333.3704331141272,335.37284288255535,332.3693039341678,332.3693139812642,333.37045429773974,334.37166228884473,332.36945305202556,333.3704625757577,332.36935512544716,334.37178590003634,333.3704867580447,333.37049646244,333.37043675700767,332.36935621501783,333.3704850276263,334.3715959691294,333.3704183932587,333.37043370487544,333.37042967935037,336.37377698556,332.36942185473873,333.3705210781427,334.37164741511356,334.37158085066335,335.3730927002327,333.3704695350394,333.3705613752649,333.37044334912207,333.370541747521,333.3705245001408,333.37046358590703,335.3727114959834,333.37044107574906,332.36930922320937,333.3705278789038,333.37083339069227,333.3704239597243,333.37046430446384,333.3704192482833,332.36935789633594,333.370486433342,333.37051714992776,333.3706290275669,334.37153564099845,332.3693648273277,332.3693431915005,332.36938214186245,333.37055931220294,334.3715383570166,333.3704349007512,333.3705375243912,331.3683038051008,331.36825195654706,333.37047172587233,333.37052775213385,333.3705633546518,333.3704677459831,333.3704424400265,333.3704119540533,332.3693648269852,333.37075863285014,333.370431031193,333.37042500732616,332.3695433700002,331.3682889803691,334.3717554277954,333.370468453443,333.3704491120183,333.37065914988284,333.370484588676,333.3705642619769,333.37045312403455,333.370475273367,333.37048849927174,332.369366906482,333.370549963311,333.370460735773,333.37042183300593,332.36930411196045,333.37045375053304,335.37266511755786,333.3705927385409,333.3705538017938,333.37059426918574,333.370514240196,333.37051185287925,333.37044165017363,335.37278347589955,333.3704594315745,333.370447140467,333.37058580226005,333.3705356245619,333.37046849562944,333.3704328910132,333.37062612951286,333.3705717252766,332.36953058487666,334.37162672137845,333.3704513487676,333.3704189563526,333.37044145984004,333.3704576893512,333.3706084949866,333.37053548136305,333.3704776781297,333.3704738899675,333.3705568138506,333.3704532312179,333.37042096991473,334.37154638995236,334.3715723184421,333.37044068339,333.37041391873584,332.3694054459961,333.3705471295727,333.37050686517307,333.3705187165255,333.3706021536616,334.3716319538787,334.3716136384493,334.37156862054184,333.3704896677676,332.3694783281033,332.3694444629521,333.37043969932006,334.3718579655722,333.3704202716367,333.3705382995891,332.36950823869324,333.3704122760282,333.37041427302165,332.36930857506997,333.37042444370184,333.3705551545185,335.3726638986328,334.3717287894488,333.370503960672,333.37042056117446,333.3704476874002,335.37264351822176,333.3704253046772,332.36937557503325,333.37043752691665,333.3704455653732,333.37048292005045,333.37055627022187,334.3715316331569,333.3704438293606,332.36940675505133,333.3704150926824,333.3705153601046,333.3704381557371,333.3704822505334,333.3705204345907,333.3704626649565,333.37042189091324,333.37051415182367,334.3716207452783,333.37048489060203,333.37048136363484,333.3704558222641,331.36826898405366,333.37045075608717,332.36930430037705,333.37046863131087,333.37049248347984,332.3694238267472,332.36960522655085,333.3706075475219,336.37386400608494,333.3705366114266,333.3704428601645,334.37159137366643,333.37051867073455,332.3695583338432,333.37051100160386,332.3694046038153,333.37068719312833,332.3693461036949,332.36936797262666,332.36930648635064,331.368242733959,332.36931135407053,333.3705116131049,333.3704687259577,333.37043629727845,333.3704620595438,334.3717883743337,332.3693584222729,335.3727629871258,333.3704250256623,334.3716247899803,333.3704174049677,333.37048632653534,332.3693338504536,334.37156508964443,334.3716216962135,333.3704553557355,332.36933609118165,334.3715771479729,333.3705792887292,333.37054629368095,333.37053284621743,333.3707164417098,333.3705075185749,333.3704407772053,333.37042829691535,332.3694025913921,333.37048026039463,332.36933248313215,333.37043825797474,333.37050618566855,332.36942503807745,333.370478299464,333.37041537554666,333.3704371139072,333.3705774537149,333.37050580160854,332.3693843487475,333.370415027584,334.37157279819127,333.3704666894988,336.3739779633043,333.3704714041787,333.3704629789437,331.36835971139914,333.3705339025751,332.3694282502968,333.37061548833645,333.3704401921687,332.3693376060156,334.37153588575524,333.3705082946721,333.3704840858321,333.3705187855959,331.3682851629382,332.3693213429884,333.3704297795763,333.3706782790578,331.36829298479955,333.3704230316666,333.37043161647364,334.37155254803105,333.3704254977149,333.3705571114863,331.36824046097314,333.3704235812073,333.370471089977,333.37044671000336,333.3704353123846,332.3695046231124,332.36930765693893,333.37059100727095,334.3716350549571,334.371867150312,333.3705093015446,333.37043669923895,332.3693777310792,334.37171523630997,333.3705028932987,333.3704220792827,333.37043080031134,334.3716048753244,333.37041858002266,333.37045001287674,333.37053136196505,332.3693130176116,336.37411162647794,333.3705338247263,333.3704245290529,333.37044014242895,334.3715894529431,333.3704296279629,333.3704532678294,332.3693277081518,332.369306405296,334.37160936834584,333.3704382176728,333.37050370334094,333.37042386436315,333.37047544173674,333.37043935349965,333.3705253051187,332.36930812637763,332.3693106181426,333.37048309180807,333.3705043202114,333.3704839160382,333.3704659060462,332.3693412977475,336.3737793005527,333.3704286404197,332.3693555996673,334.3715612885168,333.37045648145636,332.3693929140058,332.36932258869024,333.3706797445453,333.37042275692613,331.3682478162213,333.37047469152776,334.3715392786885,332.3694574436053,333.37049844453554,332.369304582763,333.37054029833484,333.3704686577121,333.370459815053,333.3705927600167,334.37174224203017,332.36930028838395,332.36937792711285,333.3704317384772,333.37048342094226,337.3748781338801,333.37046809257464,333.3705188031056,333.3706391121843,334.3715833009681,333.37047780979333,333.37046359021576,333.3706243178241,333.37047804427186,333.37049587408706,333.3705117201866,333.37051391644655,333.3704923610606,333.37050216969874,334.3715246447397,333.37042740401125,333.3705166947227,334.3716181370741,333.37067465482653,332.3693406111072,333.37044584032355,332.36933004181,333.37045051323594,333.3704463585072,333.3704186100633,333.37054467179587,332.36939904051576,333.37051039120854,333.37057110820973,333.3704404899784,333.37066687890103,333.3704467723534,333.37046630444837,333.37042828562863,333.3706431029495,333.3704715621094,333.3704353725022,333.3705194454658,335.37268432964316,333.3704891316766,333.37041788365343,333.37041343263184,333.3705348947369,333.37043913182237,332.3693772430691,335.3733161685022,333.37046135369513,333.37048809502215,334.37157244093953,333.3706694760707,333.37043757236523,334.3715342958913,333.3704136957155,333.3704137988937,333.370415355692,334.3716209562845,335.3726701548222,333.3705263254378,333.370608307238,336.37403791599746,333.3704712981786,333.3705916243276,331.3682090324999,333.3704299671283,335.37268522058463,335.3727629025235,334.371524921001,335.372815880799,337.375028672651,337.37501363649733,332.3693463915702,333.3705104547521,333.37050946550244,334.37171462794385,333.3705132348082,333.3704153299439,333.37043411778103,334.3716419059245,336.3738936840205,332.36939565630996,333.3704303575245,335.37270453883207,333.3704949191629,333.37046338981247,333.3705172291733,333.3704866262121,335.37274903523144,332.36935513965557,333.3704410437552,333.37057064776957,335.3726379281143,333.37041615111303,333.37054921552476,333.37052998470233,333.37070422167824,336.3737979677086,336.3738358085773,333.370523231955,332.369384451974,336.3740635964358,332.36930060657966,335.3729679227512,333.3705994392837,332.3694777115088,333.37043490225994,332.369673412002,333.37044884820193,335.3727670377897,335.3726532393743,333.37047068747177,332.36930310621085,333.3704965452948,332.36941724743536,335.3727750860484,333.3704261568272,332.3693408546465,335.37278105153916,335.3726986174266,332.3695151213348,333.3705207902946,333.37047899453137,336.3741969258966,334.37176957698324,333.3705382186787,332.36935126170533,336.373832359797,335.3727880904988,333.37046869479667,333.3704566138502,334.37154211974513,336.3738677023403,335.372677744492,333.3705208595514,334.3717016282826,333.37046622696886,332.36938791774907,333.3704783687499,333.3704305440003,333.3704894981143,333.3707064415798,333.3704723547166,334.37161854570166,336.37386126703905,332.3694107767317,333.370513356586,338.3760356110729,332.36941447045785,333.3704243703045,335.37266905849697,332.36940297425303,335.3728192106407,334.3716321810712,333.3704922366633,333.3705223303632,333.37044943048,333.37058657204346,333.37047366478697,333.3705315258673,333.3705314315562,332.36936711049725,335.37328088687235,335.37302953172565,333.37047648770823,333.3705034043584,335.3726866687873,334.37169386917486,332.3693877215396,331.36820016445364,333.3704593634532,336.3740234401191,333.3705144782405,332.36933854137135,333.37048056861795,337.3750756693578,336.3740362454315,333.3704308829107,333.37072204810727,333.37055987500696,335.37289682547777,336.3739195588795,332.3693242069618,333.3704299288754,332.3693546280395,335.3726547996374,332.36939214597794,333.3704411127425,335.37279674500536,335.3726874960513,332.369419274562,333.3704156222671,334.37154966466295,333.37048166418083,334.37185386232795,332.36961270618224,336.37378075340996,335.3727324650668,332.3693031008543,333.37051477312576,332.36933161991453,333.3704520212887,333.3704477417443,332.3693947131592,335.3728566955845,336.3738166059457,331.36825912507106,333.37042891071025,333.37069846478147,332.3693966814508,336.3740466026712,332.36931101240725,332.3694656098676,332.36935561698937,333.3705289056426,335.372737223365,332.36932665088324,332.3695637624327,334.37162410259094,335.3727893948336,333.3705271538507,333.3705177197663,334.37165804932846,333.3705056753133,333.37052700831066,334.37173456018274,333.37049403500197,332.3693884734489,333.37049244598217,333.37045930966275,334.3715433868406,333.37055196298104,335.37317661901153,333.3704408985284,335.3727058081787,334.37168397925575,335.3727567392876,333.3706647639233,332.36946047292133,334.3716078208804,333.37042800767654,333.3704553622179,333.37066930441847,336.37375286531903,335.3729911694585,334.371946956805,333.3707880024038,334.37176067553025,336.3739383295727,332.36933681304475,333.370456871078,335.37265952078246,336.3739725309085,333.3707340214269,333.37049856028983,332.3693722744257,336.3737944429614,332.3693367999455,335.3730785511584,332.36948419954183,333.37049855063736,335.37273213967376,332.3693950009322,333.370425394625,333.3704496682295,335.37280199609,332.36935321226804,332.36934138044694,331.3683612053779,334.37153929555063,332.3693170581498,333.3704333819149,335.3728383231285,333.3705071574857,334.37171127003336,333.3704807342394,333.37061946213794,332.3693546723202,333.370488538526,333.370463415391,333.3704598753236,332.36939690774443,333.37051748748655,332.3693163110684,334.37167777040355,333.3704606450875,332.3693201851647,332.36932167388346,335.372871267647,332.3693747460416,332.36932262626135,332.36941394772407,333.3704401827199,336.37383821745453,332.3694422203512,332.36944273703904,332.3693590535273,332.3694823054161,333.37044264687745,332.36932237932365,332.3693171616888,335.37300211855626,333.3706397307741,332.36930197128595,333.3707354431392,333.37050423339446,334.3716343781985,333.370445764444,332.36946872347806,331.36829763305616,333.3704574438873,333.3704539595605,332.3693008399616,332.3694175370918,333.3704490260197,333.37053104489917,335.37276268170774,333.3704936422193,332.36932249964457,334.37161541995823,333.3704713734916,333.3704253644173,333.3704374026558,336.3740136839128,332.3694441608648,332.3693674308171,332.36940143709086,333.370445424569,333.37068154880114,333.37050807669874,333.3707788744283,333.37061125417046,333.37052469716656,333.370421001663,333.3705227482755,335.3727238379273,336.37377747747104,333.37043026263706,332.36930275082136,332.3693479272398,333.37043075430853,334.3715524092646,332.3694475018718,332.36936648558844,335.3727739769347,335.3727538576248,332.3695700970542,332.36931360558174,333.3709053898871,332.3693310377283,334.3716398128471,332.3693008733231,332.36931163330763,333.37050759386744,332.36930749539556,336.374007811609,332.3693034376708,332.3694423059676,332.36931159953934,334.37153863604544,333.37043444734803,333.3704960506273,332.3694062499084,332.36933262593146,333.37056574534574,332.3693245511794,333.3704500978015,332.369396685646,333.3705235111446,333.3704789330179,333.37045023694884,332.36937345747,335.3727360503485,333.37049017189617,333.370428807777,332.36931935087455,336.37411125774355,335.3730093756428,332.36934922776254,333.3704135852847,332.3693385731661,333.37069233106746,332.36930991773363,332.36945281167357,334.37152514403175,333.3705695259065,333.3705164344317,335.3729474636005,334.3716143179703,334.37159261551017,332.3693214635296,332.3694320345999,334.3715682887242,335.37273083993995,333.37064191488525,335.37295314663584,333.3704635553547,334.37156631642495,333.37063116776005,332.36939930887706,332.36936728741,333.3707160694413,333.3707526385025,332.36938179740514,333.37053448806506,332.3693300069508,333.37044066288473,332.3695940239818,332.3693925700347,335.3727264509638,332.3693123994444,332.3693141792522,332.3693264746847,332.36940339619423,336.3738957980873,333.37064672716207,332.36936390751123,333.3704133423013,332.3694420956973,334.37154275150925,333.37041479413057,333.37054961841096,336.3741849533334,335.37275914900135,332.3694358883599,333.37049523960866,332.3694149092888,333.37041462661307,332.36930455016835,334.3715340292217,336.37426177340694,332.3693037970774,332.3693407384829,332.3693372806713,332.3693704442918,332.3693304837802,332.3694170650302,333.3705110827881,332.3693545611053,332.3693572950016,332.3693442584876,332.36945066495934,333.37058392003297,332.36939119410476,333.37041312989095,336.3739966758713,332.36932966172566,333.3704298802989,336.3738453284289,333.37063627839177,333.37046687903955,335.3728373121699,336.3737635849144,333.37061618579315,332.3694277389802,336.37376907298807,332.36933033443535,333.3704461832942,332.36930524799243,337.3751532372949,334.37154101571247,332.3693292281294,333.3705267439676,332.3693350211816,334.37155235435023,333.37041868346546,332.3693937418508,332.36932367218407,334.3716530061243,332.36930909541087,332.36939530637954,335.3726433958524,333.37044476604575,332.3693060488065,333.3704183106355,333.370469372009,332.36951158477893,332.3694708464939,334.37154723432457,335.3727725633566,332.36942394927644,332.3694195905229,336.373768867009,335.3727636421253,332.3693668164282,332.36932933168066,334.37153527063396,332.3693262942456,332.3693424678729,333.3704677070991,332.36932058466084,332.36939200412786,332.36947637481785,334.37156347430493,335.37273493129595,332.36941404935726,332.3693936106847,336.3741840772276,332.36931309257545,333.3704294225681,332.3693354363524,336.37376841609887,332.3693755772521,332.3695442363797,334.3716785797933,334.37155042676005,335.37313595781944,332.36936051673837,332.3693728651073,334.37152571755627,332.36937612976027,332.3693430956469,332.36940612819023,332.3693238581126,333.3706952770507,332.3694428168993,333.3704377746787,332.36939282178514,333.37043551831226,332.3693474232801,332.36934300466726,334.3716913711467,336.3739692170849,334.37164691599946,332.3693898934501,332.36934130779173,334.37152879339175,336.37375653120546,332.3693656346924,332.36937343531923,335.37304857858845,335.37267130803133,332.36932578167097,332.3693439642167,332.36938723566846,332.36940029398176,332.3693465895552,332.3693359267766,332.3693777855233,334.37158147195476,333.37051187732374,333.3705643539735,332.369330360677,332.36936491203176,332.36930296924436,333.37041386572963,332.3693243283799,333.3704802909117,333.3704507178494,332.3693601556191,336.3738354482312,337.37526740214605,333.370609318704,333.3705071671909,332.3693237854775,333.37053264566504,336.3738577932489,332.36940965562576,332.369356174603,334.3716005002592,333.3705116931395,332.3693906027399,332.369313123031,332.36939589362237,334.3715440337219,333.3704187688853,333.37042398643644,334.37183412179155,332.36939957198183,333.3704746423494,335.37269932672154,332.36944715023446,332.3693064351194,332.36933007631774,332.36938304375013,333.37044752525287,332.3693278820544,332.36946649523884,333.37058476505103,336.37393286387277,333.37046491396956,332.3693664068953,336.37418649359023,336.37391790437897,332.36952265357144,332.36932374758993,332.369431739094,335.37269252054193,332.3693004205655,332.3693473802502,332.36935979588793,335.3729604760117,333.37054081789984,332.3694033085621,333.3704432354185,333.37041185320743,332.3693725361687,332.369328706366,333.3707178378292,333.37046128302256,332.3693886949947,332.36934124638236,336.3738724422402,333.37044792377776,333.3704819514745,332.36938005738887,336.37387693050016,332.36937010005994,332.36946152437895,332.36930570788667,335.3728837371305,332.36930808088147,332.36931344891264,335.3728070456461,334.37165484650865,332.3693520814909,332.3694123409965,333.37050527489856,333.3704997608694,332.3693080025717,332.3693889398854,332.3693549403682,333.37052043530105,335.3726725936669,332.3693128596772,333.37054525937737,332.36939120704534,332.36937935625497,332.3693319216004,334.37153804758054,335.3727450671405,332.36931879202115,332.3694731484408,332.36939185073857,333.37060829583106,332.3694979618017,332.3693710430972,336.3740055455608,332.36931969964775,332.36932149132645,336.3738019962917,332.36932194197203,333.37045625161744,333.37044144561867,333.3705693526177,336.37422567716544,332.369345141377,332.36930275677094,333.370504573422,335.3726384157647,332.36931433018566,333.3705080445879,333.3704581147077,332.36931144640573,333.3705133481805,337.3752542055845,337.3751516033139,332.36935676894313,332.3693379652962,336.37380203004295,333.3704862437314,332.3693244643612,336.37380572874224,335.37270758814947,335.37266085661656,332.3693554002818,332.3693331659009,336.37375352774,332.3693297479935,332.36932232194465,332.36939633346117,332.36931808588884,336.374226359582,332.3694774619226,332.3694169455104,333.37042251597273,334.3716557181551,332.3694663292915,332.36946547750324,332.36930720957895,332.36932431430523,332.3693691340346,333.37043075613934,336.3738752066141,332.36936560694477,332.36935884451435,333.3706135944902,332.36939023507347,335.3726386557654,332.36930293698333,332.3693263674925,337.37517868378586,333.3704819082373,333.3705817355358,332.369376114706,332.3693455376523,336.37387740158357,332.3694932534914,332.3695079888658,335.3727802718669,333.370442393974,333.3707580626351,332.36942167523716,332.36941791937136,334.371652573339,332.36930873541115,333.3704801068694,332.3693923652744,336.3741027504681,336.37397389907875,332.36933915634523,333.3704416815702,333.37052704013877,334.37154669719115,334.3715403035434,332.3694369655358,332.36940784448655,334.37154539131336,332.36953453031293,336.37414401831256,332.3694016662739,333.37044374901467,334.37169114817937,333.3704553083486,332.3693099878162,334.37169135666466,333.3704197029451,332.36944886988766,332.3693084349498,335.3726705017794,335.3727940981084,332.36939157809087,332.3693758834301,332.3693317224841,334.3715618954084,333.3706693774716,332.3694580545241,336.37394512186177,332.36930044904864,333.3705120905193,332.3693531016774,337.3752247120028,333.37052459765346,335.37277818800794,332.3694092598003,332.3695290989025,335.3726368882096,333.3704842242233,332.36939440219487,332.369332181625,333.37060003489535,332.369311594079,332.3693756107604,337.37496689606127,336.3737938541631,333.37068792536695,335.37289420902306,333.3704344354872,335.37271065892793,333.3704844171519,332.3693178087337,336.3739574610742,333.37054959970925,333.3704267791684,332.3693225704116,332.36940754287457,336.37419719021943,335.3728506213894,332.3694757609654,335.3726539397005,332.3693503527081,332.3693406442369,333.37046550436526,334.3717150361065,332.36957014010744,332.3695668685235,332.36933872725956,333.3704588489847,335.37273189626956,333.3704645675856,332.36947256084596,336.3739144907635,336.37385212544615,332.3693922508218,332.369331502694,332.36932093364965,334.3715274475992,332.36938647963945,332.36932404773177,333.3704151672445,334.37159259989784,333.3705532726068,336.37404277356404,335.37271746213474,333.37046240149186,332.3694655666313,333.3704326562533,333.3705775014144,333.3704848167999,335.3729143014462,332.36939878965256,332.3693258967138,335.37276431569023,333.37046786563036,333.37045881616365,334.371616535311,335.3727854352578,335.3728330232993,336.3740889072604,334.37162217324925,332.36935594564574,333.3704606661035,334.3716011894606,334.371779318051,333.37069135713085,332.36934473069357,332.3693035006959,335.37269870854726,333.37047692317606,333.37052486642443,336.37415142669647,332.3693361114388,332.3693196918607,332.36933923557075,332.3694345635642,334.3715688634429,336.37388678275136,332.3693440898588,333.3705160707159,333.3704434245147,335.3728200787948,332.36930390252354,335.3727132527502,337.3750022857434,336.3738410940785,332.36936308390693,332.3693456317293,334.37164299351934,333.37050321883146,335.37271216119126,333.3704256548367,335.37275858844134,332.36937621157057,332.3693097312009,333.3704849742222,333.3704619044441,333.37047531481267,335.3727453583922,334.37156540552394,333.37044738910265,332.36933030663937,332.36935348289103,335.3727372629879,332.3693419524944,332.36943152596933,334.3715644124517,334.37153837454764,333.3704343194713,333.3704364471641,334.3716847226458,333.370530123908,332.36939878552005,332.36952621358665,335.3728550444575,332.3693058680411,335.37263964567916,335.37300278031535,335.37281746452516,334.3716010445371,332.36932112658104,335.3727817763069,334.37162195021557,333.37046901041805,332.36930145797214,333.37046087907316,334.37159956117785,333.3706505038524,333.3705331516357,333.3705528663334,334.37158380649976,332.36933130285246,333.37045202111386,333.3704909019141,337.3750188333436,332.3693947147631,333.3704578150224,334.3716963588019,337.3749860895174,331.3682034612573,332.3693337300283,332.3694896210034,333.37049279185385,333.3704465466642,335.37264203734486,333.37043547044334,332.3693157505638,332.3693765732224,332.36942843378336,333.3706489072896,336.37378556877877,333.3704359131097,333.37045275984246,334.37157152333367,332.36941673486433,332.3693446240442,333.37050186314394,334.3718840394734,332.3693795217315,333.37061339507807,332.36936097867726,334.37159541746337,332.36941721725935,332.36936886533545,333.370442522843,333.3704871507095,335.37276728508857,334.3715609640409,333.37047239743293,332.36932390862984,333.37042299796684,336.3738959677956,335.37263721470487,333.37066560212946,335.3726761136668,333.37042567473225,334.371682740008,332.3694518933971,333.370486621907,333.3705711646985,334.37153480747935,337.37540320656313,333.3704536253444,332.3693016850045,333.3705046114768,333.3704139409962,333.37044166267475,333.37053963839037,335.37293621831014,336.3737603137192,333.3705280613648,333.3704250889945,333.3706482550457,333.37045634907946,332.3695157430723,332.3693495932767,336.3737888686646,332.36935489668326,334.37182336055685,332.3693272707718,332.369441053243,332.36938735455374,335.3726907257154,335.3728353162482,332.36932642647895,332.3693525194152,337.37491586826184,337.37500283461395,333.3704307838929,333.37053459488993,333.3704872704525,333.3704335727674,332.369401351167,332.3693166129622,334.37178765735524,332.36930268065464,330.3671356127444,335.3728280521983,333.37045428005797,332.36941340721336,333.3706787573122,334.3717127585341,333.37044222411583,332.369299920519,332.3694229252259,336.37377892927867,333.3704509113938,333.3706239197511,333.37063295443517,333.3704191135681,334.3716121022807,335.3727599027718,333.3705645693947,332.3694580026988,336.37428984311833,334.3715616313781,332.3693021241115,332.3694612631343,332.36932577929326,333.3704419964818,334.37153330031833,335.3729611395782,335.3730869722654,334.37156492919127,333.37041969417504,335.37272714091193,333.37043281814016,335.37279853194383,334.37161615327074,333.37044172403637,332.36935370007603,333.37079503550086,334.3715893764508,332.3693484247244,332.36931541973087,334.37181264535496,334.3715962706588,333.3704457191564,335.37292831075666,333.3704712937953,333.37050074954817,332.3693952477493,332.3693680990457
2,-0.0045706392772989395,-0.0046967812596164435,-0.00576578885063697,-0.004658846078563074,-0.00464476692205321,-0.004717796659992307,-0.004532276614232459,-0.0034565616610172244,-0.005205994182687205,-0.005436299824356533,-0.004635098152022467,-0.004043649223868072,-0.0049358623944657214,-0.004280048602957379,-0.0057559816484254395,-0.003959317190682367,-0.004540662298610708,-0.004626857053551877,-0.00473663198775758,-0.005081903401544838,-0.004592877946201783,-0.004331854588674484,-0.0047440348559285,-0.00464442734027072,-0.004559601828319427,-0.0030437463932055787,-0.005029045150379634,-0.0047971292433294085,-0.004070926906254045,-0.004278054621646264,-0.004089460065082609,-0.004786909758650138,-0.004645157826781777,-0.004647995605579594,-0.004871560579818816,-0.004263295060088344,-0.004544216759548592,-0.004121531202331553,-0.004803763154066474,-0.005683735744211998,-0.004526339128182608,-0.004929907740491632,-0.0045276031388971,-0.004602286561349134,-0.004717024723144426,-0.005082090604485767,-0.004656810255435036,-0.0047990854467924084,-0.004621207097303619,-0.00395278565661678,-0.005047786474036463,-0.005553836746609071,-0.005018963854578934,-0.004548135238520801,-0.003831818301675934,-0.004571681310597782,-0.004720946546311518,-0.005715876901140893,-0.006953925022950726,-0.004665363672381444,-0.0045023027079767785,-0.004676077047505332,-0.00464499174064962,-0.004655907488125039,-0.004756062000164369,-0.0051034520299125235,-0.004817159505020846,-0.004624662638963517,-0.00458850313755687,-0.004772568564796159,-0.0070544298249149645,-0.004266047161460337,-0.004642909511766036,-0.004808298078767186,-0.0047436296796000655,-0.00461717127707504,-0.004804621127495188,-0.0047715661918608775,-0.004649187344699638,-0.0045136134642860745,-0.005520863485741768,-0.00470938717010782,-0.004537748987631802,-0.004577834934982081,-0.005485471083249257,-0.00469071054011173,-0.003968394107597051,-0.0049441444161255465,-0.0047780902295745135,-0.004508829534519713,-0.0046568282211374165,-0.004742166137898089,-0.00456997795989061,-0.004051259847432954,-0.004544221786077923,-0.004746668459296303,-0.004557590425719298,-0.004678804173912258,-0.004768278209549137,-0.004655037897494103,-0.004744071792778907,-0.004606130291254442,-0.004924833971126326,-0.004029646290791175,-0.004589067736818259,-0.0046447808040957096,-0.004571451875753264,-0.004621173691719683,-0.0045617130813528925,-0.004692082328966069,-0.004790991160127753,-0.004609304749386759,-0.004500802132382996,-0.0047375111189967385,-0.004869604289310852,-0.0042209806482360526,-0.0038765314276281823,-0.004465868069907995,-0.004677360203090068,-0.004990575026752024,-0.004673197972650708,-0.004644733372337051,-0.0046750268941553085,-0.005117722651870647,-0.004025925613562231,-0.003993712420017584,-0.004180041355457691,-0.004534845330574697,-0.005371023001405364,-0.005660093792477317,-0.004476527557318701,-0.004235478692932643,-0.004709350997114503,-0.0047306870019081316,-0.005398685538308378,-0.004662545428180534,-0.004564211404504245,-0.005443686267623349,-0.005158992505071234,-0.004615557073186717,-0.0034248928935336972,-0.004045199566515975,-0.004785860197892671,-0.004476413554185898,-0.0045930569991454555,-0.0035900144602459805,-0.004668714411114858,-0.005410848874644794,-0.00466301871170497,-0.004753437971978503,-0.004673429649860585,-0.004687194156046111,-0.004273225281984881,-0.004596940029762407,-0.00565919443062525,-0.004737776710701836,-0.004561405637365082,-0.004706452659279268,-0.004734892471934451,-0.004648012541692396,-0.004550298698115423,-0.004718977595564992,-0.004758468601108542,-0.004333238591076327,-0.004695525660015102,-0.004595200182417,-0.004592801250977426,-0.007057762163308902,-0.004537680426801291,-0.005901923322444348,-0.004539354418658687,-0.004632443237802462,-0.005457060369192818,-0.005833415671399444,-0.0046888079461788095,-0.00395608794402021,-0.004768357950690798,-0.004605619479484777,-0.004252812966303613,-0.004629454797435938,-0.005863237723229544,-0.004556964308193597,-0.005420456635559791,-0.004675337287707764,-0.005419476311457189,-0.004986226869396393,-0.005420441097222016,-0.00705519720342182,-0.005354787175647498,-0.00473687638262262,-0.004588611832942991,-0.004708504374065372,-0.00461757024964929,-0.004355870425402033,-0.005584475592384652,-0.0035688500307337703,-0.004631875432215879,-0.00442739371751874,-0.0048948066489649875,-0.004793254277169042,-0.005910512402195206,-0.004326596339513258,-0.00445230599822954,-0.0045655672907721255,-0.005754559758547011,-0.004303572133189499,-0.004710624654050433,-0.0046646432957575005,-0.0047280356962305144,-0.004686013574928251,-0.004418349042689133,-0.004477781284906693,-0.004559294963280087,-0.00539862248560486,-0.0045980446080500625,-0.005438834671613797,-0.004858459033529782,-0.004637121400052807,-0.0056620656043809385,-0.004607047506316706,-0.004519595512253015,-0.004611056905221976,-0.004662109927517011,-0.004805329750708699,-0.005427694132749757,-0.004924766236523401,-0.004266304783203381,-0.004555673508740701,-0.0038779255525128826,-0.0046278236839426,-0.004713899047937179,-0.006731869082801147,-0.005113258548322566,-0.005504377452419729,-0.004672306287159126,-0.004788901521640959,-0.005467480073035483,-0.004489035791422665,-0.0045584890459857705,-0.0045245905658484456,-0.004632757162668779,-0.0070635709241316,-0.005757101856265346,-0.004527983758006505,-0.004641222633859137,-0.007041406848115892,-0.0047984553716739825,-0.004525736912766066,-0.004238955815476988,-0.004508009908635605,-0.004535605863410177,-0.007022840017220048,-0.004632292930033488,-0.004632240535041177,-0.004777587813432767,-0.0045124873522754344,-0.005448681156749903,-0.0053991992100088015,-0.0047340197783929065,-0.004382919304910758,-0.004421689594913531,-0.004963222834032816,-0.004574153178828005,-0.005123007569181672,-0.004340717199645959,-0.004518194757202167,-0.004772430883188517,-0.004683932785643353,-0.004308835561179123,-0.004594139585333243,-0.005149637359567968,-0.004572678622976614,-0.005456805062924121,-0.00402028829986971,-0.005153873727554998,-0.004712216086264045,-0.004785921349433963,-0.0042566307843091775,-0.004887120235086691,-0.004567217231145949,-0.005733064378212454,-0.005288779222959293,-0.004210069324413417,-0.004821269674501543,-0.004604650744501843,-0.004587771326616913,-0.004624917938836305,-0.00453225462575168,-0.004663612923242932,-0.005053717532228653,-0.005480159787039082,-0.005225694053778272,-0.005213903746923331,-0.004695274889056846,-0.00445096281154182,-0.005319558056100797,-0.004077817794218975,-0.004672210286429183,-0.005450693319339711,-0.00426733766838483,-0.004508367994202656,-0.005355898958651809,-0.0053765523794353735,-0.004590296770270878,-0.004888935418399735,-0.007166359852530261,-0.00460431028694417,-0.004205343604280311,-0.005505188758436548,-0.004735156060608199,-0.005559590485032855,-0.004632906125341925,-0.004635739513112121,-0.004784949291861135,-0.004701740318513329,-0.004304754389200503,-0.005525060970765423,-0.005461174027735877,-0.004551438069145883,-0.004784592933055855,-0.003759355412380027,-0.005015396849356685,-0.004603857837847397,-0.00460335523089313,-0.004333767495974492,-0.004889624957653519,-0.00452770983425715,-0.005266201771417813,-0.005201332947603766,-0.004672026571235514,-0.0047841034236582826,-0.004733040982189215,-0.004720689302376329,-0.004611012964436621,-0.004195452503747935,-0.004770737751216314,-0.004702080816815902,-0.0042859881909112765,-0.0047018729383585724,-0.005498898742517976,-0.004588256984228749,-0.0054444661025294765,-0.004663285202721414,-0.004567003937064192,-0.004735308597081439,-0.004489568396700955,-0.005522227185726953,-0.004719305849783528,-0.004727305184012047,-0.004579221735578548,-0.004541367750328819,-0.004779366048705879,-0.0047779039510328445,-0.004895156975071512,-0.004524326962441902,-0.005203776714283596,-0.0047484776840661025,-0.004539777091987137,-0.0034523322706560265,-0.0046588385548438525,-0.004788917524566673,-0.004580750198885739,-0.004560869613423183,-0.004856483343510658,-0.005622380799639746,-0.0041305140006703865,-0.004673603938885671,-0.0046355809808138896,-0.00424802560395603,-0.004676048922687567,-0.0046809201781550045,-0.0043737775157661855,-0.004719564566239853,-0.004764808086197036,-0.004939536697962124,-0.004214837527841984,-0.0033799558849231274,-0.004557295544178459,-0.0044942987900094605,-0.003930582142511603,-0.004643260946926396,-0.005219864725057,-0.00709896258396856,-0.004553710137195449,-0.004044717209224574,-0.003977399451508122,-0.00428146010755932,-0.0037518762523285334,-0.003741753341684129,-0.003834688429953465,-0.005758725379246751,-0.0047294064756892365,-0.00460452928178911,-0.0044437879491151236,-0.004670970694586647,-0.00479633914358254,-0.004495558317696902,-0.004337439433947486,-0.004087013708760711,-0.005382395214297965,-0.0046567670991472816,-0.004024239182515327,-0.004672329520289785,-0.0051893152947682895,-0.004724199864167094,-0.0048257582026577225,-0.00405434731964143,-0.004931347365190431,-0.004554761952525722,-0.005402908561126147,-0.0035532077701711543,-0.004478000439914153,-0.004727936701610032,-0.00465446756232,-0.0046970297225833275,-0.0031849803007730202,-0.004098394471423644,-0.004632409520207013,-0.005598698677206377,-0.003945129070752732,-0.005582317231079446,-0.0037786271439553677,-0.0052069622040042274,-0.005232213517178326,-0.004500221259783205,-0.00569325424401301,-0.004632741347613575,-0.0033419774340569335,-0.004091716319737547,-0.004618998795932738,-0.005351819034185853,-0.004572858021737578,-0.005397516382257599,-0.003454202294644225,-0.004526912046565938,-0.005670070780228739,-0.003981185826229529,-0.004008276066914525,-0.005590770139193918,-0.004742236153091529,-0.004503356492040166,-0.004006334001943311,-0.00418305780160531,-0.004720141763832555,-0.005053662626816838,-0.003951953141024626,-0.004123209740336997,-0.004689752071361689,-0.005044835946228192,-0.004118598582272476,-0.003295137406693623,-0.0038986422403298054,-0.00473632690297259,-0.004419007202137531,-0.005483910467902554,-0.005204547897277074,-0.00520222959248966,-0.0046075686520165755,-0.004625712793991687,-0.004509253813223627,-0.004781867218026361,-0.00426869189778428,-0.003221505567229912,-0.005274188287445129,-0.004667697373386454,-0.0029841403387164595,-0.005176486695414793,-0.004448497031187209,-0.0040848547537633405,-0.005188284293095619,-0.00395804989710589,-0.004373287109651119,-0.005084352019853102,-0.004639369195661068,-0.004506427861597179,-0.004953139400071846,-0.005456476851437764,-0.004674645091110394,-0.00477011521825104,-0.00534025247267405,-0.003927435727917886,-0.004136645546391872,-0.00469474662212495,-0.004654770036994408,-0.004000599765161644,-0.00423537539882983,-0.005536269924545191,-0.006500540263189202,-0.0045007438243522555,-0.0031989410110734584,-0.004709481317780253,-0.00514887232603306,-0.0045053637673058596,-0.003736148166705914,-0.004034885629579738,-0.004544486224620751,-0.005258482955006357,-0.00466526152105094,-0.004157637401860471,-0.004007977417521385,-0.005304638940161304,-0.00449143057527336,-0.0052096056126140905,-0.003893761701256405,-0.005562294679676625,-0.00471744153337014,-0.004186002255802252,-0.00419861354833632,-0.005495019441792357,-0.004757319908234802,-0.004126473214017758,-0.004939534289559786,-0.0042700993533261716,-0.005679328824398027,-0.003958463580056171,-0.0034608660566871757,-0.005105152453702439,-0.0044796517108886555,-0.005272387497450831,-0.00456001102541083,-0.004507556199116674,-0.005256352407689098,-0.004036849059255276,-0.0032364874992344026,-0.006982482620909277,-0.0045046623151660335,-0.004656394601866841,-0.005419284244246997,-0.0040720096957993085,-0.0054834198719940835,-0.005331722647790437,-0.005390263737878415,-0.004595613415190871,-0.003956131550203058,-0.005620625112425317,-0.005486335306859715,-0.004363209045772475,-0.003999939168147722,-0.0047439718687848345,-0.005012921563784264,-0.0043402087606810805,-0.004910723173576931,-0.004698763323118321,-0.004298182718611091,-0.004620373019448473,-0.005468883257169694,-0.004714770087344139,-0.004736167510212453,-0.004372931548242389,-0.005516865852323867,-0.004162517591552511,-0.004713127243231554,-0.0036158091304425164,-0.004410435751579151,-0.0036957280801020445,-0.005399161262237789,-0.00554619654041436,-0.0044431222259340266,-0.004698288909212339,-0.004727305353653724,-0.004592663279624315,-0.003949480626330966,-0.004222859777582434,-0.004278553010619545,-0.005235514598833575,-0.004362387684373439,-0.003945996765662793,-0.005547353644303749,-0.004437529939447148,-0.003391041792125519,-0.004007628826035708,-0.004703728993835306,-0.004752723995914458,-0.005606887340682748,-0.003920370820679753,-0.005311911198088659,-0.0039743018236364095,-0.005491025097813753,-0.00460753708410164,-0.0034438068078295127,-0.005275643022776486,-0.004622121501397954,-0.004501166583413876,-0.004045179742803762,-0.005513984034356517,-0.005653443246197149,-0.007011881167783861,-0.004338355219439202,-0.005165316968266156,-0.005148407769111936,-0.003675016125321953,-0.00474684728680427,-0.004301686308008329,-0.004663017992813832,-0.005146250594931269,-0.005398436004098023,-0.004626021059133086,-0.004566846718432463,-0.0049307883931948345,-0.005439199166108142,-0.004498359483852428,-0.005465326106183259,-0.004424685592109969,-0.004593117104513086,-0.005140448689508182,-0.005397274658169609,-0.004144532811007894,-0.005564343252185793,-0.005134992425924113,-0.005601061932842582,-0.004625853065865941,-0.004017667739526781,-0.005620816149371568,-0.005454161040572893,-0.005284909481409921,-0.005475714409134676,-0.004634963673402591,-0.005657036219289023,-0.005501283574268744,-0.004311927249585622,-0.004701119879935435,-0.005115542739532088,-0.004621083695377172,-0.004573431449622371,-0.004307003850707996,-0.004604962670481123,-0.005366612733355203,-0.007108611723003911,-0.0045581868552858834,-0.0046800487606613135,-0.005594477213580887,-0.005356387370029863,-0.004441623588097076,-0.00455352826913061,-0.004078255023253165,-0.004647207559601319,-0.005062390328604499,-0.004398360950482905,-0.004493844111245123,-0.004751609388416838,-0.004558005900181568,-0.003968151136562914,-0.005222796264078679,-0.005542668048463457,-0.005576047442961915,-0.004685602234543459,-0.004551283382059109,-0.0047136938304627694,-0.00527231195633464,-0.004900162848173857,-0.0047902387890093575,-0.004601203091922998,-0.004653887155182565,-0.0036924709815288315,-0.0039952295494803,-0.0046661716668293385,-0.005432493131282294,-0.00530256871706001,-0.0045174247577950775,-0.004413623538499232,-0.00533825624158754,-0.005621260283319762,-0.0036684357115373957,-0.0040717745098761155,-0.0054441471684619856,-0.005424584894492034,-0.005188925077148999,-0.0054797275054340846,-0.004437783616287689,-0.005486723596415812,-0.0052992674916234155,-0.00435960768064391,-0.0052848364058923954,-0.0039864970373784175,-0.005521288586305254,-0.00543568008757857,-0.005613233215148323,-0.004188738752166933,-0.0048527527070486905,-0.004678447227219166,-0.005333356584889901,-0.0052943617913071336,-0.00454108268290092,-0.005540738026971739,-0.004776257291190987,-0.005440602112488023,-0.004816040585077421,-0.00461819882202878,-0.0045812609559523374,-0.005329650803676056,-0.004241937145729983,-0.004622982745138763,-0.004682676791912075,-0.005327397047021511,-0.003938911399006685,-0.004319751794797344,-0.005528761449157441,-0.004672810520364996,-0.005349029135014053,-0.00459678520359776,-0.0053155449636112465,-0.0055871273687557125,-0.004350398615287891,-0.005494894158025002,-0.004721476527549737,-0.004311910280112503,-0.004311774239391118,-0.004103616321976718,-0.0052620053076700935,-0.005405692948989925,-0.004429175351748064,-0.004103808751090496,-0.004593475118668863,-0.004351152503430449,-0.004564743517271402,-0.004333584510842709,-0.005575414905037621,-0.005355281401725437,-0.005277767943233294,-0.004614068806151451,-0.004875782055646048,-0.005568077866285622,-0.004706178529494768,-0.005357485449123309,-0.004575915478263192,-0.005510547898695299,-0.0055828821974661744,-0.004169678668990985,-0.005402168696643708,-0.005443380036935517,-0.005342512674478613,-0.005410164571706877,-0.00400633598552706,-0.004836132789031824,-0.005550149515401593,-0.0052759356685455885,-0.005335349690024618,-0.004561052797145478,-0.004561887893644567,-0.0046410152388484125,-0.00400723256039605,-0.004325727252325075,-0.005387828472983453,-0.0048935698456967465,-0.005426880779751065,-0.004633958291581883,-0.005354294043737151,-0.004458279367314882,-0.003938159005026536,-0.005285128576498329,-0.005018584244788246,-0.0053680273278715095,-0.005272667906925246,-0.0054704546122445324,-0.005547057272780382,-0.004586076942962745,-0.005411843515547711,-0.0052715969983649896,-0.005288605350202296,-0.00531094052511224,-0.004583235176524022,-0.005396782027686007,-0.004402960450145327,-0.003879197018844844,-0.005510274488882307,-0.004570860810663341,-0.00394461968918647,-0.004783063249932933,-0.004705432551447592,-0.004343832592042005,-0.004044200482291586,-0.004851183642101016,-0.00534417559995901,-0.004108565130796362,-0.005349507580657829,-0.004661959856562396,-0.005263111364810395,-0.0037243194758078474,-0.004340160666365331,-0.005256134141953126,-0.004733591599124692,-0.005266772017683534,-0.004041423740964342,-0.0045493983081985895,-0.005321903384571022,-0.005149683402421975,-0.004280304057309225,-0.005290533345189285,-0.005631651917154261,-0.004161693924287451,-0.004584747856867164,-0.005308637988231251,-0.004499174323945124,-0.004647596047623709,-0.005282291678918525,-0.0053538171324947585,-0.004464400043987074,-0.004306183286589617,-0.005193793315618633,-0.005367599056866597,-0.003938501330377681,-0.004117003557525637,-0.005312712188274151,-0.005368229921721664,-0.004061918195951594,-0.005251814969179618,-0.005406373212546287,-0.004821281408509729,-0.005288838145900648,-0.005247451946759025,-0.005478545661384226,-0.004326793627447532,-0.004247878343389223,-0.005697610672072407,-0.005136453974777283,-0.004044633857632979,-0.005493047971961747,-0.004554721464956545,-0.005496290749822819,-0.003926287877513618,-0.005467702324747865,-0.005608836333276244,-0.004439516733611919,-0.004362413892391643,-0.004143218898727577,-0.005400706930157418,-0.005264627141094403,-0.004218828170747955,-0.005492440784548372,-0.0055429961006547,-0.005533324780950773,-0.005331552617924616,-0.004563995818130047,-0.005381077846767992,-0.0046931633671119894,-0.005407830459485252,-0.004644568859433687,-0.005291728041684406,-0.0052112297554066725,-0.004395861148822919,-0.003909744949236105,-0.004391077808637302,-0.005431298536498672,-0.00551539089005956,-0.004181264689837255,-0.004003460545809994,-0.005601934016360315,-0.005235956896812369,-0.0043194163303684465,-0.004271122552034527,-0.0052482325434964165,-0.005276406723100872,-0.0051808395485240955,-0.005283982544634047,-0.0053143710126622706,-0.005531567276004074,-0.005469310256226554,-0.004372753563127891,-0.004708838575354653,-0.0046171927730278475,-0.005254776538850179,-0.005257567244787721,-0.005226010741434339,-0.0046292939688602425,-0.0051610255519112256,-0.005430759815192386,-0.004661761785962837,-0.004913707622832817,-0.004161627177932415,-0.0038329699818975015,-0.004687736932744878,-0.005020461851548431,-0.005464503052170017,-0.004693041948764912,-0.0041035130429783176,-0.00517747821635729,-0.005517536364666059,-0.004109098968063465,-0.004876624661128002,-0.005293111168974799,-0.005268694500030322,-0.005256169943518979,-0.004402549412402916,-0.004462909503818882,-0.004623337156552967,-0.004309451466649691,-0.005045244081866238,-0.0046987110993025735,-0.0042656534043949805,-0.005348512404081616,-0.005274435946528841,-0.005344352441256715,-0.0053245223755133695,-0.004814274025841247,-0.005450439527515844,-0.005374451281097449,-0.004775170032820535,-0.003977370394778658,-0.004579989969326082,-0.005289255260388923,-0.003955471527243879,-0.004047754994408925,-0.005463286691476781,-0.005549756109498794,-0.005330693732416615,-0.004380464217424238,-0.005567347936675016,-0.005339263081517356,-0.005487643103652377,-0.004059694785539177,-0.005034882883606817,-0.005296720648922068,-0.004620794338717849,-0.005983948342038863,-0.005189323014458664,-0.005190858833394328,-0.004665342437865405,-0.004868442760198947,-0.005271315457259868,-0.005215740392618701,-0.004020736957730388,-0.004855832011971706,-0.004643009482456,-0.005475966856916625,-0.004012456404076608,-0.0054619145213249875,-0.005603027937405927,-0.005139429070335908,-0.004271382771839175,-0.005130813295275255,-0.005095911948141891,-0.004321340941086749,-0.004435135445672732,-0.005596886903530258,-0.005224487027381948,-0.005457426980884062,-0.004587476392758157,-0.00540048061896877,-0.00529856007732615,-0.005343774514668051,-0.004675606994174417,-0.004278998077564043,-0.005252168131814793,-0.004559967591690366,-0.005387325912897802,-0.005437040891390511,-0.005300813456183353,-0.004372477822795095,-0.004278538286964919,-0.005468324507201425,-0.00545025139448602,-0.005225677364195487,-0.004576008731164379,-0.005344689835549451,-0.00533551526886773,-0.003867790937755961,-0.0054249788222197285,-0.005497008062033542,-0.003973427361717731,-0.005287032063211149,-0.005018272139697457,-0.004636711371946734,-0.005435455613119027,-0.003960210942664773,-0.005407329056630266,-0.005331468552022022,-0.004567025887601807,-0.00426478114123438,-0.005312850803075599,-0.004736315826067167,-0.004814332251811005,-0.005294665980801721,-0.0046622625391605135,-0.003779669208307599,-0.003837203233024716,-0.005273271260174707,-0.005360884463744892,-0.004020103198070983,-0.004941735644600658,-0.005443808969429481,-0.004033745182639142,-0.004012093715249091,-0.004360649848560404,-0.005360345533339684,-0.00526445760099782,-0.004006173901215137,-0.005245740267817109,-0.005264814792722262,-0.005365459732954892,-0.005372877714377871,-0.004031897744863236,-0.005291649265399547,-0.005252093040361815,-0.004922005017870846,-0.004194159611189246,-0.005336251999560434,-0.005580556969797669,-0.005293662111547259,-0.0053002509714960505,-0.00530268947462115,-0.004578633274877086,-0.004026271960195094,-0.005379387239574058,-0.005338324118835866,-0.0046925161907665,-0.005450766173388962,-0.004044779758595697,-0.005236765350009934,-0.00527168136183945,-0.0038268019761818826,-0.004677478931422535,-0.00457291352959306,-0.005271932084580421,-0.005312155990643059,-0.003928052528745648,-0.005556682841013511,-0.005405064893897524,-0.004185116390153488,-0.004813919046148746,-0.004647100583404026,-0.0053328768858452785,-0.005441151655765571,-0.004281590023667422,-0.00521262233704349,-0.005007531550070743,-0.005290591814008351,-0.00411534235277701,-0.0039498169755617174,-0.005136126271790232,-0.005019262399052368,-0.004653415198844162,-0.004605649588713175,-0.004393023414529247,-0.005451120915272561,-0.005215225564663494,-0.004243538518229595,-0.005366076909615603,-0.004186981211226458,-0.005651825017830118,-0.004622326851140024,-0.004251293943153098,-0.00494459096630513,-0.005346373061964203,-0.004229759462420183,-0.0047075267258563916,-0.005359161216888302,-0.005209444293919764,-0.004344323346843354,-0.0043043757821377236,-0.005077489952540329,-0.005533968583685165,-0.005206846418718285,-0.004139595341767292,-0.004906730199568853,-0.005219907865034506,-0.004036020050821921,-0.0052356921012528005,-0.0051476715745011415,-0.005420940218389789,-0.003780655346897016,-0.004736467420620341,-0.004303430219961933,-0.005177671108379432,-0.005353845985967463,-0.004194419686880022,-0.0046094145850329084,-0.005341417496654783,-0.0051472898113609465,-0.004647893730486091,-0.005396134526487388,-0.00520052162482475,-0.003775843215856072,-0.0038916897964326805,-0.0050322253108120805,-0.004465100639536527,-0.005424230170211276,-0.004269314502497954,-0.004670459077085342,-0.005564774493186345,-0.00392179924903267,-0.004718726344661885,-0.004648405602776013,-0.005272482550674497,-0.00513487597718313,-0.004103342865683853,-0.004328189725916181,-0.005489693774446881,-0.004003423425573842,-0.005206102089290078,-0.005314602253562263,-0.0046669286252313275,-0.0044988102980950545,-0.0053279215155237645,-0.00526833559736147,-0.005574311742864541,-0.004652143984303829,-0.0043983355655087064,-0.004679971967371505,-0.00535199818261727,-0.0041243284867936636,-0.004009266756820025,-0.005361958800630952,-0.005425626908574866,-0.005296057810265537,-0.0040692775200681305,-0.005154235035925125,-0.005363658067987919,-0.0047282173037397944,-0.004352173069556332,-0.0050330603174837734,-0.004090494894253324,-0.0036487020063707873,-0.004655142118167385,-0.005138518093643064,-0.004584664616834355,-0.004793113215487864,-0.004711717563695775,-0.004302025654131809,-0.005120606564727539,-0.005083701140606308,-0.0042885427253975825,-0.004658350867631453,-0.005198604319201324,-0.004270859410131492,-0.004275514143282117,-0.004319595788521742,-0.004043062723081816,-0.004314577022253983,-0.005305316208871602,-0.0050305772601154835,-0.004429852417184177,-0.004571067686651426,-0.0046001286115561184,-0.0054366757664510365,-0.0052799560008613645,-0.0042071079485807815,-0.004608055676200351,-0.004980149132487765,-0.004140580240317838,-0.005191335309239092,-0.005078875261050791,-0.005439411530109633,-0.00529120916654382,-0.0042123359959495964,-0.004118496150254608,-0.005299292099149246,-0.00484180289572674,-0.004551220894291347,-0.004295611375111204,-0.005450583764567161,-0.004273798572537243,-0.003681340336560209,-0.004137715616494807,-0.005134851544789756,-0.005059090905101106,-0.004473864619485999,-0.004619305111942454,-0.00427907712861268,-0.0047578227666425724,-0.004265661046047582,-0.005346872781007259,-0.005293682968562177,-0.004835356588259324,-0.004626358748697099,-0.00454277576500204,-0.004269136076750508,-0.004200971827760065,-0.004726610220818335,-0.005185269801240529,-0.005156026828434439,-0.003943567275944964,-0.005346090992939745,-0.005223535996573996,-0.004415100244620787,-0.004284076146804083,-0.0049175679269412445,-0.004901033588656396,-0.0043654882031211924,-0.004581301072819173,-0.005072398750292523,-0.005458151028201104,-0.00423392378514191,-0.005120951280188924,-0.0043285393230667706,-0.0043216820427946345,-0.004211323534561679,-0.00438361972595071,-0.005203531394785476,-0.004271889553272789,-0.004180499676511074,-0.004864785095729857,-0.00549855147514762,-0.00470234891916605,-0.004458309706090536,-0.005032140005733557,-0.004994498243096741,-0.004503144450184744,-0.004255756630954597,-0.0052510789704241214,-0.004960438344725457,-0.004759533261813234,-0.0037172229121815487,-0.005183979475253066,-0.005027730082775527,-0.00439830883382658,-0.0038240555880557654,-0.00623204408152761,-0.005122928661319798,-0.0060936898135195055,-0.004637848249570132,-0.004954077431149868,-0.004285882370739139,-0.004646367060736478,-0.0050896638890575744,-0.005291279740622631,-0.005145986557778355,-0.004692481585033048,-0.004110173998627947,-0.004617438737525562,-0.004845863413268301,-0.004229854954237086,-0.005298567647359208,-0.005194529509251947,-0.004615178778326239,-0.004251874040671206,-0.0051844116505321515,-0.004665766679178146,-0.005252395363938525,-0.004164285968478924,-0.005474963552524231,-0.005294825098984048,-0.004558470924511267,-0.004477219847993209,-0.004144367673617469,-0.004520297682631171,-0.004944965265956417,-0.005264307926955368,-0.0045564755180625945,-0.004028706255067787,-0.003932354834306213,-0.004665000521242,-0.004290546190445258,-0.004466042768886341,-0.00398852051107135,-0.005129055607984942,-0.0049897532936923564,-0.004651705550527122,-0.00424405282299788,-0.0036515833089787097,-0.004732644454682125,-0.005221321788173466,-0.004577665345323201,-0.004555838305770683,-0.0049460029307832045,-0.004985538651976767,-0.004262738153441872,-0.00395855026187325,-0.004647308664698324,-0.0046305011769948255,-0.004620820400361091,-0.005578467851491218,-0.005356740702642283,-0.005369838521294149,-0.004188173560981191,-0.005452651219515763,-0.004153100977877568,-0.005351779404369432,-0.0053687940279134655,-0.00541394012486743,-0.004069248282081119,-0.0043015400537666166,-0.005217986038721153,-0.005250781042864831,-0.0036656118692814273,-0.003828115778691199,-0.004992919028497658,-0.004794297503201509,-0.005500681759245365,-0.004624247828473387,-0.005367009709260856,-0.005160167098674104,-0.004259812763946715,-0.005409436570543956,-0.007361314155080635,-0.0038945791039766624,-0.00480299298539567,-0.005221383075908501,-0.004591787936079887,-0.004187728874417114,-0.004802674825215426,-0.005410416273934383,-0.005297971442912976,-0.0041072837433461865,-0.004581945827715901,-0.00539547840163319,-0.004690229951519677,-0.004576660020994287,-0.0043799183843646495,-0.004142482240829895,-0.004632783188615611,-0.0052888788559642295,-0.003982772132695046,-0.004192294552845653,-0.005257052868905444,-0.0053354197923158415,-0.005282107196069093,-0.004525461691025215,-0.004507644611691653,-0.004343343629846924,-0.004305569236253099,-0.004435655096848245,-0.004700186183706876,-0.004342690960611728,-0.004768137920344761,-0.004188699876288652,-0.004621745882690074,-0.0046638429189767155,-0.005245365251343603,-0.004642030761828399,-0.0042796202844550555,-0.00531259848695273,-0.005180103238559705,-0.004319858651516168,-0.004555760486931076,-0.004904235194545949,-0.004289994803023122,-0.004555758178198284,-0.004979514136981282,-0.005308336989526394,-0.005315680887287175
3,-13164169.376183134,-13164169.376183134,-13164169.376183134,-13164169.376183134,-13164169.376183134,-13164169.376183135,-13164169.376183135,-13164169.376183135,-13164169.376183135,-13164169.376183135,-13164169.376183135,-13164169.376183137,-13164169.376183137,-13164169.376183137,-13164169.376183137,-13164169.376183137,-13164169.37618314,-13164169.37618314,-13164169.37618314,-13164169.37618314,-13164169.37618314,-13164169.376183141,-13164169.376183141,-13164169.376183141,-13164169.376183141,-13164169.376183141,-13164169.376183143,-13164169.376183143,-13164169.376183143,-13164169.376183143,-13164169.376183143,-13164169.376183145,-13164169.376183145,-13164169.376183145,-13164169.376183145,-13164169.376183145,-13164169.376183145,-13164169.376183147,-13164169.376183147,-13164169.376183147,-13164169.376183147,-13164169.376183147,-13164169.376183148,-13164169.376183148,-13164169.376183148,-13164169.376183148,-13164169.376183148,-13164169.37618315,-13164169.37618315,-13164169.37618315,-13164169.37618315,-13164169.37618315,-13164169.376183152,-13164169.376183152,-13164169.376183152,-13164169.376183152,-13164169.376183152,-13164169.376183154,-13164169.376183154,-13164169.376183154,-13164169.376183154,-13164169.376183154,-13164169.376183154,-13164169.376183156,-13164169.376183156,-13164169.376183156,-13164169.376183156,-13164169.376183156,-13164169.376183158,-13164169.376183158,-13164169.376183158,-13164169.376183158,-13164169.376183158,-13164169.37618316,-13164169.37618316,-13164169.37618316,-13164169.37618316,-13164169.37618316,-13164169.376183162,-13164169.376183162,-13164169.376183162,-13164169.376183162,-13164169.376183162,-13164169.376183162,-13164169.376183163,-13164169.376183163,-13164169.376183163,-13164169.376183163,-13164169.376183163,-13164169.376183165,-13164169.376183165,-13164169.376183165,-13164169.376183165,-13164169.376183165,-13164169.376183167,-13164169.376183167,-13164169.376183167,-13164169.376183167,-13164169.376183167,-13164169.376183169,-13164169.376183169,-13164169.376183169,-13164169.376183169,-13164169.376183169,-13164169.376183169,-13164169.37618317,-13164169.37618317,-13164169.37618317,-13164169.37618317,-13164169.37618317,-13164169.376183173,-13164169.376183173,-13164169.376183173,-13164169.376183173,-13164169.376183173,-13164169.376183175,-13164169.376183175,-13164169.376183175,-13164169.376183175,-13164169.376183175,-13164169.376183176,-13164169.376183176,-13164169.376183176,-13164169.376183176,-13164169.376183176,-13164169.376183176,-13164169.376183178,-13164169.376183178,-13164169.376183178,-13164169.376183178,-13164169.376183178,-13164169.37618318,-13164169.37618318,-13164169.37618318,-13164169.37618318,-13164169.37618318,-13164169.376183182,-13164169.376183182,-13164169.376183182,-13164169.376183182,-13164169.376183182,-13164169.376183182,-13164169.376183184,-13164169.376183184,-13164169.376183184,-13164169.376183184,-13164169.376183184,-13164169.376183186,-13164169.376183186,-13164169.376183186,-13164169.376183186,-13164169.376183186,-13164169.376183188,-13164169.376183188,-13164169.376183188,-13164169.376183188,-13164169.376183188,-13164169.37618319,-13164169.37618319,-13164169.37618319,-13164169.37618319,-13164169.37618319,-13164169.37618319,-13164169.376183191,-13164169.376183191,-13164169.376183191,-13164169.376183191,-13164169.376183191,-13164169.376183193,-13164169.376183193,-13164169.376183193,-13164169.376183193,-13164169.376183193,-13164169.376183195,-13164169.376183195,-13164169.376183195,-13164169.376183195,-13164169.376183195,-13164169.376183195,-13164169.376183197,-13164169.376183197,-13164169.376183197,-13164169.376183197,-13164169.376183197,-13164169.376183199,-13164169.376183199,-13164169.376183199,-13164169.376183199,-13164169.376183199,-13164169.3761832,-13164169.3761832,-13164169.3761832,-13164169.3761832,-13164169.3761832,-13164169.376183202,-13164169.376183202,-13164169.376183202,-13164169.376183202,-13164169.376183202,-13164169.376183202,-13164169.376183204,-13164169.376183204,-13164169.376183204,-13164169.376183204,-13164169.376183204,-13164169.376183206,-13164169.376183206,-13164169.376183206,-13164169.376183206,-13164169.376183206,-13164169.376183208,-13164169.376183208,-13164169.376183208,-13164169.376183208,-13164169.376183208,-13164169.376183208,-13164169.37618321,-13164169.37618321,-13164169.37618321,-13164169.37618321,-13164169.37618321,-13164169.376183212,-13164169.376183212,-13164169.376183212,-13164169.376183212,-13164169.376183212,-13164169.376183214,-13164169.376183214,-13164169.376183214,-13164169.376183214,-13164169.376183214,-13164169.376183214,-13164169.376183216,-13164169.376183216,-13164169.376183216,-13164169.376183216,-13164169.376183216,-13164169.376183217,-13164169.376183217,-13164169.376183217,-13164169.376183217,-13164169.376183217,-13164169.37618322,-13164169.37618322,-13164169.37618322,-13164169.37618322,-13164169.37618322,-13164169.37618322,-13164169.376183221,-13164169.376183221,-13164169.376183221,-13164169.376183221,-13164169.376183221,-13164169.376183223,-13164169.376183223,-13164169.376183223,-13164169.376183223,-13164169.376183223,-13164169.376183225,-13164169.376183225,-13164169.376183225,-13164169.376183225,-13164169.376183225,-13164169.376183225,-13164169.376183227,-13164169.376183227,-13164169.376183227,-13164169.376183227,-13164169.376183227,-13164169.376183229,-13164169.376183229,-13164169.376183229,-13164169.376183229,-13164169.376183229,-13164169.37618323,-13164169.37618323,-13164169.37618323,-13164169.37618323,-13164169.37618323,-13164169.37618323,-13164169.376183232,-13164169.376183232,-13164169.376183232,-13164169.376183232,-13164169.376183232,-13164169.376183234,-13164169.376183234,-13164169.376183234,-13164169.376183234,-13164169.376183234,-13164169.376183236,-13164169.376183236,-13164169.376183236,-13164169.376183236,-13164169.376183236,-13164169.376183236,-13164169.376183238,-13164169.376183238,-13164169.376183238,-13164169.376183238,-13164169.376183238,-13164169.37618324,-13164169.37618324,-13164169.37618324,-13164169.37618324,-13164169.37618324,-13164169.376183242,-13164169.376183242,-13164169.376183242,-13164169.376183242,-13164169.376183242,-13164169.376183242,-13164169.376183243,-13164169.376183243,-13164169.376183243,-13164169.376183243,-13164169.376183243,-13164169.376183245,-13164169.376183245,-13164169.376183245,-13164169.376183245,-13164169.376183245,-13164169.376183247,-13164169.376183247,-13164169.376183247,-13164169.376183247,-13164169.376183247,-13164169.376183247,-13164169.376183249,-13164169.376183249,-13164169.376183249,-13164169.376183249,-13164169.376183249,-13164169.37618325,-13164169.37618325,-13164169.37618325,-13164169.37618325,-13164169.37618325,-13164169.37618325,-13164169.376183253,-13164169.376183253,-13164169.376183253,-13164169.376183253,-13164169.376183253,-13164169.376183255,-13164169.376183255,-13164169.376183255,-13164169.376183255,-13164169.376183255,-13164169.376183257,-13164169.376183257,-13164169.376183257,-13164169.376183257,-13164169.376183257,-13164169.376183257,-13164169.376183258,-13164169.376183258,-13164169.376183258,-13164169.376183258,-13164169.376183258,-13164169.37618326,-13164169.37618326,-13164169.37618326,-13164169.37618326,-13164169.37618326,-13164169.37618326,-13164169.376183262,-13164169.376183262,-13164169.376183262,-13164169.376183262,-13164169.376183262,-13164169.376183264,-13164169.376183264,-13164169.376183264,-13164169.376183264,-13164169.376183264,-13164169.376183266,-13164169.376183266,-13164169.376183266,-13164169.376183266,-13164169.376183266,-13164169.376183266,-13164169.376183268,-13164169.376183268,-13164169.376183268,-13164169.376183268,-13164169.376183268,-13164169.37618327,-13164169.37618327,-13164169.37618327,-13164169.37618327,-13164169.37618327,-13164169.37618327,-13164169.376183271,-13164169.376183271,-13164169.376183271,-13164169.376183271,-13164169.376183271,-13164169.376183273,-13164169.376183273,-13164169.376183273,-13164169.376183273,-13164169.376183273,-13164169.376183275,-13164169.376183275,-13164169.376183275,-13164169.376183275,-13164169.376183275,-13164169.376183275,-13164169.376183277,-13164169.376183277,-13164169.376183277,-13164169.376183277,-13164169.376183277,-13164169.376183279,-13164169.376183279,-13164169.376183279,-13164169.376183279,-13164169.376183279,-13164169.376183279,-13164169.37618328,-13164169.37618328,-13164169.37618328,-13164169.37618328,-13164169.37618328,-13164169.376183283,-13164169.376183283,-13164169.376183283,-13164169.376183283,-13164169.376183283,-13164169.376183284,-13164169.376183284,-13164169.376183284,-13164169.376183284,-13164169.376183284,-13164169.376183284,-13164169.376183286,-13164169.376183286,-13164169.376183286,-13164169.376183286,-13164169.376183286,-13164169.376183288,-13164169.376183288,-13164169.376183288,-13164169.376183288,-13164169.376183288,-13164169.376183288,-13164169.37618329,-13164169.37618329,-13164169.37618329,-13164169.37618329,-13164169.37618329,-13164169.376183292,-13164169.376183292,-13164169.376183292,-13164169.376183292,-13164169.376183292,-13164169.376183292,-13164169.376183294,-13164169.376183294,-13164169.376183294,-13164169.376183294,-13164169.376183294,-13164169.376183296,-13164169.376183296,-13164169.376183296,-13164169.376183296,-13164169.376183296,-13164169.376183296,-13164169.376183297,-13164169.376183297,-13164169.376183297,-13164169.376183297,-13164169.376183297,-13164169.3761833,-13164169.3761833,-13164169.3761833,-13164169.3761833,-13164169.3761833,-13164169.376183301,-13164169.376183301,-13164169.376183301,-13164169.376183301,-13164169.376183301,-13164169.376183301,-13164169.376183303,-13164169.376183303,-13164169.376183303,-13164169.376183303,-13164169.376183303,-13164169.376183305,-13164169.376183305,-13164169.376183305,-13164169.376183305,-13164169.376183305,-13164169.376183305,-13164169.376183307,-13164169.376183307,-13164169.376183307,-13164169.376183307,-13164169.376183307,-13164169.376183309,-13164169.376183309,-13164169.376183309,-13164169.376183309,-13164169.376183309,-13164169.376183309,-13164169.37618331,-13164169.37618331,-13164169.37618331,-13164169.37618331,-13164169.37618331,-13164169.376183312,-13164169.376183312,-13164169.376183312,-13164169.376183312,-13164169.376183312,-13164169.376183312,-13164169.376183314,-13164169.376183314,-13164169.376183314,-13164169.376183314,-13164169.376183314,-13164169.376183316,-13164169.376183316,-13164169.376183316,-13164169.376183316,-13164169.376183316,-13164169.376183316,-13164169.376183318,-13164169.376183318,-13164169.376183318,-13164169.376183318,-13164169.376183318,-13164169.37618332,-13164169.37618332,-13164169.37618332,-13164169.37618332,-13164169.37618332,-13164169.37618332,-13164169.376183322,-13164169.376183322,-13164169.376183322,-13164169.376183322,-13164169.376183322,-13164169.376183324,-13164169.376183324,-13164169.376183324,-13164169.376183324,-13164169.376183324,-13164169.376183324,-13164169.376183325,-13164169.376183325,-13164169.376183325,-13164169.376183325,-13164169.376183325,-13164169.376183327,-13164169.376183327,-13164169.376183327,-13164169.376183327,-13164169.376183327,-13164169.376183327,-13164169.37618333,-13164169.37618333,-13164169.37618333,-13164169.37618333,-13164169.37618333,-13164169.376183331,-13164169.376183331,-13164169.376183331,-13164169.376183331,-13164169.376183331,-13164169.376183331,-13164169.376183333,-13164169.376183333,-13164169.376183333,-13164169.376183333,-13164169.376183333,-13164169.376183335,-13164169.376183335,-13164169.376183335,-13164169.376183335,-13164169.376183335,-13164169.376183335,-13164169.376183337,-13164169.376183337,-13164169.376183337,-13164169.376183337,-13164169.376183337,-13164169.376183338,-13164169.376183338,-13164169.376183338,-13164169.376183338,-13164169.376183338,-13164169.376183338,-13164169.37618334,-13164169.37618334,-13164169.37618334,-13164169.37618334,-13164169.37618334,-13164169.376183342,-13164169.376183342,-13164169.376183342,-13164169.376183342,-13164169.376183342,-13164169.376183342,-13164169.376183344,-13164169.376183344,-13164169.376183344,-13164169.376183344,-13164169.376183344,-13164169.376183346,-13164169.376183346,-13164169.376183346,-13164169.376183346,-13164169.376183346,-13164169.376183346,-13164169.376183348,-13164169.376183348,-13164169.376183348,-13164169.376183348,-13164169.376183348,-13164169.37618335,-13164169.37618335,-13164169.37618335,-13164169.37618335,-13164169.37618335,-13164169.37618335,-13164169.376183352,-13164169.376183352,-13164169.376183352,-13164169.376183352,-13164169.376183352,-13164169.376183353,-13164169.376183353,-13164169.376183353,-13164169.376183353,-13164169.376183353,-13164169.376183353,-13164169.376183355,-13164169.376183355,-13164169.376183355,-13164169.376183355,-13164169.376183355,-13164169.376183357,-13164169.376183357,-13164169.376183357,-13164169.376183357,-13164169.376183357,-13164169.376183357,-13164169.376183359,-13164169.376183359,-13164169.376183359,-13164169.376183359,-13164169.376183359,-13164169.376183359,-13164169.37618336,-13164169.37618336,-13164169.37618336,-13164169.37618336,-13164169.37618336,-13164169.376183363,-13164169.376183363,-13164169.376183363,-13164169.376183363,-13164169.376183363,-13164169.376183363,-13164169.376183365,-13164169.376183365,-13164169.376183365,-13164169.376183365,-13164169.376183365,-13164169.376183366,-13164169.376183366,-13164169.376183366,-13164169.376183366,-13164169.376183366,-13164169.376183366,-13164169.376183368,-13164169.376183368,-13164169.376183368,-13164169.376183368,-13164169.376183368,-13164169.37618337,-13164169.37618337,-13164169.37618337,-13164169.37618337,-13164169.37618337,-13164169.37618337,-13164169.376183372,-13164169.376183372,-13164169.376183372,-13164169.376183372,-13164169.376183372,-13164169.376183372,-13164169.376183374,-13164169.376183374,-13164169.376183374,-13164169.376183374,-13164169.376183374,-13164169.376183376,-13164169.376183376,-13164169.376183376,-13164169.376183376,-13164169.376183376,-13164169.376183376,-13164169.376183378,-13164169.376183378,-13164169.376183378,-13164169.376183378,-13164169.376183378,-13164169.37618338,-13164169.37618338,-13164169.37618338,-13164169.37618338,-13164169.37618338,-13164169.37618338,-13164169.376183381,-13164169.376183381,-13164169.376183381,-13164169.376183381,-13164169.376183381,-13164169.376183383,-13164169.376183383,-13164169.376183383,-13164169.376183383,-13164169.376183383,-13164169.376183383,-13164169.376183385,-13164169.376183385,-13164169.376183385,-13164169.376183385,-13164169.376183385,-13164169.376183385,-13164169.376183387,-13164169.376183387,-13164169.376183387,-13164169.376183387,-13164169.376183387,-13164169.376183389,-13164169.376183389,-13164169.376183389,-13164169.376183389,-13164169.376183389,-13164169.376183389,-13164169.37618339,-13164169.37618339,-13164169.37618339,-13164169.37618339,-13164169.37618339,-13164169.376183392,-13164169.376183392,-13164169.376183392,-13164169.376183392,-13164169.376183392,-13164169.376183392,-13164169.376183394,-13164169.376183394,-13164169.376183394,-13164169.376183394,-13164169.376183394,-13164169.376183394,-13164169.376183396,-13164169.376183396,-13164169.376183396,-13164169.376183396,-13164169.376183396,-13164169.376183398,-13164169.376183398,-13164169.376183398,-13164169.376183398,-13164169.376183398,-13164169.376183398,-13164169.3761834,-13164169.3761834,-13164169.3761834,-13164169.3761834,-13164169.3761834,-13164169.376183402,-13164169.376183402,-13164169.376183402,-13164169.376183402,-13164169.376183402,-13164169.376183402,-13164169.376183404,-13164169.376183404,-13164169.376183404,-13164169.376183404,-13164169.376183404,-13164169.376183404,-13164169.376183406,-13164169.376183406,-13164169.376183406,-13164169.376183406,-13164169.376183406,-13164169.376183407,-13164169.376183407,-13164169.376183407,-13164169.376183407,-13164169.376183407,-13164169.376183407,-13164169.37618341,-13164169.37618341,-13164169.37618341,-13164169.37618341,-13164169.37618341,-13164169.37618341,-13164169.376183411,-13164169.376183411,-13164169.376183411,-13164169.376183411,-13164169.376183411,-13164169.376183413,-13164169.376183413,-13164169.376183413,-13164169.376183413,-13164169.376183413,-13164169.376183413,-13164169.376183415,-13164169.376183415,-13164169.376183415,-13164169.376183415,-13164169.376183415,-13164169.376183417,-13164169.376183417,-13164169.376183417,-13164169.376183417,-13164169.376183417,-13164169.376183417,-13164169.376183419,-13164169.376183419,-13164169.376183419,-13164169.376183419,-13164169.376183419,-13164169.376183419,-13164169.37618342,-13164169.37618342,-13164169.37618342,-13164169.37618342,-13164169.37618342,-13164169.376183422,-13164169.376183422,-13164169.376183422,-13164169.376183422,-13164169.376183422,-13164169.376183422,-13164169.376183424,-13164169.376183424,-13164169.376183424,-13164169.376183424,-13164169.376183424,-13164169.376183424,-13164169.376183426,-13164169.376183426,-13164169.376183426,-13164169.376183426,-13164169.376183426,-13164169.376183428,-13164169.376183428,-13164169.376183428,-13164169.376183428,-13164169.376183428,-13164169.376183428,-13164169.37618343,-13164169.37618343,-13164169.37618343,-13164169.37618343,-13164169.37618343,-13164169.37618343,-13164169.376183432,-13164169.376183432,-13164169.376183432,-13164169.376183432,-13164169.376183432,-13164169.376183433,-13164169.376183433,-13164169.376183433,-13164169.376183433,-13164169.376183433,-13164169.376183433,-13164169.376183435,-13164169.376183435,-13164169.376183435,-13164169.376183435,-13164169.376183435,-13164169.376183435,-13164169.376183437,-13164169.376183437,-13164169.376183437,-13164169.376183437,-13164169.376183437,-13164169.376183439,-13164169.376183439,-13164169.376183439,-13164169.376183439,-13164169.376183439,-13164169.376183439,-13164169.37618344,-13164169.37618344,-13164169.37618344,-13164169.37618344,-13164169.37618344,-13164169.37618344,-13164169.376183443,-13164169.376183443,-13164169.376183443,-13164169.376183443,-13164169.376183443,-13164169.376183445,-13164169.376183445,-13164169.376183445,-13164169.376183445,-13164169.376183445,-13164169.376347492,-13164169.376183454,-13164169.376183454,-13164169.376183454,-13164169.376183454,-13164169.376183454,-13164169.376183454,-13164169.376183456,-13164169.376183456,-13164169.376183456,-13164169.376183456,-13164169.376183456,-13164169.376183456,-13164169.376183458,-13164169.376183458,-13164169.376183458,-13164169.376183458,-13164169.376183458,-13164169.37618346,-13164169.37618346,-13164169.37618346,-13164169.37618346,-13164169.37618346,-13164169.37618346,-13164169.376183461,-13164169.376183461,-13164169.376183461,-13164169.376183461,-13164169.376183461,-13164169.376183461,-13164169.376183463,-13164169.376183463,-13164169.376183463,-13164169.376183463,-13164169.376183463,-13164169.376183463,-13164169.376183465,-13164169.376183465,-13164169.376183465,-13164169.376183465,-13164169.376183465,-13164169.376183467,-13164169.376183467,-13164169.376183467,-13164169.376183467,-13164169.376183467,-13164169.376183467,-13164169.376183469,-13164169.376183469,-13164169.376183469,-13164169.376183469,-13164169.376183469,-13164169.376183469,-13164169.37618347,-13164169.37618347,-13164169.37618347,-13164169.37618347,-13164169.37618347,-13164169.376183473,-13164169.376183473,-13164169.376183473,-13164169.376183473,-13164169.376183473,-13164169.376183473,-13164169.376183474,-13164169.376183474,-13164169.376183474,-13164169.376183474,-13164169.376183474,-13164169.376183474,-13164169.376183476,-13164169.376183476,-13164169.376183476,-13164169.376183476,-13164169.376183476,-13164169.376183476,-13164169.376183478,-13164169.376183478,-13164169.376183478,-13164169.376183478,-13164169.376183478,-13164169.37618348,-13164169.37618348,-13164169.37618348,-13164169.37618348,-13164169.37618348,-13164169.37618348,-13164169.376183482,-13164169.376183482,-13164169.376183482,-13164169.376183482,-13164169.376183482,-13164169.376183482,-13164169.376183484,-13164169.376183484,-13164169.376183484,-13164169.376183484,-13164169.376183484,-13164169.376183484,-13164169.376183486,-13164169.376183486,-13164169.376183486,-13164169.376183486,-13164169.376183486,-13164169.376183487,-13164169.376183487,-13164169.376183487,-13164169.376183487,-13164169.376183487,-13164169.376183487,-13164169.37618349,-13164169.37618349,-13164169.37618349,-13164169.37618349,-13164169.37618349,-13164169.37618349,-13164169.376183491,-13164169.376183491,-13164169.376183491,-13164169.376183491,-13164169.376183491,-13164169.376183491,-13164169.376183493,-13164169.376183493,-13164169.376183493,-13164169.376183493,-13164169.376183493,-13164169.376183495,-13164169.376183495,-13164169.376183495,-13164169.376183495,-13164169.376183495,-13164169.376183495,-13164169.376183497,-13164169.376183497,-13164169.376183497,-13164169.376183497,-13164169.376183497,-13164169.376183497,-13164169.376183499,-13164169.376183499,-13164169.376183499,-13164169.376183499,-13164169.376183499,-13164169.376183499,-13164169.3761835,-13164169.3761835,-13164169.3761835,-13164169.3761835,-13164169.3761835,-13164169.3761835,-13164169.376183502,-13164169.376183502,-13164169.376183502,-13164169.376183502,-13164169.376183502,-13164169.376183504,-13164169.376183504,-13164169.376183504,-13164169.376183504,-13164169.376183504,-13164169.376183504,-13164169.376183506,-13164169.376183506,-13164169.376183506,-13164169.376183506,-13164169.376183506,-13164169.376183506,-13164169.376183508,-13164169.376183508,-13164169.376183508,-13164169.376183508,-13164169.376183508,-13164169.376183508,-13164169.37618351,-13164169.37618351,-13164169.37618351,-13164169.37618351,-13164169.37618351,-13164169.37618351,-13164169.376183512,-13164169.376183512,-13164169.376183512,-13164169.376183512,-13164169.376183512,-13164169.376183514,-13164169.376183514,-13164169.376183514,-13164169.376183514,-13164169.376183514,-13164169.376183514,-13164169.376183515,-13164169.376183515,-13164169.376183515,-13164169.376183515,-13164169.376183515,-13164169.376183515,-13164169.376183517,-13164169.376183517,-13164169.376183517,-13164169.376183517,-13164169.376183517,-13164169.376183517,-13164169.37618352,-13164169.37618352,-13164169.37618352,-13164169.37618352,-13164169.37618352,-13164169.37618352,-13164169.376183521,-13164169.376183521,-13164169.376183521,-13164169.376183521,-13164169.376183521,-13164169.376183523,-13164169.376183523,-13164169.376183523,-13164169.376183523,-13164169.376183523,-13164169.376183523,-13164169.376183525,-13164169.376183525,-13164169.376183525,-13164169.376183525,-13164169.376183525,-13164169.376183525,-13164169.376183527,-13164169.376183527,-13164169.376183527,-13164169.376183527,-13164169.376183527,-13164169.376183527,-13164169.376183528,-13164169.376183528,-13164169.376183528,-13164169.376183528,-13164169.376183528,-13164169.376183528,-13164169.37618353,-13164169.37618353,-13164169.37618353,-13164169.37618353,-13164169.37618353,-13164169.37618353,-13164169.376183532,-13164169.376183532,-13164169.376183532,-13164169.376183532,-13164169.376183532,-13164169.376183534,-13164169.376183534,-13164169.376183534,-13164169.376183534,-13164169.376183534,-13164169.376183534,-13164169.376183536,-13164169.376183536,-13164169.376183536,-13164169.376183536,-13164169.376183536,-13164169.376183536,-13164169.376183538,-13164169.376183538,-13164169.376183538,-13164169.376183538,-13164169.376183538,-13164169.376183538,-13164169.37618354,-13164169.37618354,-13164169.37618354,-13164169.37618354,-13164169.37618354,-13164169.37618354,-13164169.376183541,-13164169.376183541,-13164169.376183541,-13164169.376183541,-13164169.376183541,-13164169.376183541,-13164169.376183543,-13164169.376183543,-13164169.376183541,-13164169.376183541,-13164169.37618354,-13164169.376183538,-13164169.376183538,-13164169.376183536,-13164169.376183536,-13164169.376183534,-13164169.376183532,-13164169.376183532,-13164169.37618353,-13164169.376183528,-13164169.376183528,-13164169.376183527,-13164169.376183527,-13164169.376183525,-13164169.376183523,-13164169.376183523,-13164169.376183521,-13164169.376183521,-13164169.37618352,-13164169.376183517,-13164169.376183517,-13164169.376183515,-13164169.376183514,-13164169.376183514,-13164169.376183512,-13164169.376183512,-13164169.37618351,-13164169.376183508,-13164169.376183508,-13164169.376183506,-13164169.376183506,-13164169.376183504,-13164169.376183502,-13164169.376183502,-13164169.3761835,-13164169.3761835,-13164169.376183499,-13164169.376183497,-13164169.376183497,-13164169.376183495,-13164169.376183493,-13164169.376183493,-13164169.376183491,-13164169.376183491,-13164169.37618349,-13164169.376183487,-13164169.376183487,-13164169.376183486,-13164169.376183486,-13164169.376183484,-13164169.376183482,-13164169.376183482,-13164169.37618348,-13164169.37618348,-13164169.376183478,-13164169.376183476,-13164169.376183476,-13164169.376183474,-13164169.376183473,-13164169.376183473,-13164169.37618347,-13164169.37618347,-13164169.376183469,-13164169.376183467,-13164169.376183467,-13164169.376183465,-13164169.376183465,-13164169.376183463,-13164169.376183461,-13164169.376183461,-13164169.37618346,-13164169.37618346,-13164169.376183458,-13164169.376183456,-13164169.376183456,-13164169.376183454,-13164169.376183454,-13164169.376183452,-13164169.37618345,-13164169.37618345,-13164169.376183448,-13164169.376183446,-13164169.376183446,-13164169.376183445,-13164169.376183445,-13164169.376183443,-13164169.37618344,-13164169.37618344,-13164169.376183439,-13164169.376183439,-13164169.376183437,-13164169.376183435,-13164169.376183435,-13164169.376183433,-13164169.376183433,-13164169.376183432,-13164169.37618343,-13164169.37618343,-13164169.376183428,-13164169.376183428,-13164169.376183426,-13164169.376183424,-13164169.376183424,-13164169.376183422,-13164169.37618342,-13164169.37618342,-13164169.376183419,-13164169.376183419,-13164169.376183417,-13164169.376183415,-13164169.376183415,-13164169.376183413,-13164169.376183413,-13164169.376183411,-13164169.37618341,-13164169.37618341,-13164169.376183407,-13164169.376183407,-13164169.376183406,-13164169.376183404,-13164169.376183404,-13164169.376183402,-13164169.376183402,-13164169.3761834,-13164169.376183398,-13164169.376183398,-13164169.376183396,-13164169.376183396,-13164169.376183394,-13164169.376183392,-13164169.376183392,-13164169.37618339,-13164169.376183389,-13164169.376183389
