,0,1,2,3,4,5,6,7,8,9,10,11,12,13,14,15,16,17,18,19,20,21,22,23,24,25,26,27,28,29,30,31,32,33,34,35,36,37,38,39,40,41,42,43,44,45,46,47,48,49,50,51,52,53,54,55,56,57,58,59,60,61,62,63,64,65,66,67,68,69,70,71,72,73,74,75,76,77,78,79,80,81,82,83,84,85,86,87,88,89,90,91,92,93,94,95,96,97,98,99,100,101,102,103,104,105,106,107,108,109,110,111,112,113,114,115,116,117,118,119,120,121,122,123,124,125,126,127,128,129,130,131,132,133,134,135,136,137,138,139,140,141,142,143,144,145,146,147,148,149,150,151,152,153,154,155,156,157,158,159,160,161,162,163,164,165,166,167,168,169,170,171,172,173,174,175,176,177,178,179,180,181,182,183,184,185,186,187,188,189,190,191,192,193,194,195,196,197,198,199,200,201,202,203,204,205,206,207,208,209,210,211,212,213,214,215,216,217,218,219,220,221,222,223,224,225,226,227,228,229,230,231,232,233,234,235,236,237,238,239,240,241,242,243,244,245,246,247,248,249,250,251,252,253,254,255,256,257,258,259,260,261,262,263,264,265,266,267,268,269,270,271,272,273,274,275,276,277,278,279,280,281,282,283,284,285,286,287,288,289,290,291,292,293,294,295,296,297,298,299,300,301,302,303,304,305,306,307,308,309,310,311,312,313,314,315,316,317,318,319,320,321,322,323,324,325,326,327,328,329,330,331,332,333,334,335,336,337,338,339,340,341,342,343,344,345,346,347,348,349,350,351,352,353,354,355,356,357,358,359,360,361,362,363,364,365,366,367,368,369,370,371,372,373,374,375,376,377,378,379,380,381,382,383,384,385,386,387,388,389,390,391,392,393,394,395,396,397,398,399,400,401,402,403,404,405,406,407,408,409,410,411,412,413,414,415,416,417,418,419,420,421,422,423,424,425,426,427,428,429,430,431,432,433,434,435,436,437,438,439,440,441,442,443,444,445,446,447,448,449,450,451,452,453,454,455,456,457,458,459,460,461,462,463,464,465,466,467,468,469,470,471,472,473,474,475,476,477,478,479,480,481,482,483,484,485,486,487,488,489,490,491,492,493,494,495,496,497,498,499,500,501,502,503,504,505,506,507,508,509,510,511,512,513,514,515,516,517,518,519,520,521,522,523,524,525,526,527,528,529,530,531,532,533,534,535,536,537,538,539,540,541,542,543,544,545,546,547,548,549,550,551,552,553,554,555,556,557,558,559,560,561,562,563,564,565,566,567,568,569,570,571,572,573,574,575,576,577,578,579,580,581,582,583,584,585,586,587,588,589,590,591,592,593,594,595,596,597,598,599,600,601,602,603,604,605,606,607,608,609,610,611,612,613,614,615,616,617,618,619,620,621,622,623,624,625,626,627,628,629,630,631,632,633,634,635,636,637,638,639,640,641,642,643,644,645,646,647,648,649,650,651,652,653,654,655,656,657,658,659,660,661,662,663,664,665,666,667,668,669,670,671,672,673,674,675,676,677,678,679,680,681,682,683,684,685,686,687,688,689,690,691,692,693,694,695,696,697,698,699,700,701,702,703,704,705,706,707,708,709,710,711,712,713,714,715,716,717,718,719,720,721,722,723,724,725,726,727,728,729,730,731,732,733,734,735,736,737,738,739,740,741,742,743,744,745,746,747,748,749,750,751,752,753,754,755,756,757,758,759,760,761,762,763,764,765,766,767,768,769,770,771,772,773,774,775,776,777,778,779,780,781,782,783,784,785,786,787,788,789,790,791,792,793,794,795,796,797,798,799,800,801,802,803,804,805,806,807,808,809,810,811,812,813,814,815,816,817,818,819,820,821,822,823,824,825,826,827,828,829,830,831,832,833,834,835,836,837,838,839,840,841,842,843,844,845,846,847,848,849,850,851,852,853,854,855,856,857,858,859,860,861,862,863,864,865,866,867,868,869,870,871,872,873,874,875,876,877,878,879,880,881,882,883,884,885,886,887,888,889,890,891,892,893,894,895,896,897,898,899,900,901,902,903,904,905,906,907,908,909,910,911,912,913,914,915,916,917,918,919,920,921,922,923,924,925,926,927,928,929,930,931,932,933,934,935,936,937,938,939,940,941,942,943,944,945,946,947,948,949,950,951,952,953,954,955,956,957,958,959,960,961,962,963,964,965,966,967,968,969,970,971,972,973,974,975,976,977,978,979,980,981,982,983,984,985,986,987,988,989,990,991,992,993,994,995,996,997,998,999,1000,1001,1002,1003,1004,1005,1006,1007,1008,1009,1010,1011,1012,1013,1014,1015,1016,1017,1018,1019,1020,1021,1022,1023,1024,1025,1026,1027,1028,1029,1030,1031,1032,1033,1034,1035,1036,1037,1038,1039,1040,1041,1042,1043,1044,1045,1046,1047,1048,1049,1050,1051,1052,1053,1054,1055,1056,1057,1058,1059,1060,1061,1062,1063,1064,1065,1066,1067,1068,1069,1070,1071,1072,1073,1074,1075,1076,1077,1078,1079,1080,1081,1082,1083,1084,1085,1086,1087,1088,1089,1090,1091,1092,1093,1094,1095,1096,1097,1098,1099,1100,1101,1102,1103,1104,1105,1106,1107,1108,1109,1110,1111,1112,1113,1114,1115,1116,1117,1118,1119,1120,1121,1122,1123,1124,1125,1126,1127,1128,1129,1130,1131,1132,1133,1134,1135,1136,1137,1138,1139,1140,1141,1142,1143,1144,1145,1146,1147,1148,1149,1150,1151,1152,1153,1154,1155,1156,1157,1158,1159,1160,1161,1162,1163,1164,1165,1166,1167,1168,1169,1170,1171,1172,1173,1174,1175,1176,1177,1178,1179,1180,1181,1182,1183,1184,1185,1186,1187,1188,1189,1190,1191,1192,1193,1194,1195,1196,1197,1198,1199,1200,1201,1202,1203,1204,1205,1206,1207,1208,1209,1210,1211,1212,1213,1214,1215,1216,1217,1218,1219,1220,1221,1222,1223,1224,1225,1226,1227,1228,1229,1230,1231,1232,1233,1234,1235,1236,1237,1238,1239,1240,1241,1242,1243,1244,1245,1246,1247,1248,1249,1250,1251,1252,1253,1254,1255,1256,1257,1258,1259,1260,1261,1262,1263,1264,1265,1266,1267,1268,1269,1270,1271,1272,1273,1274,1275,1276,1277,1278,1279,1280,1281,1282,1283,1284,1285,1286,1287,1288,1289,1290,1291,1292,1293,1294,1295,1296,1297,1298,1299,1300,1301,1302,1303,1304,1305,1306,1307,1308,1309,1310,1311,1312,1313,1314,1315,1316,1317,1318,1319,1320,1321,1322,1323,1324,1325,1326,1327,1328,1329,1330,1331,1332,1333,1334,1335,1336,1337,1338,1339,1340,1341,1342,1343,1344,1345,1346,1347,1348,1349,1350,1351,1352,1353,1354,1355,1356,1357,1358,1359,1360,1361,1362,1363,1364,1365,1366,1367,1368,1369,1370,1371,1372,1373,1374,1375,1376,1377,1378,1379,1380,1381,1382,1383,1384,1385,1386,1387,1388,1389,1390,1391,1392,1393,1394,1395,1396,1397,1398,1399,1400,1401,1402,1403,1404,1405,1406,1407,1408,1409,1410,1411,1412,1413,1414,1415,1416,1417,1418,1419,1420,1421,1422,1423,1424,1425,1426,1427,1428,1429,1430,1431,1432,1433,1434,1435,1436,1437,1438,1439,1440,1441,1442,1443,1444,1445,1446,1447,1448,1449,1450,1451,1452,1453,1454,1455,1456,1457,1458,1459,1460,1461,1462,1463,1464,1465,1466,1467,1468,1469,1470,1471,1472,1473,1474,1475,1476,1477,1478,1479,1480,1481,1482,1483,1484,1485,1486,1487,1488,1489,1490,1491,1492,1493,1494,1495,1496,1497,1498,1499,1500,1501,1502,1503,1504,1505,1506,1507,1508,1509,1510,1511,1512,1513,1514,1515,1516,1517,1518,1519,1520,1521,1522,1523,1524,1525,1526,1527,1528,1529,1530,1531,1532,1533,1534,1535,1536,1537,1538,1539,1540,1541,1542,1543,1544,1545,1546,1547,1548,1549,1550,1551,1552,1553,1554,1555,1556,1557,1558,1559,1560,1561,1562,1563,1564,1565,1566,1567,1568,1569,1570,1571,1572,1573,1574,1575,1576,1577,1578,1579,1580,1581,1582,1583,1584,1585,1586,1587,1588,1589,1590,1591,1592,1593,1594,1595,1596,1597,1598,1599,1600,1601,1602,1603,1604,1605,1606,1607,1608,1609,1610,1611,1612,1613,1614,1615,1616,1617,1618,1619,1620,1621,1622,1623,1624,1625,1626,1627,1628,1629,1630,1631,1632,1633,1634,1635,1636,1637,1638,1639,1640,1641,1642,1643,1644,1645,1646,1647,1648,1649,1650,1651,1652,1653,1654,1655,1656,1657,1658,1659,1660,1661,1662,1663,1664,1665,1666,1667,1668,1669,1670,1671,1672,1673,1674,1675,1676,1677,1678,1679,1680,1681,1682,1683,1684,1685,1686,1687,1688,1689,1690,1691,1692,1693,1694,1695,1696,1697,1698,1699,1700,1701,1702,1703,1704,1705,1706,1707,1708,1709,1710,1711,1712,1713,1714,1715,1716,1717,1718,1719,1720,1721,1722,1723,1724,1725,1726,1727,1728,1729,1730,1731,1732,1733,1734,1735,1736,1737,1738,1739,1740,1741,1742,1743,1744,1745,1746,1747,1748,1749,1750,1751,1752,1753,1754,1755,1756,1757,1758,1759,1760,1761,1762,1763,1764,1765,1766,1767,1768,1769,1770,1771,1772,1773,1774,1775,1776,1777,1778,1779,1780,1781,1782,1783,1784,1785,1786,1787,1788,1789,1790,1791,1792,1793,1794,1795,1796,1797,1798,1799,1800,1801,1802,1803,1804,1805,1806,1807,1808,1809,1810,1811,1812,1813,1814,1815,1816,1817,1818,1819,1820,1821,1822,1823,1824,1825,1826,1827,1828,1829,1830,1831,1832,1833,1834,1835,1836,1837,1838,1839,1840,1841,1842,1843,1844,1845,1846,1847,1848,1849,1850,1851,1852,1853,1854,1855,1856,1857,1858,1859,1860,1861,1862,1863,1864,1865,1866,1867,1868,1869,1870,1871,1872,1873,1874,1875,1876,1877,1878,1879,1880,1881,1882,1883,1884,1885,1886,1887,1888,1889,1890,1891,1892,1893,1894,1895,1896,1897,1898,1899,1900,1901,1902,1903,1904,1905,1906,1907,1908,1909,1910,1911,1912,1913,1914,1915,1916,1917,1918,1919,1920,1921,1922,1923,1924,1925,1926,1927,1928,1929,1930,1931,1932,1933,1934,1935,1936,1937,1938,1939,1940,1941,1942,1943,1944,1945,1946,1947,1948,1949,1950,1951,1952,1953,1954,1955,1956,1957,1958,1959,1960,1961,1962,1963,1964,1965,1966,1967,1968,1969,1970,1971,1972,1973,1974,1975,1976,1977,1978,1979,1980,1981,1982,1983,1984,1985,1986,1987,1988,1989,1990,1991,1992,1993,1994,1995,1996,1997,1998,1999,2000,2001,2002,2003,2004,2005,2006,2007,2008,2009,2010,2011,2012,2013,2014,2015,2016,2017,2018,2019,2020,2021,2022,2023,2024,2025,2026,2027,2028,2029,2030,2031,2032,2033,2034,2035,2036,2037,2038,2039,2040,2041,2042,2043,2044,2045,2046,2047,2048,2049,2050,2051,2052,2053,2054,2055,2056,2057,2058,2059,2060,2061,2062,2063,2064,2065,2066,2067,2068,2069,2070,2071,2072,2073,2074,2075,2076,2077,2078,2079,2080,2081,2082,2083,2084,2085,2086,2087,2088,2089,2090,2091,2092,2093,2094,2095,2096,2097,2098,2099,2100,2101,2102,2103,2104,2105,2106,2107,2108,2109,2110,2111,2112,2113,2114,2115,2116,2117,2118,2119,2120,2121,2122,2123,2124,2125,2126,2127,2128,2129,2130,2131,2132,2133,2134,2135,2136,2137,2138,2139,2140,2141,2142,2143,2144,2145,2146,2147,2148,2149,2150,2151,2152,2153,2154,2155,2156,2157,2158,2159,2160,2161,2162,2163,2164,2165,2166,2167,2168,2169,2170,2171,2172,2173,2174,2175,2176,2177,2178,2179,2180,2181,2182,2183,2184,2185,2186,2187,2188,2189,2190,2191,2192,2193,2194,2195,2196,2197,2198,2199,2200,2201,2202,2203,2204,2205,2206,2207,2208,2209,2210,2211,2212,2213,2214,2215,2216,2217,2218,2219,2220,2221,2222,2223,2224,2225,2226,2227,2228,2229,2230,2231,2232,2233,2234,2235,2236,2237,2238,2239,2240,2241,2242,2243,2244,2245,2246,2247,2248,2249,2250,2251,2252,2253,2254,2255,2256,2257,2258,2259,2260,2261,2262,2263,2264,2265,2266,2267,2268,2269,2270,2271,2272,2273,2274,2275,2276,2277,2278,2279,2280,2281,2282,2283,2284,2285,2286,2287,2288,2289,2290,2291,2292,2293,2294,2295,2296,2297,2298,2299,2300,2301,2302,2303,2304,2305,2306,2307,2308,2309,2310,2311,2312,2313,2314,2315,2316,2317,2318,2319,2320,2321,2322,2323,2324,2325,2326,2327,2328,2329,2330,2331,2332,2333,2334,2335,2336,2337,2338,2339,2340,2341,2342,2343,2344,2345,2346,2347,2348,2349,2350,2351,2352,2353,2354,2355,2356,2357,2358,2359,2360,2361,2362,2363,2364,2365,2366,2367,2368,2369,2370,2371,2372,2373,2374,2375,2376,2377,2378,2379,2380,2381,2382,2383,2384,2385,2386,2387,2388,2389,2390,2391,2392,2393,2394,2395,2396,2397,2398,2399,2400,2401,2402,2403,2404,2405,2406,2407,2408,2409,2410,2411,2412,2413,2414,2415,2416,2417,2418,2419,2420,2421,2422,2423,2424,2425,2426,2427,2428,2429,2430,2431,2432,2433,2434,2435,2436,2437,2438,2439,2440,2441,2442,2443,2444,2445,2446,2447,2448,2449,2450,2451,2452,2453,2454,2455,2456,2457,2458,2459,2460,2461,2462,2463,2464,2465,2466,2467,2468,2469,2470,2471,2472,2473,2474,2475,2476,2477,2478,2479,2480,2481,2482,2483,2484,2485,2486,2487,2488,2489,2490,2491,2492,2493,2494,2495,2496,2497,2498,2499,2500,2501,2502,2503,2504,2505,2506,2507,2508,2509,2510,2511,2512,2513,2514,2515,2516,2517,2518,2519,2520,2521,2522,2523,2524,2525,2526,2527,2528,2529,2530,2531,2532,2533,2534,2535,2536,2537,2538,2539,2540,2541,2542,2543,2544,2545,2546,2547,2548,2549,2550,2551,2552,2553,2554,2555,2556,2557,2558,2559,2560,2561,2562,2563,2564,2565,2566,2567,2568,2569,2570,2571,2572,2573,2574,2575,2576,2577,2578,2579,2580,2581,2582,2583,2584,2585,2586,2587,2588,2589,2590,2591,2592,2593,2594,2595,2596,2597,2598,2599,2600,2601,2602,2603,2604,2605,2606,2607,2608,2609,2610,2611,2612,2613,2614,2615,2616,2617,2618,2619,2620,2621,2622,2623,2624,2625,2626,2627,2628,2629,2630,2631,2632,2633,2634,2635,2636,2637,2638,2639,2640,2641,2642,2643,2644,2645,2646,2647,2648,2649,2650,2651,2652,2653,2654,2655,2656,2657,2658,2659,2660,2661,2662,2663,2664,2665,2666,2667,2668,2669,2670,2671,2672,2673,2674,2675,2676,2677,2678,2679,2680,2681,2682,2683,2684,2685,2686,2687,2688,2689,2690,2691,2692,2693,2694,2695,2696,2697,2698,2699,2700,2701,2702,2703,2704,2705,2706,2707,2708,2709,2710,2711,2712,2713,2714,2715,2716,2717,2718,2719,2720,2721,2722,2723,2724,2725,2726,2727,2728,2729,2730,2731,2732,2733,2734,2735,2736,2737,2738,2739,2740,2741,2742,2743,2744,2745,2746,2747,2748,2749,2750,2751,2752,2753,2754,2755,2756,2757,2758,2759,2760,2761,2762,2763,2764,2765,2766,2767,2768,2769,2770,2771
0,-1532.26982894845,-1452.788158872738,-1565.601675706528,-1450.582507042582,-1423.458284120973,-1221.3683685288777,-1371.0513448352606,-1606.584004046204,-1348.0608507209904,-1369.464580115698,-1570.0225710824432,-1516.8867083057344,-1545.8512280038738,-880.3072708959462,-1612.0363264767743,-1279.2165913582726,-1420.7393278808904,-1394.8523966592152,-1327.9992135192915,-1410.7729929812451,-1254.503976796966,-1448.7359405621924,-1591.5675718909022,-1243.0704220551063,-1581.4466187622904,-927.3000425059392,-1450.0606235815494,-1449.1130582715994,-1163.688871733482,-1428.089388326838,-1700.1760720865025,-1354.2822834005094,-1453.3420737610797,-1162.7435151763398,-1422.7623538878456,-1541.415565234902,-1470.4791785517903,-832.7292608646386,-1180.7544568802546,-1569.7676137477044,-1435.0435886394075,-1453.4227298916596,-1377.5225505050928,-912.9855324040353,-1621.1110859294267,-822.1402388582856,-1408.3604875066708,-1636.109824601167,-843.2908293423048,-1259.1335846755348,-1347.809386215515,-1454.0503661825733,-817.6703757733579,-1389.7980191273941,-1490.0872204006494,-1242.716917055159,-1129.3141093273468,-1251.9317613074172,-1389.8769620146752,-1293.6603363320667,-1473.1016539731197,-1470.2272553814778,-1485.6005623030471,-1306.6653423415592,-1448.8818946631525,-1246.4690207545955,-1480.9891102284253,-1007.801096991373,-1418.2635075698818,-1363.3462316333923,-1532.069372913811,-1387.4409287618116,-1422.2105325576297,-974.5394223165728,-1438.1271508874045,-1256.400385721407,-1435.1042080039463,-1184.6705262472935,-1423.8449566921813,-880.1668948508558,-1363.5757788636488,-1459.6879203345497,-1457.0956489559726,-1208.5971471314472,-1172.1823685529723,-1285.831754920807,-1221.6274636391042,-1624.6268072590858,-1221.4413276258683,-932.6341580301225,-891.8104730973882,-1582.327841562637,-1189.813185571681,-815.8458809288904,-812.9880725121122,-1514.0664457525743,-1167.1698224266395,-1371.8724005357844,-1521.5453647592676,-1459.2928085918932,-1191.434524832492,-1351.4737153720566,-1231.3969121736045,-1109.467537086334,-835.6915567306879,-1366.3096360587012,-1459.9929116131198,-1210.4290971592156,-1486.0308724802517,-1400.1624392261951,-1299.6639277413294,-1652.2208721173292,-1401.8925436108084,-1381.0954237875847,-1080.7201432243257,-1499.4752330844294,-1472.9474729028946,-1440.0285430643537,-1255.809823187124,-1416.0737866201744,-1286.0049703120535,-1496.4636961708604,-1516.7348740503598,-1388.9627658976203,-1264.4976462973802,-1206.5776026252563,-1227.7727103754255,-1485.0216322168278,-1467.4861012641009,-1368.216983846497,-1237.6407094132921,-1451.7687056399827,-1304.9658619051934,-935.9853442267748,-1628.9996326171677,-1326.2306343932773,-1219.8960193235982,-1258.766189882799,-1533.906147670413,-957.827608326741,-1635.4950032636084,-1171.6938421251275,-870.7723916098195,-1524.587123715347,-1602.4979604624277,-1283.9183189700996,-1420.4910961341504,-1591.0429506887126,-1541.9376189114996,-1466.302556188324,-1220.4884941369387,-859.16294118985,-894.7278171892123,-1393.4059956024241,-1551.0962424512898,-1511.9055623402655,-1230.0543688359742,-1309.1255260178716,-1556.547218197337,-1403.2054284272488,-1304.4628229947346,-898.5556425262779,-1663.677267525536,-1429.7431940298495,-1256.8323068498376,-1394.247117447439,-1396.0094862324781,-1292.1344914707556,-1287.400215126251,-1219.4370873013881,-1230.3736140950386,-1281.3136426879323,-1275.4969483678017,-1292.5601862955077,-938.1063695812462,-1263.6273585849199,-1348.0263445048934,-1575.9316144012566,-1215.2076646091325,-1465.4973599758955,-1141.5422196547013,-1611.0170249118225,-1511.6233897152174,-1352.8028094187969,-1346.738033716473,-1213.3894242667927,-1171.2099483775376,-1343.824418419827,-831.8725621053636,-1268.2079610353082,-866.174795033597,-939.417997883841,-1238.2583752888006,-947.2934585444181,-1547.4462304697486,-1317.5904329685504,-1194.7223486741007,-1507.1678955832426,-1446.10121856574,-1291.79852243989,-1237.8062485486691,-901.1220946137695,-1401.8137293223103,-1370.9810702831282,-963.0453093707414,-1309.673023322219,-907.2029518032938,-1675.9708591439132,-1574.1200083793574,-1486.0917984790751,-1449.081597619176,-1271.0436332137622,-1236.121685526857,-1286.1291167380368,-1310.4159903130635,-1352.1726530615736,-1573.516925139114,-1540.1132318080518,-1268.9698332382561,-1377.3926434867612,-1237.9273996474683,-1443.9118432325606,-1450.7986477121044,-1315.0215860421222,-978.9415593771118,-1334.0597736609707,-1466.0859464090513,-1271.3032731893607,-1568.8223275599807,-1423.6871456465976,-1271.2353555047916,-1354.3583685394697,-1242.392223559475,-1420.0751863858418,-991.7463746179993,-1408.539866793544,-950.3623251203157,-1512.5237137263164,-1326.793880273393,-1468.3115853056538,-1477.1090982460175,-1306.6476598370532,-894.8892963819846,-1356.7950151920093,-920.0982946258504,-850.4782843724903,-1335.3255417460246,-1522.0013152981248,-1437.0986146146777,-1262.9069804965136,-1510.7357566651526,-1549.2517982374575,-868.7652625867524,-1260.1486525791515,-1292.5932169014006,-1496.481175319048,-986.2951656985452,-1254.7246621346924,-1337.1740823250168,-1351.1091461557314,-905.2405077771836,-1269.4115922552232,-904.9271282991435,-1274.8182090837986,-1351.039227642015,-886.4349819990402,-830.0357767802444,-1304.6854299954775,-933.7795940689812,-1239.8030473509311,-1320.0088795179638,-1380.1180457641944,-1489.7070524344767,-1347.6760916526327,-918.3027040029478,-1324.0500128777157,-1290.07262699719,-1510.2704764340233,-960.9219873976625,-934.9025420459227,-1313.040580060435,-1513.470883272425,-1365.1080902960946,-1328.0796579100825,-1269.1392899874222,-1313.466110182573,-1339.2241993232692,-1325.3850078001933,-1375.7914952725987,-1438.3951584534852,-915.3043836652387,-881.6989467708651,-1414.457803191873,-1501.918502723505,-1341.6848892399794,-1446.9989779542461,-1382.2192339811363,-1289.847383540745,-1321.99883832959,-1250.7569874648611,-1369.9315045229396,-1457.5472672059318,-1365.4696531862176,-1319.6733473381737,-943.0590747888781,-1340.9980173068823,-1457.5701447156196,-1300.9548183855113,-1365.8508087233447,-1293.366354322567,-1313.4743265753932,-1466.5520568329553,-1367.2913506264713,-1343.8349032133365,-1347.7817624009974,-956.2170675014128,-1369.3297905057784,-1589.9572787795328,-949.7885463276499,-915.888887460977,-1350.0268634214638,-1507.5205691272668,-894.9718678415459,-1311.0112969939644,-906.8723801029403,-851.4522417611029,-1416.0632056549532,-911.0531434258594,-914.851040169773,-878.9321934802474,-1390.0836884763503,-1562.1458242727233,-1336.7368136657844,-1320.6342054683853,-978.7053372542645,-1603.1986204578977,-1570.4699908025807,-1428.344417453232,-1471.085642786492,-980.3771325260997,-1305.5591255569545,-1394.9623093174946,-1244.9329315966818,-1484.5635259991582,-1238.1338741255142,-1636.6652233983284,-1231.585617897739,-1432.5081985492973,-917.2333958465678,-1354.579634925899,-1334.809887291916,-1297.1484839752973,-935.9329386150694,-903.8020166660124,-1298.7618060875957,-1446.971523249665,-1301.1610294502286,-896.4041094346918,-1435.6010854143547,-1017.382586955801,-1304.3701931297348,-1317.066737256071,-1374.8284724458201,-952.2988645755327,-1303.4667096834307,-1402.7738377015087,-1310.4218878677686,-1189.7681187051435,-858.4476028997602,-1375.1197411600294,-917.1550996608709,-1305.8896957789607,-1316.6801270792955,-1315.6311182654247,-1386.775795634618,-1504.0105981191448,-1247.7785349548024,-1049.1691166745595,-1298.3241711948456,-1468.7167106694897,-974.4447507087395,-947.638393733601,-1392.1043957706313,-1242.9222581536178,-961.3280456662209,-921.3479467184171,-1359.2477769654124,-864.933823430267,-1318.5211788309146,-1315.6432122499666,-1322.7262344861883,-1412.1293833191935,-1368.5834904912151,-996.7138432552362,-971.3094795818071,-1358.7590604033967,-920.0829906396656,-1525.0649789553856,-1009.2084955514421,-1461.2175880795317,-1356.9206610071199,-1291.4540544289925,-1390.8231000284047,-953.5998794643945,-1327.2325049961769,-1432.3736259969098,-1454.914353584201,-1004.8929674618909,-1580.8819233528307,-960.9415710104936,-1470.603653090347,-972.3458775756372,-1375.1087426330892,-1360.2735682740738,-1397.104042958142,-1626.6607899454796,-1498.2630261524487,-931.5106202059003,-1274.4153498820185,-890.066845911154,-878.6656550088605,-1414.5805263405432,-1398.7899296948378,-1469.846687006707,-1025.058726482298,-941.1669922421006,-1406.95982468376,-1473.6531254436952,-1382.0946401409637,-1317.8059717453823,-1345.371923484668,-1327.9701206454192,-1362.4186120926686,-1407.2392872303574,-1366.0040238883596,-1358.0184114966225,-1476.3011666167697,-979.0943352724248,-1558.9306585973604,-1369.9557109226944,-1486.341656467777,-907.7864562716588,-1457.3102506270498,-1649.8627612166176,-1507.8767810142865,-1309.842107419877,-1393.7616079419686,-977.0147254964066,-1353.5103899328865,-1445.6959361487877,-949.6632356820683,-1356.3874177725686,-996.2184964739429,-1006.8906162543211,-1301.4060418922595,-1374.2865388847517,-1428.7390410348748,-1310.0274402014488,-1377.354690491161,-1556.1487834840714,-1332.4105989411537,-1005.8795151482254,-900.7305541137816,-1471.9862433117612,-1476.5991437425826,-961.5132270207448,-1337.0705384414473,-1471.6930188136985,-1437.4727392487614,-1356.9165583363147,-957.5958393941361,-1009.5219939367697,-1459.864015726591,-1366.153491424658,-941.6560206920332,-1524.2230628213783,-1233.0611819967585,-979.5617562057836,-1427.5650454280672,-1555.8274844989255,-1326.1992505011046,-1381.4594111877648,-1218.8032236026377,-955.4886891555459,-1297.1512926252603,-954.4570547498804,-991.5897421870977,-974.1510846541803,-1631.850625633141,-973.0613643881943,-1338.9275606599356,-1285.4482976876568,-1289.7797796257353,-1597.5186733276353,-1386.2099510685518,-1264.1280700891089,-1409.7540044482896,-987.1128803900845,-1020.4365477931764,-1368.2170682744602,-890.2843663057064,-1472.4647885527486,-1001.3814610147704,-1403.0162087457068,-935.2268167142214,-1463.517563028878,-1332.1019207768184,-970.9681655826721,-1017.1754996243171,-1411.062990727885,-1309.2869438827438,-930.7183388719147,-960.1807908022231,-1313.2956146620968,-1034.3627280079227,-993.4977139515871,-1383.5401456744803,-1010.4125104765044,-921.003049881961,-1307.5925123481577,-981.365023308288,-1037.468454963896,-1436.5405496012845,-1380.6969850165933,-1026.7799272758036,-1305.3415939202685,-1383.4422793466613,-977.4799937127234,-1444.5523876945454,-1028.2865959469696,-1302.7796434331426,-955.0282902340305,-1505.9509649939846,-1347.0276953352322,-1295.04343017358,-1012.6576375269633,-1311.1873719997577,-1251.5924965901245,-1314.8820910955192,-990.6407129614157,-987.059254923972,-1403.2706264414671,-1535.585396336475,-1372.8835552607186,-1344.7213368529146,-991.551919212896,-1419.6699115339552,-1478.6091964480313,-934.6427677113802,-1025.7120149995178,-1375.273907658938,-1627.5269891541957,-1031.169600523326,-1014.6359910532549,-985.295115852038,-1392.284343929531,-1367.923330036141,-999.6222030222069,-1013.7014848287968,-984.7010342497665,-1385.4033240491112,-1013.0121586465481,-1435.3233587853902,-1463.810085249186,-1339.1607748458464,-1512.2024281366828,-1410.0614156464248,-1382.0327542060127,-1066.247134836383,-1384.2278825011797,-1005.2481560226818,-961.413155382374,-1061.6256895821377,-1078.4666540075184,-1068.9214336677628,-1392.8638235080202,-1174.9713065140566,-914.3200077477063,-1278.6983709479046,-971.103931465852,-1401.558643118294,-1492.054120749923,-1324.2154114849598,-1351.062839748551,-1435.3738466916561,-1026.2047102528206,-1444.0884781671525,-1590.425423616197,-1049.9840479551483,-1445.8061672776944,-1365.5415017686546,-1352.7666510573852,-1057.1889572701918,-965.3775403099366,-1264.0569782490845,-1388.682164244434,-1398.213004204439,-1447.068902478592,-1538.866593056414,-1453.077077666248,-1620.355894705506,-1102.767761485478,-1743.9279323745136,-1370.1806667616172,-950.0980360889449,-1317.6760575229443,-1045.370624760602,-987.0309211078674,-953.8207404404119,-1409.3441152837543,-1059.405105718534,-992.0266641883937,-964.3679095295569,-1157.6664902476466,-1063.1520518037346,-1465.8221404622057,-1608.5300789934631,-1437.2801099002313,-1036.5550329129478,-1273.3276674636377,-1019.8341320623599,-1290.1321232391326,-1235.1708117112735,-995.3620080873334,-1081.3643130712207,-950.8483342265936,-974.5923684864595,-1034.510024646875,-1019.7329026411088,-1366.5668840868398,-1021.8512587318874,-991.465274557614,-1328.2635301380317,-1018.9349756021909,-1453.9189781290056,-1552.124639315145,-1368.7078941705138,-1076.0657746141144,-1363.7512287123964,-1023.3543431116836,-1425.7207964652166,-992.5280776680863,-1027.4082973764055,-1432.3905950159237,-1351.5571043437812,-1003.9556165816587,-974.3106116239538,-1021.0935733288503,-1286.2984040411875,-989.6016403590772,-1075.6034314606975,-999.1742790426387,-926.6884889856927,-1057.3643913823867,-1392.7103100600393,-1424.0163735213796,-1454.7738117972929,-1297.2488122793097,-1380.4287164808522,-1429.155304656792,-1506.1754423089585,-1469.4164654462081,-1364.693203829333,-1219.3339751045328,-1456.5169721931875,-978.3157887339354,-1421.3223232166843,-1384.7222307069371,-1483.5079172561707,-962.7686562544671,-999.8134197049144,-990.9499544855876,-1098.1450919469637,-1431.1207817416828,-1093.1504373621465,-1056.6961943227025,-1475.7663717667203,-1314.0345507888371,-1069.317040268683,-1005.4901392619458,-1016.8218546808774,-1064.2106202222446,-951.3849512774048,-976.5900668090896,-1054.173835149105,-1003.2700998050174,-1344.6497077858949,-1324.4602228958101,-966.0411320255963,-956.3464104885414,-1381.9789307057445,-1365.9719953844133,-1001.9766977731523,-1049.0627359057378,-1032.2077162800224,-1583.9673183587092,-1152.9795537669206,-948.0961926113634,-1007.1369545546165,-1399.8986868393495,-950.2886643295592,-1407.4720513758127,-1572.4189475579012,-1040.190092911715,-972.7110046296002,-971.6621478067403,-1003.50214793849,-919.2756894232166,-1007.4989496976224,-1036.7955223329222,-1451.2118465058413,-1238.8967148002102,-1012.8065903465425,-1262.4149222000106,-1332.7077927985333,-1052.6649161290186,-1365.828554177343,-1546.2999217470472,-1505.9741289562141,-1521.0833757542937,-1433.5027257360875,-1314.1340542182256,-1443.5416448920034,-1028.1797614988016,-1378.743812888492,-1033.76545734836,-1437.4825062466523,-1058.987631446994,-1550.5194157317874,-1369.5032574241961,-1405.5138939770889,-976.993447885823,-1453.1270088742733,-1381.9071756430665,-943.3987807017864,-1392.4597307326576,-1614.7944467851287,-1241.9336886290566,-1118.6519963140256,-1427.9546657084995,-1352.0500820324696,-1383.8652742275221,-1036.648627766929,-1017.9579043039588,-1449.9172367006936,-1063.8902317629197,-1375.3593197518064,-1497.6969035732807,-992.6960414691413,-1390.986327635549,-1080.2447342768821,-1385.38783513928,-984.874730897724,-1328.7355233081246,-1025.6676919143197,-1428.993361886318,-1414.663958209547,-1071.334759622234,-1024.6364638046941,-1387.2788247003696,-1382.8286178590458,-1007.1641054016654,-1128.0875284619885,-1408.3006622265125,-1052.6141186936256,-1620.117021899327,-1493.5141179652658,-1365.4847109852537,-1255.1269451856556,-1023.214389305375,-1396.9762431664753,-1010.3649947607149,-1016.4448383578284,-1028.536452163513,-1550.832457351893,-1103.9484663834012,-1038.789616059136,-1371.5406893182428,-944.9811539273463,-1488.5757768587487,-1154.4887774734736,-1399.6337071105759,-1004.7097479017804,-1439.039355136628,-1342.0524082443126,-1266.929395720614,-1016.8406725123333,-986.8195105062288,-1261.3740971805928,-1006.6498429782746,-1448.6821752767542,-1390.5225928027219,-1053.9482439766969,-1658.5124053666975,-1071.7212472716383,-1374.9459234121027,-1041.3700031005694,-1538.734292703276,-1385.1001840373854,-1125.8908293941004,-1411.1894087182702,-972.4827125012212,-1032.7006188629725,-1085.5898568433872,-1005.625501436674,-1020.268809532991,-1106.3382615070796,-943.0781149255571,-1050.618624794556,-1002.5153608549673,-1367.101079051239,-1056.0865907674258,-1032.634919603946,-1013.344528078792,-1040.2759936215762,-1058.4865969255561,-1447.7093527178304,-1058.191040824512,-1042.6862796330145,-999.6831423348638,-1490.2390702221032,-1037.1679218424088,-1614.2503281413037,-1093.7692901488822,-1067.8853429853905,-963.2411794496007,-1400.0636252036804,-1418.4826919825716,-1473.3339301169965,-1048.6537851179453,-1014.3442308000346,-1507.6021150382503,-984.0125882960426,-1371.015312102669,-1020.6986799825924,-1285.9556458881198,-1397.2128624232566,-1437.2675071685062,-1085.8165348747298,-1478.6618798517034,-1047.901940228462,-1112.5841124070091,-1134.8124418535174,-1379.93783261297,-1048.2634808374694,-1144.3572940901756,-1395.4375695009153,-1024.1141430549678,-1104.8577839624147,-1237.7396971675716,-1438.9231813549652,-1062.149416276337,-1054.710457811922,-1345.3329042174742,-1049.0147133006024,-1389.6203162481183,-1366.2923192688024,-1056.2353924712368,-1457.3295589267411,-1075.046835457042,-1101.5226136881365,-1271.0223848909748,-1382.2674832682203,-1412.1932057802849,-1009.8908107666339,-1006.9396300527574,-1444.9229919522684,-1525.029636467952,-1436.0360995001513,-1075.1824458212366,-1538.2287182690388,-1063.2520889898242,-1041.0279587872863,-994.4270126444937,-1403.3778393355071,-1503.9951585489098,-1093.774290904496,-1479.1204901877124,-1406.613218118353,-1033.1342425914295,-1104.0687153916563,-1336.6815881753462,-1029.226377205276,-1051.3928877072312,-1015.4427282556745,-1452.0910966697418,-1320.3494919767204,-1461.215888330606,-1343.9808774290595,-1447.7384385233381,-1055.17989263228,-966.863114549806,-1008.4094443195625,-1574.5995414076758,-1603.3898611830116,-1436.4706434936713,-1238.6593180292396,-1580.159802392479,-1616.7690219534418,-1504.4103895588903,-1020.2979351542642,-1495.6933715277748,-1313.7906135626063,-1520.8260621725447,-1310.4024152531204,-969.1085018559819,-1490.882250805193,-1004.9576774449852,-1509.453762376532,-1548.448436276795,-1581.792613818985,-1376.9007400134158,-1342.8674969846138,-1105.5194877116487,-1037.3995187615137,-1343.15334810378,-1041.724341160148,-1366.5877118772335,-1449.8267424090038,-1068.782639921755,-1062.2656339201708,-1088.0601085255284,-1531.5809339024868,-1342.4680413386106,-1194.6354641378236,-1245.6819061673036,-1585.257479330227,-1611.4860399639072,-1478.4897954774149,-1174.3988839275085,-923.3754556215982,-1631.6819979796799,-1389.1574539121934,-1044.3506322599796,-1283.0788763911971,-1363.4031824486283,-1524.0454426137037,-1370.3645490767465,-1428.0855029152694,-1321.1411744443326,-1900.839679024048,-1369.7429748405616,-1099.8080215786151,-1419.162734705863,-1360.8242630192751,-1085.530842460917,-1041.507187399238,-1027.7916881413366,-1255.0657099129185,-1073.0956330668948,-1377.1777531726902,-985.9015109087363,-1348.7446726704686,-1428.54067415879,-1380.825660496937,-1077.6117587190902,-1052.835328918477,-1424.676709086004,-1332.0304134985975,-1519.1269170408912,-1405.2125173613313,-1362.9650264791892,-974.3727820400425,-1371.6980376189274,-1549.4816238387152,-1526.2639924114526,-1010.718579115005,-1267.9185927123615,-1144.5006086036183,-1023.8696135363934,-1492.5914945866482,-1482.8623126889465,-1070.6343302353202,-1148.1616149133913,-1019.5833575689178,-958.0473683291701,-1676.6713266335837,-1293.0957806963713,-1128.639032063534,-1482.5516673960196,-1544.5879555625936,-1376.6106636822453,-957.1036842268323,-1421.2486129218146,-1534.5673531223003,-1128.4821143741035,-1321.9171303556288,-1395.8838418085409,-1093.3864582677352,-1322.4070851057406,-1003.4339787467135,-1519.2457625411669,-1115.569359350634,-1363.0948668531237,-1175.8545657788247,-1686.799463380478,-1093.4644017006485,-859.2253137648976,-1095.2581131195982,-1529.5668346562318,-1389.8062083907378,-1106.6042541842378,-1282.925746393721,-2120.8816939749804,-1116.6748615799336,-1311.5989717459076,-1116.9445706511328,-1050.2640693355172,-1116.5577095468352,-1201.9259152190207,-1157.3879937311501,-1356.0716493011066,-1568.298594678865,-1133.5000087831663,-1142.93376090249,-1437.9733116411305,-1107.8688182253363,-1458.445963207784,-1473.3964016645814,-1109.933109811611,-1376.6606357329451,-1066.9034295359413,-1467.8429199538684,-1417.13466410747,-1367.5869997093305,-1058.908721789039,-1085.5231788294038,-1117.6717316863571,-1146.3323821162317,-1097.9347442811088,-1556.6143084756538,-1112.9945053273354,-1591.8837731565693,-1206.5177315353503,-1044.4836885379389,-1473.5692393221238,-1092.920314134822,-4113.243348978995,-1896.5129675456528,-1398.0273776554905,-1538.639769836731,-1360.558797202706,-1170.7492874289549,-1426.5004978795746,-1354.9866440927558,-1153.5408755627273,-1338.6568970047713,-1394.3173825816334,-1576.0933440667566,-1208.6391766366153,-1632.4303472943293,-1232.1844837482347,-1230.7186495385158,-1054.6241117779618,-1362.7406302402308,-1577.6189901930752,-1119.7653501327923,-1418.259369017925,-1330.7379231390262,-1542.844640809704,-1175.4425551175932,-1023.593971194034,-1383.5214360977518,-1486.3931114488016,-1329.2612073764017,-1425.743590254363,-1119.621896464038,-1602.3339062412595,-1089.104781187061,-1440.4003996590227,-1171.4855564712043,-1205.5025791752216,-1003.2212923962912,-1192.057148782404,-1159.4222771847587,-985.4856462513509,-1200.286337910956,-1144.9063111211817,-1442.7427703622218,-1123.2995069671597,-1106.9684656672466,-1284.4103093471485,-1043.9066503796798,-1515.3264798644657,-936.2217639997756,-1188.3389679743134,-1111.4667070183245,-1413.2388702861726,-1136.6191481607518,-1052.6454087826905,-1253.7134283997927,-1112.1288360092453,-1188.1029245421078,-1327.3803329949394,-1094.7671437103133,-1617.6062613752233,-1406.901875776989,-1196.1795973281896,-1126.2344714586784,-1168.3665545174995,-1590.7573993282433,-1411.0924125201232,-1577.194964857528,-1665.8192131431163,-1483.032182481691,-1119.1551248214332,-1412.8715062578651,-1486.893058578482,-1655.6828022650202,-1069.9992239591202,-1083.853389842758,-1377.611650515573,-1085.7788767476518,-1145.4712477063554,-1413.3079023429016,-1478.1656342212036,-1189.4894141356644,-1539.8353131018764,-935.2447632282051,-1178.5991826686843,-1589.4126633321691,-1184.0015340720374,-1127.628406621385,-1057.065033605159,-1323.8362120581683,-1554.9918830429208,-1482.6828310034991,-1385.284280208638,-1128.6016025616468,-1371.305861418199,-1471.6029243948535,-1497.3288283024922,-1327.1156599406715,-1518.2052029258607,-1108.069603388346,-1071.6449636269535,-1099.744534423736,-1460.9158524149666,-1114.6355150366535,-1459.6245583374478,-1236.7319959369556,-1047.3638106506025,-1165.8886695802885,-1152.9271657200468,-1609.975775063606,-1419.169005743775,-1364.5519765167649,-1095.9278455981098,-1091.5148088513752,-1466.0861522276984,-1122.1748214070867,-1390.3127721356418,-1125.273136225021,-2341.282775066493,-1154.359322334806,-1104.158461960312,-1057.411335240193,-1340.917571094748,-1520.1110730382436,-1084.4911589597925,-1450.9084746461535,-1112.95556832226,-1127.3919174170344,-1068.855322539594,-1341.6854018908596,-1184.2684249329263,-1518.9771543032887,-1282.3648844864472,-1160.2710207936602,-1092.4360484337897,-1564.2873863283478,-1080.792281185536,-1324.8698112464238,-1474.8417113472071,-1519.2217752634467,-1221.9881123462999,-1408.675982238366,-1182.7145062718448,-1052.2629842124968,-1124.0182854572718,-1075.9527018554643,-1308.2881190647943,-1450.2037155978724,-1375.7823756329058,-1339.5582452753176,-1414.9913987729828,-1404.3364245441062,-1223.7955325516518,-1345.5381217517706,-1402.5020009990756,-1135.6706473465147,-1540.3852405514679,-1145.4462293867377,-1179.6576281960668,-1449.928889843967,-1330.4169608514533,-1328.4511471124674,-1469.341285378718,-1393.7400877670884,-1113.701970502153,-1510.4294461775428,-1047.531315147387,-1264.6847270217654,-1590.7317523757404,-1160.563553512281,-1355.8194160930314,-1296.9585241664736,-1039.8124420350366,-1086.48853323564,-1508.430842258433,-1375.4763350950598,-1409.8246405226073,-1080.0066850644648,-341.35944086199476,-1565.2439437897824,-1384.3714745072243,-1684.1009410843537,-1444.4774800453029,-1153.1010662382134,-1388.8288232711911,-1430.590014229909,-1379.0155808195902,-1585.6201162612629,-1333.6168940425114,-1441.0052600018978,-1159.7944549264425,-1535.312232407459,-1042.3187102860923,-1393.367365756162,-1103.7245663019935,-1404.0022616958042,-1335.7249171592039,-1318.843596704315,-1458.138902375877,-1456.277678300666,-1426.7245754703893,-1340.2999677223322,-1217.4257377228682,-1386.8496818377248,-1239.7977274600178,-1601.4460763248383,-1139.3704250564685,-1418.3005407151672,-1082.859348422168,-1328.114505513895,-1002.0153322098578,-1515.3318221943462,-1608.9699241935123,-1770.1765283895434,-1710.0279945703828,-1232.4160469097874,-1558.7537416226835,-885.0407120757181,-1543.4175937006676,-1600.8513735878375,-1126.6572213105792,-1642.7921021459028,-1126.7989001480848,-1269.501271441711,-1372.9984341058582,-1094.6679494119664,-1141.1337470715036,-1206.3811371560296,-1274.3855765274925,-1013.4262500712151,-1443.6497634070945,-1261.9551658169648,-1382.4812745678046,-1367.101512143361,-1422.3632588248815,-1409.947694846507,-1291.005432457889,-1039.1030864526836,-1047.8606190922799,-1163.1269480140286,-1097.0807518203883,-1138.572987141231,-1098.6135549831124,-1071.147347492437,-1106.5937394147898,-1625.222285335265,-1305.255244359662,-1148.7047966099897,-1231.1962534346233,-1224.350887232279,-1062.1513511411003,-1363.5283931840872,-1121.5083195489447,-1394.1779326447677,-1326.081236484367,-1385.9952099478514,-1167.9844265871973,-1123.9649041041555,-1301.1354380183468,-1212.05461962666,-1165.6716352012056,-1360.9040508270743,-1362.12241065836,-1203.3873381552323,-1159.8413241517194,-1037.122989547293,-1198.307794687627,-1179.3247498091891,-1388.4969685014644,-1122.6750045458361,-1401.807359949222,-1176.4533653664546,-1200.7169809784382,-1138.394815769436,-1066.9821034543913,-1186.5356877354268,-1542.7957473760302,-1200.8098395652962,-1652.9198434450304,-1445.9072725623248,-1397.1264469534879,-1339.3603034173393,-1157.6394770557565,-1125.188733076098,-1107.215506926956,-1466.4253290970441,-1261.62898830583,-1342.6443657027814,-1392.8428754394554,-1351.5964067900607,-1477.7253989848202,-1119.1326973480875,-1095.4852513312085,-1440.603033464247,-1199.3414577377898,-1284.1973601511884,-1240.8582836938165,-1116.3974258581839,-1110.749723859041,-1128.8174506525875,-1140.3475950737734,-1198.2628874827524,-1258.392182200515,-1414.8193120636095,-1523.0183791003392,-1340.608333716899,-951.9652015143774,-1401.910103162013,-1284.4806737438707,-1095.7403748909687,-1367.7161306975104,-1482.9768453065788,-1165.8056424922313,-1518.2699332411553,-1247.4798920334213,-1112.6823943667755,-1403.3038831989522,-1110.898815620777,-1155.2290550057767,-1398.1425120562972,-1320.1968390849804,-1407.9939850453582,-1251.2079309157373,-1178.2703679140525,-1482.5730823248775,-1141.326225612412,-1415.5631666525912,-1067.3801450404978,-1397.427952862475,-1240.7776048291903,-1449.7096590973847,-1241.5830237178152,-1473.8426570826582,-1262.5278079478037,-1113.0755718883936,-1372.3235685105033,-1254.7479253584313,-1096.6177874038615,-1397.1862314703142,-1448.5328194009746,-1084.116606140532,-1443.9121480342708,-1224.5700607298909,-1527.7471484209705,-1566.8663332120832,-1087.9934974777675,-1154.7932731398964,-1205.0066793987478,-1569.3186182414045,-1233.300209750116,-1188.9833150748407,-1517.469212858704,-1594.0713689102581,-1253.25580843872,-1450.9965445207822,-1215.4364696340192,-1081.994019327477,-1249.8639431327383,-1373.0116197041168,-1256.439052463267,-1156.9974938577607,-1119.1042505920973,-1220.5987110071294,-1530.1063005959031,-1592.6067586800164,-1105.842025707916,-1217.8027127188147,-1345.4588235850504,-1467.4678878780267,-1499.559146506633,-1584.4433343778312,-1546.080007280355,-1441.4243413102167,-1099.075889884589,-1537.9877574792556,-1398.1647338897894,-1197.3606032261102,-1498.087807040217,-1476.031931892284,-1227.1015082604276,-1591.7785035814666,-1360.620641516807,-1340.527106782087,-1634.7330909199477,-1256.4986249990857,-1205.5649154208083,-2201.800176573896,-2038.338934712111,-1616.380078955663,-1495.2124477659243,-1646.332346314837,-2128.879921609047,-825.8536556595907,-1601.7810786729372,-1235.12401260873,-1419.3759096968276,-1157.9377809045397,-1393.46991018747,-1408.4057023231571,-1412.7078094519325,-1119.6657891467385,-1499.013241518998,-1498.3821257237641,-1169.7815645967387,-1331.2418562263942,-1432.7386434162206,-1671.4681000762982,-1510.547255354735,-1101.462360711996,-1136.293899453301,-1521.2181107481692,-1391.5398001521962,-1251.7416747178088,-1494.8580474618914,-1247.6724373257787,-1498.150842885344,-1094.6642837970132,-1510.2786519323377,-1137.4224435948638,-1622.9232473876798,-1427.581264162728,-1346.425301652455,-1077.6434910833373,-1195.4280834073286,-1115.1581581025869,-1423.7975918380482,-1492.5428871372412,-1218.6568211001884,-1252.6976152278046,-1466.1266249257988,-1217.8223054344603,-1367.111520393566,-1251.9212977288757,-1580.0901452806002,-1240.1318578302917,-1359.1093578552607,-1256.2860662173641,-1409.4621398824197,-1762.213575608908,-1477.4131559141108,-1617.4396109223867,-1271.0578267832982,-1607.6051240295901,-1465.6315487006786,-1233.8066663370373,-1354.8270862712504,-1438.5805154615346,-1216.3374911644805,-1138.1837352772743,-1115.28465343144,-1466.0641369253851,-1411.545763383686,-1492.2837799636015,-1189.2905957888167,-1526.9641703491345,-1159.2649794987228,-1493.6383226187634,-1505.3047180210056,-1207.6392286242967,-1186.737453925295,-1369.017755943687,-1109.1733569931039,-1251.28482857073,-1154.4863654709056,-1426.0005985555206,-1318.6223024218702,-1492.326667624422,-1231.8853456728748,-1486.3209820040818,-1254.367420854193,-1162.24315702623,-1571.1122794420878,-1111.1554557885424,-1287.2990945257523,-1638.7832968324874,-1287.701120934927,-1325.9086469170336,-1412.6374408442903,-1549.074168095507,-1493.8078255106238,-1373.1221552615077,-1435.2669998272581,-1165.0410308974251,-1365.4608342199274,-1350.2218444804412,-1416.8179451601313,-1394.8911052208964,-1244.1605038181401,-1364.2227524010686,-1164.83760500639,-1373.1977535474398,-1039.5295139441982,-1169.9822185791652,-1353.3369027408153,-1252.1331633198504,-1269.1818626977295,-1077.2515985877424,-1562.7346560556302,-1418.2542002174282,-1262.0698636941092,-1522.1290590333645,-1353.3339809926408,-1260.4357904613632,-1706.6753171684613,-1467.778968855344,-1211.5725440240915,-1531.0364338688473,-1250.3243366527806,-1292.3205828358173,-1297.719886719497,-1317.766097371941,-1450.600173560274,-1190.888056334072,-1411.9941342960321,-1157.3387316126687,-1218.0352133735973,-1445.939887738884,-1190.33160765904,-1262.672934418024,-1146.4285207388205,-1234.7597947809918,-1254.62582716084,-1314.7987209306038,-1382.0188471026026,-1495.2487301184397,-1471.4459548417465,-1412.5699575854994,-1201.1505483704382,-1298.093301715865,-1186.4522553322167,-1586.3284674750134,-1277.1172106888507,-1593.316884539482,-1262.3398638019764,-1343.668567403098,-1348.3151479120854,-1406.5290911685254,-1137.4463063165476,-1341.2477108019261,-1218.9047513080054,-1621.881229099294,-1527.06356391432,-1105.6863188784293,-1417.8641998756143,-1534.2387439294,-1421.3144724894207,-1222.6771558779717,-1445.8873409233236,-1529.196117102922,-1514.45763396835,-1377.7547988223346,-1504.9581831686326,-1559.5917989070342,-1239.3319922464254,-1628.0061018766758,-1435.0913494764832,-1346.3758100517139,-1284.7740457205134,-1142.1901061278006,-1175.637178988555,-1563.198927683071,-1484.161606154319,-1249.3446890694424,-1202.6988277289915,-1278.327778224969,-1398.8408098265716,-1558.0013212858723,-1404.4362628240476,-1405.0075171832173,-1122.7492153912735,-1322.6528702053938,-1232.0027216210408,-1110.3260949970388,-1191.3494074665282,-1230.7595406279534,-1572.9124955101454,-1254.3846687524388,-1471.6683192637129,-1295.980675442706,-1311.0506638212098,-1240.3151942800735,-1267.17338594515,-1135.3933636869967,-1217.2765379107914,-1358.6984981942994,-1308.8630970005163,-1271.7999760490766,-1235.414148387561,-1278.9253099040873,-1199.29815092634,-1375.4138433838468,-1286.9535388739105,-1418.0682488038528,-1449.2536562743605,-1151.0215761021238,-1215.118008579067,-1476.6155468357217,-1227.526747357803,-1263.8481539496338,-1555.4868029699935,-1264.6392727376672,-1293.7726759138054,-1241.7366907954988,-1283.919955763587,-1364.7824060336022,-1228.1106581738459,-1427.431063059297,-1405.8003998092165,-1246.086112854377,-1449.9614371473417,-1485.30047080571,-1525.9422675711876,-1275.9889019123054,-1459.7868045639996,-1451.8784732523916,-1102.817018282157,-1219.1999979720001,-1620.3517861960795,-1245.3162429490974,-1305.4336637777255,-1373.2514870770367,-1244.8417629329965,-1493.1191420749685,-1129.1615959761348,-1469.0386772694574,-1446.2134635132616,-1343.5894816282243,-1148.2210337724007,-1456.0039981249433,-1263.513133292903,-1308.4031769213482,-1185.3390056537323,-1605.722822047965,-1198.0108343755628,-1351.0905656441053,-1190.0229251307153,-1571.6935035775261,-1227.2581571750557,-1427.9920230572961,-1146.549119378333,-1300.2464833841955,-1297.933724739422,-1505.8717314568935,-1348.3636794387787,-1268.3319701420444,-1422.5890566007615,-1301.0975875126167,-1275.890949815641,-1232.0820512135435,-1248.2972799113707,-1557.482282621065,-1263.7011132906393,-1280.9055983426522,-1293.9825109150352,-1537.2720838881883,-1243.6980342662166,-1210.7032660659388,-1242.0798098654784,-1083.8819946484643,-1310.723542778579,-1305.3876056861789,-1530.972630467991,-1283.7295186516824,-1380.8040739710289,-1513.5353276907963,-1175.3722131633713,-1459.7489133201282,-1458.0394106890883,-1597.4397725373356,-1410.5520271148787,-1324.5002113356866,-1183.7294326777499,-1225.1748967699523,-1370.1958712196338,-1443.1802282744209,-1145.8103153618754,-1284.942507463414,-1518.7607501790467,-1307.0886876834502,-1369.40830745501,-1214.9118606522252,-1276.6582087764816,-1293.6521156218632,-1415.4081022511255,-1508.5302200376864,-1116.142015076634,-1188.5358808441604,-1513.5260062360353,-1529.018538533564,-1371.5115041909482,-1343.7214821649102,-1584.8313929890812,-1446.6735324495285,-1335.2583912120297,-1275.0861579599264,-1259.5637588211762,-1207.6655444428068,-1316.451159680633,-1273.9348847226802,-1476.6401685093388,-1390.5786118641179,-1519.142373714715,-1255.3858042006889,-1243.8709121103257,-1530.7644092164603,-1529.7301269493844,-1451.6502532526501,-1363.1886770607537,-1600.660927465195,-1368.0634481387133,-1100.3715087539154,-1313.1094911834166,-1494.3880776734054,-1383.2015072343777,-1513.2769490547944,-1209.3926151199807,-1585.8258942018538,-1390.9873452968816,-1466.4738394200845,-1284.1614459320542,-1140.1219438966934,-1275.591637816811,-1319.4121241306402,-1812.7929153029158,-1509.7543557825281,-1287.972542052986,-1493.2381910117222,-1243.6740374288488,-1320.9740184473765,-1422.2455738265346,-1405.9918132889768,-1544.4662523679633,-1370.6368840698667,-1527.3338397140278,-1666.788454945558,-1392.835207336183,-1183.121035103034,-1159.5420861112461,-1436.8046040540814,-1497.1853592094099,-1352.2749154340956,-1202.8301764336293,-1243.4128075854155,-1295.3670869867033,-1291.8898450876586,-1158.338980458016,-1495.5262040026078,-1288.3344909238938,-1287.997191556058,-1478.9290047501859,-1500.748540686622,-1305.1782291460115,-1527.2769883750084,-1304.2109749501126,-1260.3193002813916,-1413.0359902666885,-1200.4094870486776,-1308.9112683013934,-1360.237020840911,-1473.2613615110818,-1276.4248959988915,-1466.0525584919922,-1326.8821094443294,-1303.1713482245482,-1181.8705920450798,-1326.7694601514222,-1250.190797919705,-1385.1044926760817,-1148.7784339467798,-1387.5827656781553,-1310.1143488905257,-1245.842750994218,-1249.6324434342569,-1227.3783032762628,-1290.6658991846477,-1373.4910190645282,-1631.1613181029777,-1395.6583597985057,-1237.0148725767424,-1312.9168001312437,-1196.405760303703,-1623.7236324284577,-1233.1729192815073,-1432.5589597210073,-1333.4009379730041,-1497.3312685330238,-1503.8717270371965,-1270.4372696844785,-1412.097484002072,-1256.2753988343281,-1307.987458192333,-1245.184499272268,-1221.96813468135,-1383.457729139961,-1553.3378551456176,-1424.0349060603064,-1246.1924285343125,-1209.9661562174563,-1294.0375205565406,-1481.4286809764417,-1480.2873328588742,-1322.9678064382083,-1371.1671182511907,-1350.1569744743304,-1348.2775235905278,-1584.7800518804095,-1560.0812817204212,-1244.258194964551,-1549.8756989482406,-1586.7904929155177,-1454.9459158164707,-1258.6585316167263,-1361.8413126388782,-1517.4275043032408,-1481.9775257735562,-1362.9883290610146,-1260.2584678127805,-1422.6720611212966,-1397.5570776159934,-1638.7807619179575,-1563.2245325195602,-1272.362414055594,-1272.3886091846398,-1292.2629446563346,-1537.0343200623877,-1189.9819345096382,-1452.5021280430362,-1490.2716848895107,-1318.4365932683343,-1325.920490077993,-1266.1656839309915,-1307.4941866989072,-1266.5483356936118,-1455.8765024326779,-1365.2196398219876,-1164.4376901146522,-1423.8263627358176,-1216.4044392921633,-1234.9223628860038,-1264.5995244209757,-1258.4738054273125,-1527.1981198319907,-1287.109644149165,-1384.0785859762298,-1188.442263272425,-1147.89135744777,-1526.678701398554,-1529.4909570262257,-1470.0759612296831,-1197.263688035249,-1293.8324375643506,-1309.0794356578995,-1377.3321966156702,-1274.2547626967748,-1279.7027201325263,-1336.2869479083017,-1318.55280195149,-1316.6555435928299,-1291.2001671819196,-1260.19859559203,-1184.8390779807494,-1426.1868982602202,-1503.643581295003,-1279.5565661238545,-1596.5548071303203,-1303.0140253556772,-1248.8276651936771,-1418.1740686838134,-1458.833502275426,-1263.5583063035936,-1479.9798875768188,-1483.0882150474654,-1469.5026363206316,-1251.2964517091464,-1483.4350747734554,-1403.777291037246,-1497.9518363850068,-1299.122112119557,-1041.2558408522411,-1130.6938308249294,-1318.4837788644213,-1446.809295423585,-1511.616503824907,-1308.1969432887702,-1417.2593062847134,-1365.2067100750849,-1309.2761310997325,-1504.1625738058788,-1308.1667061168898,-1544.8058569882135,-1681.370465510579,-1420.8791486026958,-1314.123906334702,-1195.9431019006179,-1480.2626738403317,-1460.6585099124222,-1241.3149089078843,-1501.948679160898,-1598.839109820875,-1396.8007858498606,-1260.1159949566809,-1449.5636108280034,-1253.9392872860928,-1409.2350027932696,-1404.7365890826118,-1312.8849247064281,-1297.869654270608,-1664.251719059931,-1283.6627767648763,-1269.5092752654166,-1154.8776751638156,-1505.3371442149262,-1514.4864124125645,-1292.9201135909304,-1262.5301498292517,-1243.2975827790426,-1423.1289281829631,-1182.7027510135736,-1356.0007902821953,-1240.355931632436,-1417.6803032315145,-1180.1573132834449,-1223.369825480668,-1307.6009382946495,-1588.6151557088097,-1396.2323928550322,-1274.7573409294869,-1315.4507319692048,-1392.8616062853532,-1282.8791616985134,-1342.3939909495878,-1407.7475242530281,-1324.2575981599707,-1131.3716330701213,-1295.6612931434067,-1346.4513909700331,-1191.0763511896675,-1373.1455697896595,-1351.8975863344435,-1334.5666221007514,-1254.0986411426625,-1304.547688430992,-1387.242667149992,-1183.9776327578509,-1406.2727197680927,-1313.5157977747492,-1447.2666599984584,-1113.8822943993139,-1298.1374738487295,-1297.9271477473922,-1499.5622805769074,-1438.041553821373,-1415.101377297649,-1322.9077290642078,-1270.5749983145558,-1283.0751319194364,-1311.104455875124,-1260.0457447995607,-1199.6052683939745,-1226.1187579593197,-1459.2139106042762,-1288.0438924744126,-1544.8224313263534,-1422.6231489295844,-1525.6314916704398,-1454.5138930108146,-1356.0161720372234,-1499.1364615714238,-1409.6980015522072,-1456.4787673130998,-1300.8093944478715,-1307.1087018495843,-1275.8618584689912,-1243.6470714014924,-1255.7415031065755,-1665.7598852762453,-1135.423947958552,-1276.3140250539816,-1282.150931412018,-1501.549059657327,-1260.4004016046483,-1167.2896916776372,-1417.6563102881014,-1332.0100446839167,-1206.689009150082,-1483.801221474737,-1394.8200794857244,-1290.6491987236618,-1349.9233798224948,-1346.8950586976928,-1303.4624912942681,-1256.2923790532025,-1335.563757254427,-1207.265693772293,-1289.294361550013,-1297.993048162438,-1321.545363166137,-1317.7997489341353,-1382.2651820223834,-1369.7467016915996,-1318.0040815670368,-1265.8759058580488,-1186.2598181757207,-1081.8366021277907,-1600.3997829733048,-1248.3394182346779,-1628.9031479469274,-1377.1586081645437,-1340.0627302740431,-1273.6494181869443,-1374.5649191788905,-1440.0305186294158,-1569.0403384767142,-1412.680413795079,-1304.7695123204035,-1341.0708574982662,-1493.115920707375,-1522.09071785132,-1445.838209607669,-1243.7515714932201,-1348.6248657056103,-1339.9476799016375,-1476.1470829207456,-1517.5747363098317,-1416.7353077076696,-1442.1102544529253,-1569.4509664813888,-1336.7167656549186,-1418.6217442373022,-1489.9991041495246,-1350.8190027359594,-1279.5566303089554,-1424.765701201433,-1438.1132911526147,-1457.235700035186,-1492.853534778258,-1312.7919997736494,-1303.8295186998587,-1407.1831642127233,-1281.135707207066,-1446.8473413650438,-1481.3181332672193,-1334.3421799412547,-1500.5143229281243,-1302.3459382073704,-1253.3950499914715,-1163.180303120986,-1355.4570819205248,-1430.8031611406286,-1306.0273100297943,-1276.025279782023,-1460.6312620371305,-1279.4177886838445,-1289.3762011632018,-1358.1017067753644,-1281.5644761389965,-1270.4208124898212,-1272.195323261674,-1341.359473230472,-1446.173028868074,-1328.2621541630815,-1459.5151454352838,-1371.6128174724238,-1310.1447492871532,-1610.6601286103391,-1282.303932802528,-1425.95074267727,-1380.3784609110514,-1339.104859886328,-1589.7035266048829,-1417.1111658961286,-1338.988821772831,-1618.4551214999165,-1313.586345694675,-1451.168929133637,-1357.695862982061,-1288.9557293927226,-1383.5118468534886,-1440.3870897143574,-1321.1831822891268,-1286.5758099172037,-1418.7869472137106,-1292.841870051362,-1273.1547222355173,-1416.5075267712582,-1360.5149738432344,-1554.5704462666151,-1614.5228026510017,-1437.2972237710937,-1270.6801714511125,-1310.2030848918573,-1366.8742423553488,-1358.660712178152,-1269.024351544143,-1308.4216410582724,-1315.3774372449125,-1549.9981169629164,-1333.977269809469,-1323.523576427364,-1606.1218514208815,-1311.0537203811375,-1424.8357446623718,-1335.0330611145366,-1316.063398604292,-1229.0913599635614,-1330.0011521657543,-1322.9549239868254,-1275.4942920703975,-1404.8971600432876,-1410.933545191385,-1288.3073699353347,-1282.2553799738093,-1333.3730635441957,-1926.235963291151,-1253.2098415597889,-1332.306089480513,-1502.660349051919,-1460.017386345229,-1425.6394867996091,-1348.8610705463564,-1279.7559558284654,-1359.6138157602882,-1270.6038244295362,-1305.5444557233004,-1521.01327325125,-1473.971173309022,-1110.1193567426737,-1517.4403311379492,-1314.2463793664438,-1393.6196406573172,-1315.2174680866965,-1282.921795170377,-1308.861427848467,-1321.1428856346754,-1333.0310914398713,-1335.286941561773,-1639.020345349543,-1395.8451533296698,-1213.748953454016,-1432.9249655954895,-1543.651436753408,-1280.3117945000251,-1346.9331794101402,-1358.1277174490547,-1347.714050596508,-1379.2338463373624,-1374.5287029094395,-1309.562202436138,-1310.7028976730078,-1365.388345619601,-1312.0693125569583,-1285.094339075589,-1316.8971103919148,-1470.7022043578907,-1317.3292099897014,-1605.0446139420355,-1296.1119739024136,-1328.1785753785462,-1386.3776933236722,-1308.2577406549128,-1415.9792233043254,-1315.2272783331587,-1264.5083174423792,-1314.30147711606,-1192.1951150392863,-1625.457613091622,-1335.7564108841689,-1394.307748486919,-1366.9822824402115,-1578.0034668395099,-1296.4051718873657,-1373.3937260420084,-1360.6410572616744,-1543.2923968146997,-1464.4527865006191,-1190.514258501498,-1239.897243834372,-1483.1263746632158,-1571.378529266736,-1363.4605774936854,-1442.609619082412,-1199.5317104917985,-1278.96575929739,-1523.076278456888,-1407.2176647877884,-1276.2143429904906,-1376.812968514315,-1461.9533379124712,-1493.622531402801,-1305.1957019188446,-1373.3321921509914,-1293.5627215297768,-1386.3705726741887,-1379.6422017167872,-1307.8033459206904,-1387.4979711414994,-1482.4943330928293,-1351.3004072516717,-1285.3751628951782,-1605.7753807727431,-1289.470919025193,-1300.9310652795298,-1159.7482692595556,-1424.6792327400842,-1732.6390126772696,-1301.6848422890364,-1326.9416696957917,-1326.3824177201268,-1451.3563001017706,-1346.3860883357374,-1312.0131926291626,-1323.6195956183726,-1261.4368103021106,-1581.1390651245422,-1322.0375707571154,-1315.9583179672316,-1361.604296913765,-1390.0681719175689,-1306.7788435612993,-1354.9952901347006,-1399.3420261900505,-1300.6171933567168,-1432.1517603787527,-1205.933733401564,-1288.6835028533037,-1130.727660403892,-1332.0291032662037,-1288.6080715211056,-1327.7541612303778,-1266.8501862236515,-1226.3797568209313,-1140.3044424234333,-1336.5039054433971,-1394.8497983011796,-1192.7019428562198,-1468.1112497737993,-1473.9358594424716,-1420.9907362355289,-1473.6672943135934,-1160.1334491669722,-1441.6394583781866,-1289.9183404753867,-1355.7363017982482,-1296.2985122092334,-1392.6454520564678,-1505.8475289322262,-1259.1183744432208,-1166.1051646697158,-1251.980082786032,-1274.2103320265187,-1294.313295346531,-1268.340930295178,-1388.329867720035,-1307.282923177296,-1298.8752640834805,-1401.1094210146025,-1165.689059226035,-1288.6080814176264,-1575.6518159022578,-1303.0827206524639,-1382.8665614546,-1302.0915238708578,-1336.7639695798205,-1335.24047542317,-1353.8193552268103,-1310.8591460244124,-1394.6867206748555,-1488.2939113607829,-1366.6934432078338,-1499.8095090708161,-1298.861661511755,-1274.5124969621625,-1278.2168559318945,-1332.73623819116,-1361.5548758274358,-1400.0442272341143,-1316.9362214533649,-1320.199985744509,-1227.6862783792642,-1140.0891944083264,-1323.5875212907276,-1340.045932229624,-1299.0401129292313,-1269.7022386821689,-1507.1024149498182,-1348.4956458794318,-1576.6474660152749,-1296.0757603413456,-1324.6789164087204,-1401.935308762726,-1371.5390813026124,-1485.516145799179,-1208.5110297630897,-1568.2694392196854,-1156.796978153104,-1326.424617146098,-1313.6709881411273,-1323.448815439612,-1401.2177579705174,-1332.957399119344,-1493.8634107599587,-1394.8456509596856,-1602.3082056018527,-1244.758772408918,-1555.6345587895264,-1345.2619886292548,-1491.377924181397,-1305.148595340822,-1224.4399752362804,-1499.762653674853,-1292.0596889721162,-1151.5418856917236,-1395.5169967446857,-1480.4305898974765,-1337.962644028497,-1334.6588170688226,-1506.1332601021625,-1415.462084317573,-1346.4660229198983,-1311.6512016353906,-1453.471752271169,-1331.3352826256591,-1355.7044474003271,-1393.1233389208355,-1238.737421613804,-1292.327274749033,-1545.6737189945586,-1473.4125010430296,-1327.7027856226127,-1377.6810943300727,-1313.1034344319296,-1375.2290353685846,-1467.2248609440655,-1344.2020627757572,-1405.7042559886095,-1478.3420802702797,-1206.3948764591337,-1464.158940982078,-1357.9396056398768,-1175.653648349073,-1426.1325293264933,-1359.4518023529986,-1478.775144339615,-1287.3958369666707,-1267.3925276177176,-1598.6597661392798,-1440.286083113626,-1408.0835000759919,-1375.8137649003884,-1549.7591590595464,-1507.222282068062,-1502.2045511187966,-1421.5913863707792,-1478.0274430166073,-1243.8508016518076,-1353.9586889201228,-1304.6738915786,-1547.2484971147774,-1367.5541189690173,-1282.5526614914008,-1486.940068404005,-1279.3205533745493,-1311.581056809696,-1286.7321180252923,-1316.778317329469,-1411.0347736240212,-1319.787938688689,-1376.5503991889038,-1382.6286239986514,-1190.7158673564597,-1388.571845872767,-1414.0772770998574,-1355.4084174909133,-1564.6523598074516,-1550.7179517347286,-1516.9980104512208,-1490.9279589629093,-1432.1545667112828,-1286.9440950729147,-1221.8866605920862,-1285.2435903130124,-1285.380707579587,-1563.4731032294476,-1318.0970979275605,-1341.5405080630244,-1390.0412863535394,-1460.091965993682,-1510.445592334736,-1310.3052225038145,-1490.4146927971417,-1422.2457545548782,-1322.9925906056585,-1524.0936880284162,-1489.8738544700636,-1405.1414957921158,-1369.4928777776831,-1481.1075778340332,-1291.973135234924,-1492.966736302978,-1338.3073853712958,-1186.5792640195991,-1377.4999477082313,-1173.3725166737702,-1298.4061437983305,-1324.2534648509725,-1351.209704434136,-1238.5679891126242,-1529.6116671255763,-1723.2959938925708,-1547.5601686603536,-1465.6855993088934,-1348.1235774782228,-1262.7604520569619,-1493.812965791708,-1292.2196028133553,-1384.5993882054581,-1289.156337387182,-1283.5520869935162,-1527.7138943162854,-1473.9907132954052,-1359.4683573657262,-1227.095850306932,-1219.7994955120098,-1271.8888476829313,-1270.1335494516431,-1242.728795887725,-1340.3216707060478,-1351.4633002030955,-1366.0797402675382,-1073.904545017259,-1573.4551445016054,-1365.857378264364,-1354.8867807719573,-1193.9225166739961,-1222.1905089731479,-1287.4656052062398,-1266.7290067645827,-1592.5845127001967,-1401.458697829708,-1500.9088963615093,-1305.2984038895468,-1304.6381326386288,-1315.6278592073065,-1540.9421622733526,-1332.275987813555,-1330.6945849333658,-1282.3849935260957,-1515.5055677973828,-1340.8676969250496,-1321.0110262473763,-1279.2933901446804,-1204.7519665371137,-1256.5510913157566,-1450.4760806860838,-1382.4476093740884,-1318.5503945080925,-1572.1498646405992,-1408.501316991761,-1341.924948770825,-1541.3778671358293,-1447.6555458405985,-1562.535468229397,-1394.7312171789436,-1286.5682057285528,-1360.5743050391366,-1401.5380049605133,-1287.4476454328076,-1339.9109989121198,-1328.4790064009721,-1302.1999620781908,-1316.1387721157203,-1304.2554053802826,-1325.5328975557147,-1322.3427862137387,-1472.2650473391898,-1350.065839490144,-1415.3300651666736,-1462.277653063384,-1271.2714913708576,-1356.1860327666577,-1209.7693607256783,-1361.9524382511734,-1410.913101105191,-1348.0451761543459,-1328.7431863698043,-1334.1264123820788,-1270.378996297974,-946.4888273892642,-1305.433893813585,-1503.9345261214908,-1426.1169196402257,-1292.0039523352837,-1324.2519280684062,-1358.8162098747832,-1336.269662407847,-1326.8649335761481,-1307.227560134501,-1385.06849653314,-1352.8324541886866,-1326.106578109413,-1458.0457632829155,-1347.1413012035746,-1516.3584793825698,-1350.416873876114,-1275.284407954939,-1509.6335437847654,-1327.6634084077414,-1388.098804980284,-1364.7177293820662,-1390.7274375543268,-1287.1055565189536,-1597.708815141163,-1209.50112804624,-1282.8555866955837,-1589.1311600766194,-1337.3388216622375,-1557.8848546856127,-1347.0161226281023,-1329.3332876836596,-1175.1830859288889,-1288.4705657300617,-1320.0565062531457,-1258.1407809768418,-1353.1785879579395,-1395.720761483787,-1322.1639253959863,-1329.0682389949757,-1341.0395938447898,-1257.6217521648248,-1319.6532121456364,-1340.233777001856,-1229.0155989052926,-1616.3431105640693,-1381.3328325806633,-1314.2408251563304,-1313.5770553341536,-1456.868792610916,-1463.9572531784725,-1348.0434308744304,-1313.9743684343462,-1455.97867396999,-1306.7599520834492,-1349.1002686449283,-1387.177479902283,-1296.440610655208,-1330.1527376853473,-1464.7149679255006,-1270.3815318175689,-1298.4736478977084,-1372.1664324741228,-1341.8594655377478,-1360.5961871374166,-1235.2773022471947,-1344.0713388725842,-1542.672979392532,-1459.9132352820386,-1588.6326001919542,-1333.029552931638,-1193.9610946656744,-1520.4085908210623,-1334.7115114614587,-1143.7120074639865,-1359.8930415266389,-1304.010309511999,-1344.9707917039664,-1203.6284813125253,-1375.965015192059,-1326.6513930625306,-1379.599368389492,-1320.6913041834912,-1189.0087203843652,-1444.9358210198461,-1139.1470028801389,-1281.9100543089878,-1499.9235943504782,-1523.3918473549734,-1319.335021826359,-1602.0153033556578,-1276.33764539062,-1437.947436583761,-1347.5036132844948,-1404.0287532881237,-1321.3483537479274,-1330.8346733338865,-1501.4234751872814,-1327.2890164790854,-1371.129458022164,-1398.7789149032399,-1371.9937500697108,-1403.8299186629902,-1342.4571500001982,-1474.8800641863497,-1374.4591717959422,-1452.9710569556844,-1272.628007578072,-1351.9920733853305,-1484.9429007479173,-1337.7832610969276,-1330.0891026906181,-1339.0263979488413,-1346.5458052835656,-1217.3833761559745,-1352.9176006225612,-1342.5018035733551,-1269.4092258575056,-1249.5887840773917,-1322.8734042464603,-1328.4857742327742,-1393.9503468495238,-1219.0519209658335,-1402.2611807041487,-1439.0936651939114,-1419.4828214524923,-1331.097009937408,-1286.9580588535246,-1352.7094149621641,-1226.9793189054883,-1212.0649395276616,-1418.9360432492842,-1476.0803100193173,-1340.0184667799522,-1390.4945557269025,-1488.4202440812987,-1276.9368464048887,-1395.666768248101,-1078.2503613526803,-1597.9127605026351,-1540.9563333651774,-1608.5991132019715,-1271.5499201572763,-1498.294721775328,-1315.3617594339287,-1434.1351108688611,-1388.1787570294227,-1669.703915941042,-1412.878770045101,-1324.9837521610816,-1451.293571653332,-1421.3108142957267,-1168.2947510449826,-1580.1497887390742,-1178.4192246840876,-1298.550471548919,-1256.079458253198,-1548.6109096405405,-1303.866895930084,-1362.5467721683747,-1373.3146213261346,-1201.2494897628796,-1284.3447357303469,-1197.1940235498503,-1337.586773775762,-1280.2454393840994,-1147.323323387118,-1341.031669381765,-1420.61065474965,-1506.980928179789,-1186.1957905300765,-1148.7982430714542,-1180.9311657701915,-1134.6635010344294,-1230.2115107114503,-1470.0200323769375,-1457.087903644151,-1413.5616870065155,-1316.537476754461,-1360.5428016691635,-1571.7455822973268,-1291.0547518501967,-1349.495042232322,-1443.183119117958,-1266.117971148199,-1216.2720727428218,-1200.5267171704593,-1177.3913998055916,-1329.3011365655586,-1363.7272194523043,-1197.545202678692,-1277.0279729250424,-1208.5980363710194,-1341.3692452404841,-1174.1208539065146,-1326.873190774318,-1321.4186304783761,-1261.8988699114823,-1329.4537491457884,-1179.0878078595845,-1332.0594792083998,-1343.67633570276,-1311.573150091204,-1362.180406699587,-1402.4221132138707,-1389.2142775281006,-1291.842433135323,-1655.8095029423453,-1592.3336453730692,-1168.3023016968548,-1341.199527797376,-1383.148344506415,-1401.1778393844104,-1352.8685249311177,-1202.8723831167251,-1479.7340891907538,-1454.198980678232,-1362.407433874527,-1219.004804308681,-1164.7989636150812,-1487.6697190010484,-1290.4396217473825,-1406.3309878684324,-1212.4593325694332,-1223.4179764218784,-1217.5916927315554,-1407.6768640808043,-1350.1101815496188,-1376.8927116998177,-1440.0707309365166,-1305.8675616578114,-1238.7373488878477,-1219.1424729483701,-1440.7151865196647,-1423.8117898865205,-1350.4491096323125,-1151.8234475703564,-1294.4401874381904,-1297.4577384263257,-1650.547618558002,-1449.6238981232239,-1327.4438911550726,-1426.2174444494538,-1357.4732661471553,-1315.5365129947832,-1349.6330616157818,-1203.1216859120211,-1256.423565974718,-1421.4910870506606,-1296.243677824265
1,348.3870791005084,348.38703127301915,348.38705017925145,349.3858345587356,335.3722374514648,386.4271344715856,354.3931095151988,321.36745193900083,343.3796840852067,348.38679914243664,348.38703548322013,348.3870502170734,349.3876165933786,390.4336540449831,340.37729501733236,385.4280110515213,328.3640928748441,332.3689717451177,360.4001544727048,336.3735391348556,380.42253663234357,337.3745291562321,321.36373107046757,317.3538413469649,323.35980841226814,400.4447197436741,365.40507873748913,340.37713471120435,374.4158522170924,343.3793794809219,322.37628441161667,381.4228194639647,348.3868231050039,366.40625785539714,385.42814557576327,380.42265472601633,346.38422672855,386.42884127483075,363.4035455350175,322.3581946193943,345.382673579162,352.39128901466916,364.404603572428,391.43461604646575,322.361646078518,385.4278993309654,346.3848040667799,323.36246046201137,388.43130270811787,380.42248460875516,376.41775121925747,326.3622531538241,384.4268998854173,366.4059858289083,353.3926133152181,370.411038977899,339.37685669347513,367.40750301913215,331.3678898750588,381.4236194119043,322.3586900975624,331.3679671775794,322.35873592940726,367.4077315863921,345.3835963387763,391.43298251274854,322.35904477847436,390.43352881125156,321.35727295701395,391.43484431704684,361.39796515627063,374.41569105283247,350.3891784760761,393.4368706290459,364.39540848747396,386.42899886358003,329.36569460646814,346.3847110846871,349.3881870062743,389.43236895203654,375.41546668360144,340.377922107168,333.3699460462228,347.385816246057,345.38342083858436,322.3587753184528,359.39915720371505,325.36116759223586,355.3944944479846,391.4346492396887,393.43678196126945,322.35938092230293,347.38563781441906,382.42460536824825,382.4246335630692,322.36331650944896,387.43031365630657,335.37226904558196,320.3728394331028,368.4084239113443,350.38913692809405,341.3761760969025,353.3922161047476,341.37871325811227,383.42570377135775,321.35733978133516,338.37574601670366,350.38893810478095,322.3599497185308,354.3885965861696,360.40002853733796,323.35776230140357,356.3953759294124,353.3926243753063,376.417451269689,333.3699376510806,355.39419443570324,377.4193046598676,369.4097496236265,346.3843341166242,362.4021938579035,328.3642215790918,324.3603354847524,318.3539916899007,373.36483519133526,371.41243097889964,344.3822477144844,323.3646304277948,347.3859394236222,344.37324919195044,374.41573617870233,360.3985244035514,389.4317543753116,388.431333707803,321.3577982980906,377.41867371533397,353.3923743166036,370.41131906062634,322.35859820711124,389.43245576116664,323.32198198300824,342.37993669569045,387.4302131710121,322.35935765566103,323.34049982544906,367.4066588998207,333.36965839255976,320.35913626827147,321.3586168416315,330.3665486230037,348.3866520045544,384.42687050517895,388.4313081112027,347.3705659965929,321.3580698388765,322.3780063672693,382.42452990050083,369.4102326753291,323.3616218427413,352.38521216331696,365.4059465184259,387.43024949552847,321.3605207673528,350.3888618199823,379.4213034508798,386.42917770912015,367.4072741440117,371.4122287333556,379.42135127713755,350.38876866790145,386.41877725471716,351.3900630176907,375.41634298278825,365.4056479493958,388.43118599372184,358.39795389057343,392.4353827747293,330.3667558085516,354.39346465843437,329.36539283448843,339.3768901156808,321.3587172117291,330.3667126797946,392.4359631999995,354.39371707701275,349.3879445251864,338.3757150145632,320.358008860215,381.4235182028775,387.4291355120761,382.4246503267341,389.43240915563024,354.3936218688572,390.43354872709693,322.3588970752583,353.39238872314354,389.4313093088112,383.42599645714347,320.3566654572093,370.41143102466225,351.39036318967834,384.42688616275393,322.358678167103,358.3977503769262,390.4334089363637,383.42393496499136,387.4302458025774,322.35821035155305,321.3623591402827,348.38500864344,329.3656480257052,381.4223628388246,380.4196831118127,360.4001068437496,372.41286050498576,389.4326616589825,325.3612923302301,322.358262459096,362.4021633781618,321.35726200832096,365.40443042037333,365.40213107105615,360.39993907821633,389.426010654957,389.43238768708204,370.4108514850969,332.36878492972573,379.42133918477145,322.3582027590275,319.35612351273573,377.41842969884976,383.425807605473,361.4012863608833,385.4282075584382,387.43014802658956,384.4270725139838,386.4291417450599,322.3582463975094,371.4122575039985,332.36904536880076,356.39571748110495,378.4197442366372,384.4269128146411,344.3817122290444,385.42801477320893,380.4224029668873,363.4032766095763,367.40816835810637,353.39192344529334,349.38775021709165,322.3585287079513,332.36896822673606,381.42360601808906,349.387925579574,386.42899383702377,351.37971543528556,395.43925714793795,378.4201440942489,388.4315336576166,321.35906214379565,385.4280382331741,351.39028734788246,383.42565602406,375.4152025322585,365.405082968007,383.4257984945619,379.4212903258342,359.3990721005633,387.43026242119987,386.4186426586927,374.41568951104256,378.4198839553496,341.376048520151,388.43005213355315,387.4302429421491,362.4018663303237,350.3890659280918,358.3981660720138,387.4302142741994,388.4313348139641,359.398689903007,349.38725523915275,343.38065629923943,356.39568178786084,367.40810644963364,380.4214155507556,350.38917791582463,382.4231420086532,365.40571487099345,365.40102152497207,384.42690191069954,382.42476873167243,345.3812855744626,371.41010254379603,384.42645020167197,358.3969702022656,347.38581232859957,364.4043126903506,370.411453986935,385.4278470983398,321.3571798943071,320.3573499688736,346.3848466441133,366.40649643101784,388.43141118517997,377.41761259058694,375.41707178888015,383.42584198050156,384.427122889447,371.4122850349194,344.38080569791504,370.41070162926724,365.40535203583477,364.4043086220103,384.4265728670801,388.43135653088746,381.42213765438214,319.35769697363463,387.4302237559812,383.4257999117001,349.38811024515707,320.35784945968095,382.42458796164254,383.42569863849826,383.4257907196698,380.42246616482856,383.4257812055272,383.42579721102544,383.42575016633185,381.42356398077516,364.4045516654397,325.36147547104514,381.4203792831716,347.3858185205189,387.4302049387954,326.36206088738004,342.3156392343667,350.3878713027651,322.35841883490514,386.4289999925118,355.3945977538274,355.3948239550453,341.3789870422133,351.3904140242461,341.37908205972957,324.36040751139956,383.3988433499559,374.4128878264524,382.4246873260782,388.43154538120405,366.406179168243,361.4011852464234,384.4268232523669,382.4247556167824,353.3925933985098,339.35843445287514,386.4283388187925,381.4234040236414,322.3586673122153,388.4313421220868,343.38129216144887,359.3989488810501,320.3617516479947,386.4290745960225,368.4091428337638,350.30117078000023,386.4246248905041,335.3723642866743,379.42129396695964,356.39566380327136,382.4246607546092,379.4190022328059,382.42314648072045,386.4293233717132,360.39965396364886,351.39038322941934,384.42623258443064,398.4424947224249,349.38762007518517,355.36788562431906,386.429232768606,384.4269053610923,362.4023972430933,342.37985311420255,385.42797561906485,382.42475607386734,386.4292556902484,377.4191349956144,355.39438230963333,350.3892695564119,354.3932480573099,390.42979277874605,362.4024477698473,388.43139727484817,385.4279825809866,380.4173536701656,382.42468411141425,322.35819835610374,394.4380911479061,364.4040834689399,356.39564468897163,385.4280238647057,368.40658880617246,384.42669525558057,322.35830316326206,322.3583901604476,369.40834393247377,395.4392064357553,323.3610997430122,384.4268247848738,353.39262177504844,386.4289780873547,352.391220706478,354.3933966645089,387.43024402231185,323.3593470887806,319.3585497837463,382.42440881327155,352.3908762870876,380.4224293880317,379.42130796741753,376.4159424862704,369.409864356973,346.3848250862897,387.4302301169997,383.4257707462448,363.40351205405375,350.3301776737201,380.4209063215648,386.4270855803563,385.4275435261973,382.5613629301687,362.40155365068233,359.3988535608354,383.42598811418765,385.4278757163308,322.35917066748124,386.42885944531844,321.35877631447437,363.4031509497145,348.3868545087099,381.4235387257403,366.4064584614286,369.4104115464102,339.375357332108,384.4271063330714,367.4074460104659,384.42666702378597,381.42356601895847,339.37388788789224,384.42682495149927,379.42154197666264,389.4323432041856,387.4301438392989,387.43036688809025,355.39476133538057,344.3824110840771,347.3852900380162,366.40495487693806,368.4089596828877,385.42585714543014,386.42906355492397,380.4225022425652,349.38817861263834,384.4270819953721,385.4279867010689,383.4242980424958,322.3592725060056,344.3662272335566,383.4257676998104,384.42683514680607,391.4347590052285,322.358354460767,379.42074270182286,381.4235696625438,359.39924391044906,387.4300869843503,384.4269025081393,381.42361202286503,355.39483594172634,384.42708804546373,366.40606339215947,384.42237434828826,383.4257368801474,386.4250605035999,383.4256819786422,386.4289871258617,385.4279800672866,323.36429142994683,385.42793276532257,377.4192557182402,384.42644857904327,386.4291498992048,321.35709548400985,357.3967343648295,357.39697598751627,342.3792319775762,385.4279675389239,392.4358087582023,383.42552372874223,378.42009883953074,359.39895265358143,387.43026210413467,387.42922654734093,383.42565499802294,389.4326769037508,382.424825972635,384.42688473629136,388.4313698525216,349.387350776083,389.41914984156693,381.4235536098206,384.4268626072608,387.42979931805155,396.4400536616796,386.42898682045285,386.42901203749767,386.42903457079416,380.42245524891445,384.42711321629974,385.42794246313457,387.43031960011757,352.39131855911245,351.3903913860701,388.4310796441036,320.35622561716724,352.3912978921378,384.42692862664865,356.39562890451936,387.4302327133672,371.4104542916489,382.42467342631585,368.4085952553163,373.41360444655436,345.38330062580997,386.42879159744865,346.384465640283,382.4247158359876,346.3847508665452,384.4267091481569,383.4258032298031,353.3924411956252,324.35917283108625,384.4270679174581,382.4241477114758,384.4268503111259,348.38665518971544,360.39992104675497,380.42244442814723,388.4309874625997,345.38328799043785,324.3597289297789,385.427952037177,384.42689076029177,385.42781959372513,378.3883726682711,359.3985836630406,385.42781094331855,386.42914445527066,383.4256852660847,385.4282062080162,386.4291133120965,357.3967219280386,361.4012909680698,353.39142867199155,322.3600849772417,347.38587089313154,348.3858632755948,396.44033644555054,354.3451784163532,384.42681323376473,383.4258673885559,386.42904889091614,390.4333793672032,390.43335038676884,322.35828509369304,382.42452175210275,379.4212505670663,382.4244754995623,384.42691371824964,356.3958304656022,321.364522936815,337.37454537626905,385.4227759325435,377.4191541685683,387.43017594016544,383.4258500229709,323.3607597153232,395.43919698109465,361.40136472047254,382.42480999325124,380.4226567881469,391.43478788174866,382.42468045526067,402.4471183146041,384.4270798972651,366.404931826468,379.42151070436825,391.4334638022844,386.4279801210391,321.36052554950464,401.4459273529954,322.3585153637354,350.3884298934654,382.4246646273488,381.4215157082206,380.4064626868004,384.4269741253854,380.42245378476173,382.4244766849269,390.4335691463401,384.4268828852056,382.4246139023422,388.4314301308708,386.42901445146464,322.3613444328891,323.3600857854472,350.38925972936664,392.43579496444124,385.4280120697293,389.4323653083479,382.42486636892073,384.4269471480053,384.4269732305774,394.4381075535849,381.4234249506593,382.4245784823235,385.42802728462203,384.42685891418563,361.4013583729626,385.42800862363754,383.4256752092034,350.38763937085713,385.42798019348913,383.42597160720914,321.362920338302,357.3968435674788,386.42897549576765,384.42649302135897,385.4280070278245,391.4341907742923,385.42802903298673,386.4290456594066,352.39119028073503,385.42822605950806,383.42574686168217,382.4247590791287,391.4346748555139,379.4213620481018,383.4256844668292,389.43240333540524,383.4256813864736,379.4213192543115,393.4369320831244,385.42821860819646,382.4247296302611,386.4293080078757,389.4324604275843,364.40465422449086,360.3998899316956,340.3775787009865,385.42787020777547,391.43388228073536,387.43031940843434,384.4257892018376,381.4235425086234,387.43044439978684,395.4387506369676,318.3540367318533,381.4234666990665,384.42684577627404,384.4268472070118,393.43697392188767,384.42708431834933,392.4357782705005,387.4302350072524,320.3569708951838,388.43156504881017,387.4301952954869,388.4312889518162,384.4269135024632,391.4346349165303,380.4224189442362,382.42475502483865,391.43455385691624,383.425803967023,383.425996217791,384.42661861255834,381.4235722524215,381.4233700873636,341.3791782402427,385.42805138255324,383.425676657968,394.43804941732213,385.42792851323134,357.3970529063653,387.43021523926365,379.4213998973594,383.4256946863937,318.3558231449554,382.4246922099916,382.4243997434421,324.3603010683328,385.428073373228,381.4236379780673,381.4235565246663,383.42589112717707,379.4213472678377,382.42456079097246,384.42692019172716,370.4111110481005,384.42692071681626,386.4291573700609,382.4244700152397,354.39368298678846,387.43020052126036,345.3830805247047,357.3970194103761,390.4337693125105,319.36061312922493,386.4283946562516,343.3807103044083,350.3885841276361,384.42675583691397,380.4226138272129,385.42801430658983,353.3920995109303,386.4292195559392,357.3970824897844,346.3846043566237,323.3594449860428,381.423375168636,355.3948499857026,380.4221407838574,380.42233826628467,372.4125511482193,379.4215144540971,394.4378385790393,388.4313286630499,357.3965768297093,383.42596767526777,380.4221561892281,385.4280704395581,384.426812733336,362.40187161885325,386.42907568924824,347.38569330943096,377.4177924170845,384.42697956370137,384.42707263455486,387.43021703724514,393.43711616294615,381.42354377193936,382.4227100920515,386.42913403073754,323.35986429220344,385.42726193422214,386.4290997790002,385.42809394840776,346.3843154869598,376.41681556248386,384.4268475442588,397.4414649451679,386.42490096771195,386.4290703680416,322.3581958449282,382.4248429853244,385.4281850991811,381.42176532343154,384.4268483166976,371.4118775903076,383.42579091243573,383.4257649101802,384.4268995797122,322.36100773403734,390.4334985522459,384.42687330693957,381.4208525913852,380.4225132391505,353.39227746654365,399.44364853840466,370.4052691784805,383.4256210537443,359.399117237627,385.42687389788574,321.3573402307981,383.4258012233766,381.4235885218959,396.4404619601581,383.4257741122092,386.4292799495143,319.35512077118784,389.43210287563227,323.36504080544654,385.428061654572,361.4007517221377,384.42691280476146,321.374835022011,387.4296193453678,394.43810985696877,376.41795687792614,380.42250707756546,384.42707547659387,385.42784790680156,382.4246332153835,383.42578332863883,396.44014894973554,378.4202355416675,384.4268530787063,383.4257405408903,380.35379245209293,389.43245524212784,385.42798313014913,383.42574523617617,384.4265900061494,385.42808466158436,384.4251054773897,385.42799744228455,385.4280334934751,382.42465283880426,384.4269673511157,385.42801307983075,323.3593015912676,387.43006608697146,386.42920988845987,380.4225511302091,392.43377980487344,377.419121223211,385.42821276654956,389.4322060778408,385.42798184119397,322.36270229647477,381.42351608692337,379.4214706553648,383.4256932848278,366.4064299926353,387.43044141919694,352.39144840065075,395.43913542924145,385.4282210677201,385.4280319217643,392.4357649773997,395.4391549543788,388.4308072189745,386.4288819931854,392.4358135992275,384.42678214224225,383.4257786164883,395.43910287672674,336.37326142812304,387.4303722752283,386.42898783790724,385.4279702302562,364.40284510430433,384.4268284572912,342.3801729016141,347.38556574271513,384.4268164770529,370.41125067757304,383.4257240213797,387.43012580018643,381.4236955352619,373.41483035552807,384.4268668996593,382.42474148640736,382.42451700347044,363.4035353455262,350.3892920727856,383.42557120246903,387.43019112911963,321.3572992024254,385.4280302506897,383.42586157785735,380.4226562795038,354.3932078416284,353.3605232553879,388.43149374075944,319.3553845441734,352.39048432751935,384.42682229625746,389.4323860457626,384.4271133752817,384.4267973372744,391.43465785124835,382.4244691252076,360.4001679948277,373.41345148606604,318.3545603060753,383.4245426952674,342.3788372879677,387.430248407471,380.42246903043,382.42464360683607,352.3912468864962,356.39593650777886,351.3904069733123,323.3593238088101,350.3892691332752,322.36188062447127,323.36011644887105,382.4246896548111,351.3903233656816,393.43693276584145,321.3570986041667,323.3594214119529,380.42215764511764,358.39731546932603,382.42468484467247,319.36851925787596,320.36575380945214,336.3730592602672,380.42247150595523,319.35853512856613,395.438901964106,390.4334460352104,379.4215279474352,385.42786291417065,347.3811471083027,365.40569086802293,386.4292500998447,389.43227250999644,378.4202192238497,386.42930184539523,382.42478925759644,384.4270220040812,385.42819481001374,374.4159564908065,320.3608153029312,354.39367137136827,373.41085839097286,351.39021761006165,323.36202524007047,382.4068806111349,383.4257278705851,384.3562140470753,351.3845143244629,321.3571244840555,348.3865207002384,347.37648291347654,386.4290761671555,338.37548193000373,348.3713916210337,386.4291582685779,345.3835931352471,323.36174422686395,391.4347179141954,383.42575940050244,383.4257374203772,353.3919533597125,385.4280001633727,380.42262776019925,382.424699553938,387.4265029321906,351.39037474503283,342.37547646390465,385.4280356898504,385.4279912490002,322.3592754987095,384.42705636918487,320.3673009136568,324.3604518952051,387.4304217998593,380.4223825528074,341.3790528482496,321.35726163845254,372.41322072509405,382.4245350568724,316.3625988122365,370.411353927524,365.4057102052454,355.39478739397737,323.35951955375856,385.42801555094536,398.44232465072577,381.42364435428175,378.42029437651786,392.4357849183002,391.43485020739723,392.4358848257025,385.42579605391654,367.17950042648,383.42037333628514,377.41920080697633,384.42645897758393,322.35830293865763,396.44013545142286,381.4228509212913,397.44156513561353,386.42905821116017,389.43243749350216,323.3632227924137,322.358182208399,405.4488915865942,387.4274848209174,388.431382904072,323.37254287864096,386.4291417801335,322.3585227771061,388.4313340964447,356.394588181209,384.42693506637585,387.43012783404083,350.38892652032877,397.44156943555225,395.43923300622095,370.40910496046615,387.4301717871298,382.42475288434963,387.43023167425196,398.44247642516274,391.43424941152693,388.43151220858164,322.37539395705016,382.4225848615115,395.4391445291843,388.426213188153,385.4280395555722,364.36368657990766,388.43138193772245,389.43241178764634,321.3576651551494,386.42902202030734,322.3587609207711,319.3551186143676,348.3866563382966,386.42915364561736,386.4291961668444,387.430203335554,397.4414594853117,393.436697474432,319.35604837468395,387.4302429658306,383.42309334842895,393.436795810887,387.4301776641506,321.3582639277093,390.4333918032682,396.4401852244026,373.4145860962567,323.3594232721722,322.360937527826,379.421561754852,398.44253522682004,388.43151715038,388.4314832692726,397.44122709425375,324.3604158495695,387.42833698722995,324.3613845328029,394.4368469259302,324.36058366485616,322.35841067685885,375.41400199156595,385.42801151233124,339.3768280246838,323.359315999837,387.4302141675231,387.43041349452557,389.43248588793796,323.3594201478696,391.43468412636025,381.4233984985629,386.42836416706103,322.36032226673495,384.4258280603787,385.428224080205,392.4357740065314,323.36376951898234,385.4280008265351,402.44712482117706,400.444805226063,324.3693549614383,318.35414421544846,403.44764024997454,408.4537824428623,322.35926711596795,386.42912179367625,388.4312783252818,374.3847106824992,390.4334212261429,388.43130921433044,383.4254709524398,383.42581374198664,321.3708732635021,321.3574377770291,395.43920002918986,387.4301418673044,386.42910409686345,390.43345378453324,385.4280421418221,399.4437604315566,386.42908617788135,398.4425563258127,383.4259741177748,387.43025293150197,323.35958400644427,388.431472871398,395.43905290722984,387.43032243030234,389.4322439856894,350.38851566027745,387.42726140283946,323.361342895637,385.42807702172274,386.4292636057803,388.43131661164836,388.43155790978295,320.35707054520805,321.3573275058513,384.42688271337965,384.4270197862135,349.3700130469311,385.42798086294823,388.4314345712353,320.35659225340333,359.3991083200468,391.4343251204028,323.3598063293251,317.3535134466652,371.41253714118176,389.4323569098594,393.43674254318074,389.4324138010748,384.42690683064825,396.4402826983476,322.358876561595,355.3890448280271,373.41480322148743,386.4291514113311,385.4252962136258,350.389173209297,321.35775946527997,387.37389453170425,350.38904697165304,385.4280305151448,383.4258752685835,385.42807804889026,367.40507490199906,386.42921751817045,344.3807710716354,383.4259750884645,382.42466765474285,398.4425072901811,389.4324418463009,322.35965644120944,347.3817773911213,358.3978792336783,386.4291278743149,384.4268359159293,321.3580888052435,391.4346761169002,322.35817910703423,381.4236612721933,394.446399368869,386.42896914291657,385.42798606572313,384.42687485679267,380.42263808383507,376.4176925048455,384.4267502415515,324.47454373496015,386.42919806539675,387.4301748879275,383.4257542178328,380.4199695501169,400.4447811383569,323.3610555514925,386.4292628387254,396.4404252882709,387.43024117082854,323.3615378314553,386.4291492140065,387.4299381045417,340.3774661470633,324.3661782660701,404.44916693628005,323.36126682250796,399.44360537087175,383.4257879355741,386.4292015001347,385.4278709790509,380.38796184228454,342.37962198468233,384.42409066169245,386.4290280740773,387.4303910414757,386.42919741916904,395.4393425105663,351.36188583303726,352.3866688105233,387.4302924995932,321.35744411485655,387.4303243541797,398.44226990603835,350.38915503151543,317.35318649228986,399.4437922531086,370.40381484940764,388.43047397940956,387.430321068883,322.3596334607591,381.4235941145729,401.4459234566622,322.36719402905356,397.4413143640171,371.4125944369462,318.35409185464545,381.42349531532136,385.4280685527232,341.37897886187585,391.4346276732558,323.3593692005906,395.43914456735337,323.36135823532703,363.40295274780425,346.3817825773068,321.35758926940923,322.35961421962566,396.4403300809908,348.38555806472226,324.36081615800464,322.36200986102466,322.35888737518974,384.42646533216293,338.37571735037193,387.4302517215193,354.3936402152267,382.4247593426136,352.37368746110485,385.4280248060679,354.38961407371045,385.42734094840966,398.4375073131037,352.3816404645324,382.4234018877965,351.3903906356181,389.4325710425368,397.4413104271274,320.356841329729,397.43976316033314,323.3613861696182,391.43463764841766,359.3990638955345,383.42579052032437,390.43374561621044,319.35512140002663,317.35289189569534,377.4193266710724,381.4236226901804,354.36465855469766,382.4249041848907,322.35844432734416,323.35975616954914,327.3633364642379,353.3789170596723,384.4268386884444,347.38595656363873,322.3582891865764,385.42726379046854,384.42704097325463,385.4279963513907,391.43480824787395,398.44258531945684,322.3584215960873,379.42135753476913,342.38021198313095,382.418972077308,387.41776132278807,379.36871412013744,352.29145783048597,379.40247168138154,323.3597004318668,381.4235844764058,381.4235385289984,393.43673343125715,384.42688717085576,389.43248713269844,384.4268426919564,383.4258753741483,387.4302426713194,320.3559847432229,386.42891086585394,393.43679349904045,372.40385984759087,370.41111003564185,384.4268228887143,356.39522873136286,385.4279526688963,366.4063887581581,375.416967997294,381.42374226294845,394.43812563065813,385.4280330590509,397.44131606446336,400.44480393001436,390.43352140561325,382.4245766915369,395.439357520819,398.4424730720968,393.43693735150003,382.4245865282057,394.43778168808944,393.43689247367513,384.4270538388303,385.4279592013613,386.4280164560055,393.4368480118815,399.44362907011606,387.43030134443393,382.4245657192954,393.4368626011927,351.3894312820853,396.44005412821537,321.40047663700375,386.4285110136462,393.4368913641745,379.41831539752053,387.4301482873832,385.4278339998174,384.42687311339506,338.37532620384604,401.4458853480829,384.42348190141104,386.4246590224843,388.43153296722886,385.4223695833995,385.4279986465922,383.425674674637,324.3605858871606,396.44026861129595,397.43741300289446,399.4437419186952,388.4312361850287,383.4258004743416,387.43026016310966,386.42901196106794,393.43690430346857,400.4446194554467,384.41451917865896,322.35912201492255,392.4356685399324,385.42779902239135,339.3732880331609,390.4328873191137,383.42586757011446,391.4348912889577,326.3624012897466,388.4313286677314,388.42945336384287,400.44470821739105,386.42906029562624,384.42701324811566,384.426891241186,387.4302261004877,323.3626498612428,386.4293174261709,322.35917777874215,400.44459696710584,395.4390049779527,324.3603587038545,386.42909641832523,395.43910689551615,382.42467849974884,386.42721526070966,401.44597017627035,396.4400350928199,398.4424358700083,352.38515980895755,397.4415294187991,385.4279569727561,329.365707517428,394.43813788144143,384.42683472353093,372.41169986902344,386.4293359227897,383.4257256972499,335.37236274725853,400.44462854664624,323.35991452493283,331.3585206744537,383.4255985780126,386.4290746072139,396.44037112292915,323.3601636158374,400.4447837459081,394.43802221206295,322.3649023674891,321.3583513908252,403.4481266971437,368.4089554747127,397.4414539993535,383.4258707153541,399.44353541678566,330.36672634251,404.4493017127754,390.43368109032554,386.4291353895549,395.43924392114576,323.35929862465645,323.35949754785815,404.44729295520415,396.4401874947938,334.37106284986834,373.4148466161663,365.398121644013,323.3647499513319,322.36321506879165,385.4282110863508,382.42467110222617,321.362709269435,358.3980057632847,389.4325288744075,323.35959570657917,320.356201004084,399.4435260643888,338.3755247911196,335.37244277564366,364.3140031983039,322.35857928727336,401.4459081540535,378.4201025787505,377.1218277890436,395.4392088689377,385.4280581776428,380.4222923475038,388.43079112409583,416.4624383502289,342.3798595296207,366.40484025939327,393.4367439788081,396.44046195700184,393.4370280214702,383.42595571925307,349.3877568921073,322.3587576383884,385.4279376859579,338.3750535249468,374.4123306784006,387.43022479557504,323.35936913686606,385.42819875664117,384.4271218007218,345.3800328158906,382.42455647191616,384.426796027482,345.3833258104898,390.4247800096987,398.44244495697103,338.375437917262,373.41447674585066,355.3945646388152,383.4258650237026,322.3642197547103,387.430219521916,323.4399024199106,382.42488446322346,382.41803208466735,390.4328538813969,394.4380106648875,384.4268511253696,346.37417359107496,377.4190902080042,395.4390323301612,400.4446871709836,345.3825454037765,397.44124905819183,383.4259240494127,399.4436005531138,323.3610309202605,324.3643355843402,350.38845854403877,399.4436938581959,370.40939803277877,379.42131495252767,324.36331139601367,321.3596649559644,394.43795316863293,342.3801968069536,381.41971246606676,395.43904812523203,390.4334639715247,339.37685711641643,400.4447057136837,392.43506947988953,384.4269786895336,323.3613660657413,349.3881253230942,373.4136515223631,393.4367474363036,322.37004331842564,392.4358654323364,352.38855754647955,323.3594148402755,389.43246096789784,392.4358874997482,336.3732390091991,383.42571520186976,398.4425737322042,393.4368509228009,321.35853855100873,378.4203856656392,383.4259353475271,395.43903064407306,343.3805820391154,392.4341907051754,395.4392160409702,323.35969888831806,390.4333538959279,398.4425426289647,322.36375815618476,392.43512251378144,363.40311475058354,377.41682066253105,358.3973769073663,335.37240857460006,404.44934972440007,369.4101330159516,393.4368629021033,348.3870248398471,321.3576697507221,376.41791153554846,398.4426403317133,392.43582207395684,383.42582052967407,389.43246650391285,352.2663190313246,380.4224576905914,394.43812625958697,318.41513407958496,393.43681598937644,395.4388181194814,381.42355434679564,335.36872935868416,385.40548364567223,402.4470648469408,322.3586787548446,393.43588635422446,394.4380016416233,333.36974577709975,397.44155633148284,394.43792552460525,322.3615878846354,398.4425680922701,404.4492386802443,381.4232711352661,395.4387130643066,343.3811823783578,393.4368580655663,382.4248795554112,390.4336556556545,395.4392447690647,323.3592987932299,386.4290266274291,396.440210588436,384.42691334603705,397.441303539789,399.4437323866584,324.3610254219923,396.4403972740158,353.3914690070569,385.4241753887739,373.36669258199356,394.43794020271366,373.41249103838373,396.4402851316427,323.35931551351155,390.4328467587723,323.3596942932898,398.442605881458,366.4062549403906,383.4258417035614,378.4030634628178,386.4291049529534,387.4300364656841,388.4312813803626,322.3590712120656,369.4100147442923,382.42467743511895,370.41066631449024,323.3593709831787,386.429280798686,388.4313393115534,349.3878808674365,342.3802187210172,354.3935584011288,385.42819185400197,322.359886995737,323.3642620884589,397.441351596421,324.36073805003446,384.4131224210513,399.44379616664014,401.4456337918242,385.4279348983341,392.43578463842493,342.380037374841,343.38105086287584,396.4401965962806,393.4082128462738,399.44377576603557,324.3604447203207,320.3637349013799,323.3602290018719,346.3833865897285,384.42698102780287,395.43914990417414,397.4415191048212,383.42570006958255,395.4390133014927,397.4413014162024,324.3610191057063,393.43637119944145,382.4240461982958,402.44711910555935,400.4447752947548,395.4390812518959,396.4402899441933,384.4267978961161,396.44024914128977,397.4405899609279,401.4457930496946,402.44670352773,397.4412959295016,403.44818681733585,395.43910315841464,397.4415635780408,403.4482262029259,346.366508616486,323.3594883044876,388.4313463979925,394.4380295926283,321.358084055673,390.43355717277063,398.44254560779837,347.3849391714716,396.4403159243916,397.4414910735936,389.432537937908,398.44247266460934,396.4404338206336,395.43923936455155,323.36559452635396,322.359712719928,394.4380318547213,402.4469353724686,323.36083261809137,322.36184509899596,399.4436876952235,393.43276265536036,395.4390482255922,381.4235177207762,392.43581585464364,323.3640099280748,391.43421303159386,323.35947189557777,377.41933057026165,396.44021391684305,336.3727874585835,403.44813124577985,323.35934952030584,323.3598424442398,378.39254350472777,390.43367370736235,357.3966998465962,396.44028864662766,320.356237087252,323.35984570555223,323.36416412190573,394.4379872446945,366.40625062388676,391.43482556141737,363.4026908536648,392.43581221857545,340.37755089399826,389.43231339510095,391.4337607509032,398.44249638907917,339.3754600315201,360.39917493853574,322.3582429792049,338.37559860939376,397.441291325862,399.44375947925863,399.44347172974153,400.4446585415856,337.3744994201981,396.4402537514529,401.44599952605097,349.3877367988567,322.36200620643837,391.4347091287468,389.43253028065226,396.4402536766103,381.42342745225017,394.4382269680734,405.4504145954259,323.36111004238086,401.4459207586983,386.42910625831644,344.3820057052519,392.4355848268004,322.35844783293027,333.36988472403493,324.35946154066096,370.4115201180804,403.4481167107537,387.43026918598935,398.44245304953057,401.4460153395957,337.37441295899197,390.43333565003655,369.41022688923476,323.36006136154344,402.44689320478716,393.43364538934486,364.40454240435065,401.4459304936537,323.35930213573266,334.37117468041924,344.380532805253,388.4313544185934,395.43916362603744,323.35932202860107,322.35932585304187,341.37063062794346,398.44248939861694,324.36286585597423,350.38928687663196,372.413698702854,397.4414512829674,395.43911233683355,387.4303010347152,398.44248182722424,401.4459281765712,387.4301061463575,340.37729480808497,322.3590194932933,399.4436991046594,398.4425990039244,355.39485246275456,340.37685403095514,340.37742449224623,384.4270685333845,322.36364587727996,335.3723965693542,382.4247457823192,400.44489096399764,323.3709571178148,333.3699341735954,322.35919333326166,390.43359017477064,321.3593904208484,357.3964417520836,323.3604067087981,393.43703279425927,391.4348146260675,399.44369511575525,400.4447179800344,323.47816167167315,341.3790013693484,397.44146903668485,345.3820136902803,395.43913995398884,400.4447852057589,389.4326634131665,364.38867759180107,320.3599988064604,385.42818898493545,323.36215670434444,334.3712875867877,393.4366081482201,391.4280349969326,385.42805186091095,344.3809996509592,344.3823197831074,318.35403160336733,387.42987297925737,395.43925022501566,396.44044999212605,391.43487275993294,384.42687515972017,324.36040908877806,394.43812653442245,396.44035550860707,335.37227754422497,388.43154635223215,396.4403738949911,323.3596190760775,397.44131471828587,394.4381106758609,353.38533944855794,387.43017872080503,395.438854225795,381.4237319974226,359.3973762125788,396.44022580770525,388.4315708185705,394.43821084191666,401.44577541338276,386.42919749545405,372.41352825308167,396.44033450041036,383.4259648432663,391.43468235640216,392.43600688020217,398.4426733018787,392.43589089304857,394.4381117369016,393.4369282629642,399.4434654043534,322.35848266343424,323.3610863114137,323.36205840721584,392.43575479161404,322.36143072206,392.43583524876055,323.35930713818664,391.43475315764556,391.4346409139934,394.4379172903745,337.3741713451362,322.3590656106481,394.43802431308563,320.35695583139824,401.445930500496,387.42983976215487,396.44041869039654,393.43701924949727,321.35779061797535,347.3855449846576,404.44931094214286,397.44148613253077,387.4302377768743,400.44492082430037,324.37800021774484,346.38141730959416,319.36084031646755,333.369995803269,396.44024813801894,344.380795820398,324.3621267684815,322.4000867690459,393.43678220328235,345.38327931648325,323.364925569879,323.3619327041642,372.32268041789985,399.4437932063877,322.35955645293365,339.37662676913413,400.44490245456575,396.4403436835446,396.43887335999716,353.3901902297327,323.3624189705385,323.3657195481886,396.44032538006275,394.4381018176848,398.44245324757134,388.4315789026801,385.4279764232721,397.44123597207664,385.4126282511302,322.3583045810866,404.44917628694867,396.4402463606042,393.4364831538338,397.4413823827115,375.41591599457195,395.42987266666654,391.43470827633945,345.38022147546917,393.4352167699615,393.4367372869688,363.29048028289066,396.4401948752868,321.3576181836411,398.4422927669729,376.41763720892834,387.42911265523855,383.4258680708696,320.3643912933655,324.3716573463405,380.4141259734982,389.43254565900867,370.407222032817,398.44262829244695,399.4437935019319,393.4369033595639,397.4413364199601,405.45018995905383,321.3579838888541,400.44477784416426,400.4448504412892,395.3766391085348,390.4336833639392,322.3640487632348,324.36187179062,398.4425891342459,325.3645917100567,401.4459576675229,393.43618969461033,321.3590737730084,323.3597186599088,394.438109435205,340.3767412426738,322.3594852389972,322.35916449374673,391.4346788154004,321.3628916713702,320.35694123052554,321.3675865971608,397.4413607299095,321.35730652591434,383.42575093839577,397.4412140226914,321.3578110079856,318.35414365148836,400.4447939568123,400.44490655591386,349.3842901548428,400.44479506101504,321.3573845072965,339.3767645335624,322.36011631387595,323.3599211054731,354.3920551173499,398.4426637680357,390.4337288179312,345.3812771980505,352.3908684717308,390.4336569124732,380.1725349102285,320.35706691586597,341.37899334722846,394.43793576542964,322.3582365178872,398.44252340835294,385.42818907956587,385.4281906082452,361.4013252317038,393.4370854223261,323.362095677263,394.43809696716863,392.4359222513143,383.42577217040497,385.4211473129799,340.3779183770064,395.4391209511873,391.4347832692029,391.4347551591746,385.4282323519027,389.4324008426026,343.37573281069456,400.4445294168485,322.3585810730359,395.4374301960832,395.4392679524606,398.442456843382,385.42823557793275,394.4381354329895,397.44129233462223,398.44267415368677,393.4338005278128,396.4402395307328,349.3881944666255,397.4415526111053,402.4471009909627,383.425797675805,398.44259288292784,403.4480319496822,386.4290922678743,399.44376439262084,397.44154951360895,393.43130695904614,396.44027107845534,390.43248287640745,348.38592957777655,387.43017927845375,399.43961049241744,398.44240812984594,386.4290682995099,382.4246686037039,397.44144709366594,397.44137472357113,322.36277567105026,323.35958321112173,325.36207809497057,401.44601503139154,394.4380050065047,396.4402269344203,337.3604617220485,395.4391763740221,385.4121307059923,387.430381252677,397.4415638216837,396.4403169498141,356.3959805457259,356.39581650930603,356.3959662838477,356.3959675246849,356.3878165788424,321.35712386207894,319.36035050406394,323.3593055684565,399.4436501810701,399.4434308783834,395.43925606679016,391.43467623636775,398.44234106321784,324.3558420743979,382.4246942544211,395.43912030844956,394.43812593067867,344.3779469834779,398.44255610874035,390.43317808266653,403.44822776490275,401.44593426011534,391.43462240714445,382.42244601292333,396.44046627472676,398.44248235756777,388.4303621303709,397.44151599910674,401.44597795404644,394.4380953859286,390.42980529951603,390.43356161816257,397.441364972319,398.44256083088,400.4447911021859,323.35959900023647,396.4363808882075,402.44687990009544,398.4426194031131,395.43910617082076,391.43475577448595,377.4189615336501,322.3592133242329,395.43918197212423,323.3877995214877,396.4404623603834,394.43819192278585,395.4392405628628,385.4278248567271,321.38472518487174,324.371627687631,320.3571967416962,398.44258797761523,402.44710704427547,382.4232874786655,323.3620302492666,396.4404423454935,394.438086797959,347.38224491788515,323.3634922181067,341.3781150323145,349.3879438243302,372.4132874536691,323.3603928569662,324.36253991477196,400.4425033279635,339.3761690279196,323.3620869891664,403.44809854896465,394.4381168253833,322.3624545085225,323.35933649641623,400.44490728769773,321.3589544798506,402.4470832050624,393.4369180127893,321.36116320115,391.43411699929106,324.3604247885479,322.3619287313365,396.4403429470784,335.37240785336445,398.4424226868987,393.4369805976194,383.425775205429,355.3941433747461,323.362057035733,322.358563038507,397.4415205811727,324.36231428931734,397.44112929856146,395.4392341026441,396.4377769418249,400.44464383908627,396.44034955858837,395.4393326747801,346.3838243298955,400.4449011512189,397.4414829196209,394.43818644508775,396.4404585049456,399.44371954252694,323.35974948011426,396.44020253829814,319.355764698033,386.34705228266154,348.38020207397926,323.37005924246915,320.3572582840739,395.43917414770334,323.3648044419968,395.4392168423999,400.44490010075606,397.4414078100082,396.44036043892777,396.44043809558974,342.3794890649791,400.44479827574594,394.4380062290334,396.4404669170152,396.44031954824993,396.4403350423073,335.37217093256083,393.4366344238301,323.3625371302095,322.3633623088882,319.36079289281395,399.44378573876355,397.4414391717332,406.45096401849696,396.4404238565507,393.43698385740913,390.4335668440189,399.4436815923138,324.3605379770725,398.4425757125736,400.4448956216685,323.35971956375806,345.3797588238368,373.4144896563613,401.44596716310235,370.4109946244703,386.42911755996306,402.4468361462059,402.4470596073346,394.4381262793804,323.3596021644309,324.3614094678932,394.43811883119537,396.44035199435064,403.4482427960903,324.3622773459286,388.4312106342894,401.4458097764571,345.3802046754864,324.360514013325,396.4399481885381,399.44378384870305,395.43909504821835,398.4426658806166,392.43269568247854,391.434824518206,341.3728117744899,323.36797582623797,378.420221151751,397.44156123243,399.4437420327719,379.4215406838807,370.4114377016362,396.440416149141,398.44253507417386,395.4391369145581,401.4458345963564,355.3352778803213,322.36801808715245,319.35505155153584,387.43025265950723,397.4360697928847,385.42820813833094,396.4404530423552,398.4426407152337,367.407929172727,391.43357251752496,372.41274130956026,397.4415483214659,398.44267709278785,399.4437770681117,367.40705138964444,399.4437065015597,392.43588012883026,397.44120949842153,323.3605481628729,397.4415278245321,321.36347072629843,395.43932947592896,398.4425650819944,342.3748525354571,393.43690714401623,397.4414049102027,397.4413811577145,399.44367160184595,348.3844946014268,384.42689204345925,325.3568011645132,391.42040611250366,342.3482776074538,370.4101293880915,374.41576093126605,396.4401075173365,344.75604164015397,367.3953081255032,324.3611326922829,324.3637671055409,382.42454382829845,370.41139463622187,322.35820371409704,324.36075659198553,394.433758503086,399.4436434789382,384.42688244670126,395.4392160036007,322.35878698110605,356.3959391423018,392.43581864618596,394.43808865798684,323.36015355574284,357.21649101731,392.4356812844426,391.4343706140669,393.43699463026945,406.45135562964043,400.444904040964,391.43474796536873,357.3962404795282,354.39254705643066,392.43508218850627,377.4191083726518,324.3645900597862,323.3593795984271,394.4381061237806,383.4257851165575,322.35863575717786,326.2899971138586,346.3789374065041,391.4348867995368,342.3802178759999,322.3587937301344,399.44379603800786,396.44033859343307,339.27199054256613,398.44252609206296,323.3599367634948,395.43922580136564,370.4113364922952,401.44597983442975,341.37333412184415,396.44034626836685,399.44359222561326,362.40242270458174,402.4470346877637,321.35732681775096,384.4270240470784,393.43692315682523,373.4146510989333,344.3822413020182,394.437990071445,394.43727594636476,393.43444366257717,391.4346033713068,377.4188622087929,323.3598087950536,320.3572427829736,380.422657585002,323.36040284857944,323.35977903223977,323.3611725421446,321.35800390363784,374.4157372878118,371.41042061352283,396.4402603162573,361.39560032954154,399.44316974649587,323.3630058271844,324.36042934849803,402.44711767177864,379.4213740302234,396.4402650665216,393.43686487458154,321.35732044033307,393.426571274416,406.4515229114273,403.44758155371164,373.41473330842,323.35968021123887,380.4224424755163,396.4401383672822,323.40159723777066,397.4414541209463,353.3903427676843,394.4381158109602,323.35936433203375,363.3809238511547,397.4413409051098,398.4426027400958,368.40860294934913,321.3584267112178,317.3558138988827,323.36017522776535,371.4126242124946,370.41143007014904,371.4125606811512,396.440316036058,398.4423740177198,342.37775086216686,404.44931260242964,389.4250765492568,392.4344893366286,373.4145579447931,399.4436686057524,401.445748805898,399.4437643659969,335.3721316925498,323.359765861833,395.43913186390773,322.3588519337687,399.44356980543375,399.44357479333235,366.3979850686553,400.4447843227775,320.35661476739153,392.435924756927,323.3679370795551,381.4235865996586,396.4403286999659,323.3599631114362,397.44136722218724,378.41984617640685,398.4425826745707,323.365713661377,402.447052991512,324.35770628264106,395.43885241394725,323.36446345923855,375.41710182093493,321.3705301666923,351.3765043276069,388.43146586338594,324.36049792418476,394.4380292996673,376.41777841545337,324.3610973506183,322.3595863416724,393.43698214317556,394.43821102086264,323.36033302886204,347.37400220155683,396.44033973598,370.4108483979956,324.3650722148507,394.4380370824603,398.44258956977296,370.4114333992666,385.42818909545434,398.44254118223665,323.3612008947296,346.3378861929446,397.4414257651005,344.37314504823877,400.4445794405188,397.4415710468382,322.367159245202,400.4448476885076,352.39109839516817,324.36306095452596,380.42247530735096,381.42084144807933,402.4470448118322,378.4201126087723,361.401432267078,321.35725824200705,323.35958114804123,397.44124338484517,378.420362339286,322.3605122259462,322.35855534991714,344.36735597601665,342.3762642544375,321.35735422295386,321.35970031655467,323.36250154876376,323.3609661322984,322.35853518445896,396.4398424158822,392.43552296170094,394.43797761507227,320.40579614490116,321.3572720097368,348.38517179306575,323.3593609612611,396.4402704298636,393.43693046216936,349.38813308618535,398.4424702177283,355.3778807251612,398.4425621178902,394.42905496183647,323.3593362594719,320.3588379659431,345.3529247005876,374.4151252231216,399.4435783802538,322.3586214099516,322.3980323580178,399.4438087498068,401.44601870202183,350.38921212036,391.4342943097896,386.4292053252684,381.4237092035331,389.43242633950223,324.3344987938322,370.41153032899683,365.4044954392906,322.35925049997945,322.3602785875573,324.3714421851168,323.35941915254574,322.36946184351586,368.4091060529392,397.4414436015007,322.35855039412655,320.3602300762352,404.4491258724071,403.44820878788454,323.36404265389143,396.4401902926425,324.3609329502506,389.43184510652077,378.4201964345933,399.44360567032396,378.4202267019123,380.42265143029505,395.4393453557183,398.44237485446547,345.38093826708956,357.39705299632436,357.39708220448887,358.39802387354445,358.374307177005,393.4363350910277,385.4280931394037,389.4325013075943,390.4331044397029,384.4266563567558,395.4390966315971,391.43461825115486,322.38789593090956,323.36021141512316,320.3571843030676,393.43691742320675,379.4213327731315,387.43024265497786,371.4122792792715,391.43463215876017,323.359773209086,322.3586248552471,320.35704346990354,372.41364454249646,389.43267520570475,323.36045542211457,392.43596958735753,388.43139450714887,394.19161192714375,395.4390082266885,398.44248232221526,323.37140996674924,405.4504823066097,322.3594990530329,393.4369070269674,394.4380488179249,368.40851906065654,323.3617335399057,342.3142110746655,395.43924116785024,391.43466346742053,322.3673834223817,397.441388550108,400.44461086569805,323.3593645623919,391.4346246480407,400.4448708241083,386.4292195467098,400.4449008324626,395.43911337797573,321.3585717782856,372.4132243652821,396.44039345201463,323.35976169341006,321.3573563546743,322.358766960059,346.38436709297616,394.4377682785486,402.447110224468,367.4052439059109,393.43700839640684,395.439168468843,398.44266565034263,397.44154027619817,394.4381208346872,396.44027357711144,351.38596963898925,394.4375229456204,323.35942085916275,394.4382152336452,361.3992299748509,322.3594741714342,392.43563682901413,389.4239730589834,395.43867975487694,383.3420691403625,349.3875352446036,396.4402799750828,395.43925874041105,395.4392089693106,393.4317551339474,320.35623700995393,397.44145161449995,321.35826763686754,352.3177072885587,396.4400630239585,381.4237039860843,399.4437183294375,397.4413270164281,347.1717341290767,395.4392391564079,320.3701608326932,323.35939102594733,398.4425557716048,322.35850694374585,397.44149624810024,330.3585226685172,400.44486351384893,395.4392673906226,322.35941861031966,396.44028155471176,399.44337684504814,403.4482528795993,320.38462395714157,391.4347647902962,323.3598558449116,381.4233697866293,373.4146303403358,323.35933137674243,397.4414622465512,322.35885505962597,398.44261688918584,398.44249501830376,382.4247579544876,395.43885306816145,345.3787197824065,376.4139208198476,400.4447973516685,321.35731378509644,396.4403028210436,399.4437891806406,397.4415205373824,322.3583773504515,396.4403927978692,335.3710389007822,384.42689119435977,323.36087033882995,396.4404439969998,351.38865741486285,352.3727278499412,323.36429229747324,321.35796098419195,345.382242578989,396.4402059475202,342.3801714383734,367.40618499432014,398.44258494628326,395.43881046984023,397.44156898067376,396.44039449469074,342.3651743573828,363.26489597947403,394.43804067421473,401.4459702962986,399.44370003874076,400.44480813102297,387.4299595512976,395.4392172047012,320.36067166742384,322.35849921091864,324.3328807873197,394.43817368112735,406.44943647438794,323.3626438654398,397.4413848942163,372.4135374257487,399.4436159431784,397.4411673744801,396.4403138314758,381.4235601147253,401.4459009159703,394.43810868373646,400.4448376198562,372.4086888880942,377.4191891266306,340.37299203177724,376.418026821252,352.3856642724372,322.36361268083164,323.36874541063634,395.4389755782354,322.3589624002518,391.43483314136523,366.4064269330496,394.4380507893748,371.40611554662917,348.3730865967911,394.4381074940429,367.40812500667136,396.44038315320745,403.4478627821807,401.4458247939411,401.44600008094625,370.4056512204916,352.39040804054406,322.3653195970143,321.3616261886185,323.35935370189037,398.4425109444274,345.3814157411386,324.36041196551724,395.4393493019422,395.43914744577836,398.4425505015583,395.43922697554973,381.4235942565901,398.44257726439787,349.38798113971234,367.4053838897642,398.4419175991358,394.4379440727761,395.4392467957543,403.44819520483367,390.43363755741433,346.3322151779453,335.37189208670776,375.41134941693406,320.356443028714,390.4336649275918,397.44132249373484,400.4448965263241,381.42334257307397,386.42552144421273,351.3898356198928,398.44260849613977,403.4481436147575,323.36195806897973,397.44156363677115,394.43821773710135,394.43781886499477,324.3625113323511,322.3582942618972,322.3632401321501,389.43247138433236,322.35953036829846,399.4436149603908,362.39941087434426,396.4404569269016,390.4335466222517,318.3589920658635,397.441275938794,353.3486806164139,323.3610063147212,385.4280877371003,323.3595449924455,379.4213679109913,402.4468036989278,400.4447050800301,323.36258077340017,391.43470552892103,396.4403418067172,400.4448354069409,381.4236630624397,358.39688317687353,382.4246157404101,397.4414352513529,395.4371295775872,378.42025561531045,397.4413765950698,320.35692099213594,324.36230183391217,381.4233846363836,378.420321513451,381.42340568078623,373.4142670009,384.4269387020069,322.35867963094887,323.35976582574887,342.3798148928487,397.44156143415165,401.4458877993458,322.36080555234565,322.3587367552974,398.4424472229684,323.3615727829002,381.4232110767695,322.358246479657,381.4235757437705,376.41801447360405,393.43700526701593,320.35692071591876,383.42591873549,375.41702407597893,374.71657673662827,396.44035665260645,375.41705619623264,348.38682547853097,399.44340421690134,400.44485012303784,398.44233884186684,378.42036882416033,350.37883727130117,395.43915924734097,395.4392191248571,397.4411036114613,345.3830360105937,400.4448182205818,389.4325669647234,323.33522763672636,324.3419100538588,375.41553112804127,349.38741608792225,398.4424095311643,322.35885398654693,395.4392101965655,379.42128535454907,323.3671848479317,324.3609025714639,397.4414354119863,385.42812288106217,376.41810624461465,323.3669784926217,396.4402686384503,345.3836172493248,385.42791197177974,382.42478504014406,375.41703549345374,323.3612342701479,322.3585783525119,322.36214138327927,323.35927927362377,322.3591589399354,319.35519903474886,389.4323159062723,394.4378196354667,400.44490436010136,397.44085261310187,375.4169173140371,393.43698216332126,375.4170929994144,323.36459358354034,388.42957797108664,394.43810133725015,399.4437999854886,400.4448641196845,398.44262958629827,366.3606633241203,374.41588395333173,388.4314708731639,357.3952938202979,358.3956999935968
