,0,1,2,3,4,5,6,7,8,9,10,11,12,13,14,15,16,17,18,19,20,21,22,23,24,25,26,27,28,29,30,31,32,33,34,35,36,37,38,39,40,41,42,43,44,45,46,47,48,49,50,51,52,53,54,55,56,57,58,59,60,61,62,63,64,65,66,67,68,69,70,71,72,73,74,75,76,77,78,79,80,81,82,83,84,85,86,87,88,89,90,91,92,93,94,95,96,97,98,99,100,101,102,103,104,105,106,107,108,109,110,111,112,113,114,115,116,117,118,119,120,121,122,123,124,125,126,127,128,129,130,131,132,133,134,135,136,137,138,139,140,141,142,143,144,145,146,147,148,149,150,151,152,153,154,155,156,157,158,159,160,161,162,163,164,165,166,167,168,169,170,171,172,173,174,175,176,177,178,179,180,181,182,183,184,185,186,187,188,189,190,191,192,193,194,195,196,197,198,199,200,201,202,203,204,205,206,207,208,209,210,211,212,213,214,215,216,217,218,219,220,221,222,223,224,225,226,227,228,229,230,231,232,233,234,235,236,237,238,239,240,241,242,243,244,245,246,247,248,249,250,251,252,253,254,255,256,257,258,259,260,261,262,263,264,265,266,267,268,269,270,271,272,273,274,275,276,277,278,279,280,281,282,283,284,285,286,287,288,289,290,291,292,293,294,295,296,297,298,299,300,301,302,303,304,305,306,307,308,309,310,311,312,313,314,315,316,317,318,319,320,321,322,323,324,325,326,327,328,329,330,331,332,333,334,335,336,337,338,339,340,341,342,343,344,345,346,347,348,349,350,351,352,353,354,355,356,357,358,359,360,361,362,363,364,365,366,367,368,369,370,371,372,373,374,375,376,377,378,379,380,381,382,383,384,385,386,387,388,389,390,391,392,393,394,395,396,397,398,399,400,401,402,403,404,405,406,407,408,409,410,411,412,413,414,415,416,417,418,419,420,421,422,423,424,425,426,427,428,429,430,431,432,433,434,435,436,437,438,439,440,441,442,443,444,445,446,447,448,449,450,451,452,453,454,455,456,457,458,459,460,461,462,463,464,465,466,467,468,469,470,471,472,473,474,475,476,477,478,479,480,481,482,483,484,485,486,487,488,489,490,491,492,493,494,495,496,497,498,499,500,501,502,503,504,505,506,507,508,509,510,511,512,513,514,515,516,517,518,519,520,521,522,523,524,525,526,527,528,529,530,531,532,533,534,535,536,537,538,539,540,541,542,543,544,545,546,547,548,549,550,551,552,553,554,555,556,557,558,559,560,561,562,563,564,565,566,567,568,569,570,571,572,573,574,575,576,577,578,579,580,581,582,583,584,585,586,587,588,589,590,591,592,593,594,595,596,597,598,599,600,601,602,603,604,605,606,607,608,609,610,611,612,613,614,615,616,617,618,619,620,621,622,623,624,625,626,627,628,629,630,631,632,633,634,635,636,637,638,639,640,641,642,643,644,645,646,647,648,649,650,651,652,653,654,655,656,657,658,659,660,661,662,663,664,665,666,667,668,669,670,671,672,673,674,675,676,677,678,679,680,681,682,683,684,685,686,687,688,689,690,691,692,693,694,695,696,697,698,699,700,701,702,703,704,705,706,707,708,709,710,711,712,713,714,715,716,717,718,719,720,721,722,723,724,725,726,727,728,729,730,731,732,733,734,735,736,737,738,739,740,741,742,743,744,745,746,747,748,749,750,751,752,753,754,755,756,757,758,759,760,761,762,763,764,765,766,767,768,769,770,771,772,773,774,775,776,777,778,779,780,781,782,783,784,785,786,787,788,789,790,791,792,793,794,795,796,797,798,799,800,801,802,803,804,805,806,807,808,809,810,811,812,813,814,815,816,817,818,819,820,821,822,823,824,825,826,827,828,829,830,831,832,833,834,835,836,837,838,839,840,841,842,843,844,845,846,847,848,849,850,851,852,853,854,855,856,857,858,859,860,861,862,863,864,865,866,867,868,869,870,871,872,873,874,875,876,877,878,879,880,881,882,883,884,885,886,887,888,889,890,891,892,893,894,895,896,897,898,899,900,901,902,903,904,905,906,907,908,909,910,911,912,913,914,915,916,917,918,919,920,921,922
0,54298.562112987034,54298.562112987034,54298.562112987034,54298.562112987034,54298.562112987034,54298.562112987034,54298.562112987034,54298.562112987034,54298.562112987034,54298.562112987034,54298.562112987034,54298.562112987034,54298.562112987034,54298.562112987034,54298.562112987034,54298.562112987034,54298.562112987034,54298.562112987034,54298.562112987034,54298.562112987034,54298.562112987034,54298.562112987034,54298.562112987034,54298.562112987034,54298.562112987034,54298.562112987034,54298.562112987034,54298.562112987034,54298.562112987034,54298.562112987034,54298.562112987034,54298.562112987034,54298.562112987034,54298.562112987034,54298.562112987034,54298.562112987034,54298.562112987034,54298.562112987034,54298.562112987034,54298.562112987034,54298.562112987034,54298.562112987034,54298.562112987034,54298.562112987034,54298.562112987034,54298.562112987034,54298.562112987034,54298.562112987034,54298.562112987034,54298.562112987034,54298.562112987034,54298.562112987034,54298.562112987034,54298.562112987034,54298.562112987034,54298.562112987034,54298.562112987034,54298.562112987034,54298.562112987034,54298.562112987034,54298.562112987034,54298.562112987034,54298.562112987034,54298.562112987034,54298.562112987034,54298.562112987034,54298.562112987034,54298.562112987034,54298.562112987034,54298.562112987034,54298.562112987034,54298.562112987034,54298.562112987034,54298.562112987034,54298.562112987034,54298.562112987034,54298.562112987034,54298.562112987034,54298.562112987034,54298.562112987034,54298.562112987034,54298.562112987034,54298.562112987034,54298.562112987034,54298.562112987034,54298.562112987034,54298.562112987034,54298.562112987034,54298.562112987034,54298.562112987034,54298.562112987034,54298.562112987034,54298.562112987034,54298.562112987034,54298.562112987034,54298.562112987034,54298.562112987034,54298.562112987034,54298.562112987034,54298.562112987034,54298.562112987034,54298.562112987034,54298.562112987034,54298.562112987034,54298.562112987034,54298.562112987034,54298.562112987034,54298.562112987034,54298.562112987034,54298.562112987034,54298.562112987034,54298.562112987034,54298.562112987034,54298.562112987034,54298.562112987034,54298.562112987034,54298.562112987034,54298.562112987034,54298.562112987034,54298.562112987034,54298.562112987034,54298.562112987034,54298.562112987034,54298.562112987034,54298.562112987034,54298.562112987034,54298.562112987034,54298.562112987034,54298.562112987034,54298.562112987034,54298.562112987034,54298.562112987034,54298.562112987034,54298.562112987034,54298.562112987034,54298.562112987034,54298.562112987034,54298.562112987034,54298.562112987034,54298.562112987034,54298.562112987034,54298.562112987034,54298.562112987034,54298.562112987034,54298.562112987034,54298.562112987034,54298.562112987034,54298.562112987034,54298.562112987034,54298.562112987034,54298.562112987034,54298.562112987034,54298.562112987034,54298.562112987034,54298.562112987034,54298.562112987034,54298.562112987034,54298.562112987034,54298.562112987034,54298.562112987034,54298.562112987034,54298.562112987034,54298.562112987034,54298.562112987034,54298.562112987034,54298.562112987034,54298.562112987034,54298.562112987034,54298.562112987034,54298.562112987034,54298.562112987034,54298.562112987034,54298.562112987034,54298.562112987034,54298.562112987034,54298.562112987034,54298.562112987034,54298.562112987034,54298.562112987034,54298.562112987034,54298.562112987034,54298.562112987034,54298.562112987034,54298.562112987034,54298.562112987034,54298.562112987034,54298.562112987034,54298.562112987034,54298.562112987034,54298.562112987034,54298.562112987034,54298.562112987034,54298.562112987034,54298.562112987034,54298.562112987034,54298.562112987034,54298.562112987034,54298.562112987034,54298.562112987034,54298.562112987034,54298.562112987034,54298.562112987034,54298.562112987034,54298.562112987034,54298.562112987034,54298.562112987034,54298.562112987034,54298.562112987034,54298.562112987034,54298.562112987034,54298.562112987034,54298.562112987034,54298.562112987034,54298.562112987034,54298.562112987034,54298.562112987034,54298.562112987034,54298.562112987034,54298.562112987034,54298.562112987034,54298.562112987034,54298.562112987034,54298.562112987034,54298.562112987034,54298.562112987034,54298.562112987034,54298.562112987034,54298.562112987034,54298.562112987034,54298.562112987034,54298.562112987034,54298.562112987034,54298.562112987034,54298.562112987034,54298.562112987034,54298.562112987034,54298.562112987034,54298.562112987034,54298.562112987034,54298.562112987034,54298.562112987034,54298.562112987034,54298.562112987034,54298.562112987034,54298.562112987034,54298.562112987034,54298.562112987034,54298.562112987034,54298.562112987034,54298.562112987034,54298.562112987034,54298.562112987034,54298.562112987034,54298.562112987034,54298.562112987034,54298.562112987034,54298.562112987034,54298.562112987034,54298.562112987034,54298.562112987034,54298.562112987034,54298.562112987034,54298.562112987034,54298.562112987034,54298.562112987034,54298.562112987034,54298.562112987034,54298.562112987034,54298.562112987034,54298.562112987034,54298.562112987034,54298.562112987034,54298.562112987034,54298.562112987034,54298.562112987034,54298.562112987034,54298.562112987034,54298.562112987034,54298.562112987034,54298.562112987034,54298.562112987034,54298.562112987034,54298.562112987034,54298.562112987034,54298.562112987034,54298.562112987034,54298.562112987034,54298.562112987034,54298.562112987034,54298.562112987034,54298.562112987034,54298.562112987034,54298.562112987034,54298.562112987034,54298.562112987034,54298.562112987034,54298.562112987034,54298.562112987034,54298.562112987034,54298.562112987034,54298.562112987034,54298.562112987034,54298.562112987034,54298.562112987034,54298.562112987034,54298.562112987034,54298.562112987034,54298.562112987034,54298.562112987034,54298.562112987034,54298.562112987034,54298.562112987034,54298.562112987034,54298.562112987034,54298.562112987034,54298.562112987034,54298.562112987034,54298.562112987034,54298.562112987034,54298.562112987034,54298.562112987034,54298.562112987034,54298.562112987034,54298.562112987034,54298.562112987034,54298.562112987034,54298.562112987034,54298.562112987034,54298.562112987034,54298.562112987034,54298.562112987034,54298.562112987034,54298.562112987034,54298.562112987034,54298.562112987034,54298.562112987034,54298.562112987034,54298.562112987034,54298.562112987034,54298.562112987034,54298.562112987034,54298.562112987034,54298.562112987034,54298.562112987034,54298.562112987034,54298.562112987034,54298.562112987034,54298.562112987034,54298.562112987034,54298.562112987034,54298.562112987034,54298.562112987034,54298.562112987034,54298.562112987034,54298.562112987034,54298.562112987034,54298.562112987034,54298.562112987034,54298.562112987034,54298.562112987034,54298.562112987034,54298.562112987034,54298.562112987034,54298.562112987034,54298.562112987034,54298.562112987034,54298.562112987034,54298.562112987034,54298.562112987034,54298.562112987034,54298.562112987034,54298.562112987034,54298.562112987034,54298.562112987034,54298.562112987034,54298.562112987034,54298.562112987034,54298.562112987034,54298.562112987034,54298.562112987034,54298.562112987034,54298.562112987034,54298.562112987034,54298.562112987034,54298.562112987034,54298.562112987034,54298.562112987034,54298.562112987034,54298.562112987034,54298.562112987034,54298.562112987034,54298.562112987034,54298.562112987034,54298.562112987034,54298.562112987034,54298.562112987034,54298.562112987034,54298.562112987034,54298.562112987034,54298.562112987034,54298.562112987034,54298.562112987034,54298.562112987034,54298.562112987034,54298.562112987034,54298.562112987034,54298.562112987034,54298.562112987034,54298.562112987034,54298.562112987034,54298.562112987034,54298.562112987034,54298.562112987034,54298.562112987034,54298.562112987034,54298.562112987034,54298.562112987034,54298.562112987034,54298.562112987034,54298.562112987034,54298.562112987034,54298.562112987034,54298.562112987034,54298.562112987034,54298.562112987034,54298.562112987034,54298.562112987034,54298.562112987034,54298.562112987034,54298.562112987034,54298.562112987034,54298.562112987034,54298.562112987034,54298.562112987034,54298.562112987034,54298.562112987034,54298.562112987034,54298.562112987034,54298.562112987034,54298.562112987034,54298.562112987034,54298.562112987034,54298.562112987034,54298.562112987034,54298.562112987034,54298.562112987034,54298.562112987034,54298.562112987034,54298.562112987034,54298.562112987034,54298.562112987034,54298.562112987034,54298.562112987034,54298.562112987034,54298.562112987034,54298.562112987034,54298.562112987034,54298.562112987034,54298.562112987034,54298.562112987034,54298.562112987034,54298.562112987034,54298.562112987034,54298.562112987034,54298.562112987034,54298.562112987034,54298.562112987034,54298.562112987034,54298.562112987034,54298.562112987034,54298.562112987034,54298.562112987034,54298.562112987034,54298.562112987034,54298.562112987034,54298.562112987034,54298.562112987034,54298.562112987034,54298.562112987034,54298.562112987034,54298.562112987034,54298.562112987034,54298.562112987034,54298.562112987034,54298.562112987034,54298.562112987034,54298.562112987034,54298.562112987034,54298.562112987034,54298.562112987034,54298.562112987034,54298.562112987034,54298.562112987034,54298.562112987034,54298.562112987034,54298.562112987034,54298.562112987034,54298.562112987034,54298.562112987034,54298.562112987034,54298.562112987034,54298.562112987034,54298.562112987034,54298.562112987034,54298.562112987034,54298.562112987034,54298.562112987034,54298.562112987034,54298.562112987034,54298.562112987034,54298.562112987034,54298.562112987034,54298.562112987034,54298.562112987034,54298.562112987034,54298.562112987034,54298.562112987034,54298.562112987034,54298.562112987034,54298.562112987034,54298.562112987034,54298.562112987034,54298.562112987034,54298.562112987034,54298.562112987034,54298.562112987034,54298.562112987034,54298.562112987034,54298.562112987034,54298.562112987034,54298.562112987034,54298.562112987034,54298.562112987034,54298.562112987034,54298.562112987034,54298.562112987034,54298.562112987034,54298.562112987034,54298.562112987034,54298.562112987034,54298.562112987034,54298.562112987034,54298.562112987034,54298.562112987034,54298.562112987034,54298.562112987034,54298.562112987034,54298.562112987034,54298.562112987034,54298.562112987034,54298.562112987034,54298.562112987034,54298.562112987034,54298.562112987034,54298.562112987034,54298.562112987034,54298.562112987034,54298.562112987034,54298.562112987034,54298.562112987034,54298.562112987034,54298.562112987034,54298.562112987034,54298.562112987034,54298.562112987034,54298.562112987034,54298.562112987034,54298.562112987034,54298.562112987034,54298.562112987034,54298.562112987034,54298.562112987034,54298.562112987034,54298.562112987034,54298.562112987034,54298.562112987034,54298.562112987034,54298.562112987034,54298.562112987034,54298.562112987034,54298.562112987034,54298.562112987034,54298.562112987034,54298.562112987034,54298.562112987034,54298.562112987034,54298.562112987034,54298.562112987034,54298.562112987034,54298.562112987034,54298.562112987034,54298.562112987034,54298.562112987034,54298.562112987034,54298.562112987034,54298.562112987034,54298.562112987034,54298.562112987034,54298.562112987034,54298.562112987034,54298.562112987034,54298.562112987034,54298.562112987034,54298.562112987034,54298.562112987034,54298.562112987034,54298.562112987034,54298.562112987034,54298.562112987034,54298.562112987034,54298.562112987034,54298.562112987034,54298.562112987034,54298.562112987034,54298.562112987034,54298.562112987034,54298.562112987034,54298.562112987034,54298.562112987034,54298.562112987034,54298.562112987034,54298.562112987034,54298.562112987034,54298.562112987034,54298.562112987034,54298.562112987034,54298.562112987034,54298.562112987034,54298.562112987034,54298.562112987034,54298.562112987034,54298.562112987034,54298.562112987034,54298.562112987034,54298.562112987034,54298.562112987034,54298.562112987034,54298.562112987034,54298.562112987034,54298.562112987034,54298.562112987034,54298.562112987034,54298.562112987034,54298.562112987034,54298.562112987034,54298.562112987034,54298.562112987034,54298.562112987034,54298.562112987034,54298.562112987034,54298.562112987034,54298.562112987034,54298.562112987034,54298.562112987034,54298.562112987034,54298.562112987034,54298.562112987034,54298.562112987034,54298.562112987034,54298.562112987034,54298.562112987034,54298.562112987034,54298.562112987034,54298.562112987034,54298.562112987034,54298.562112987034,54298.562112987034,54298.562112987034,54298.562112987034,54298.562112987034,54298.562112987034,54298.56211298703,54298.56211298703,54298.56211298703,54298.56211298703,54298.56211298703,54298.56211298703,54298.56211298703,54298.56211298703,54298.56211298703,54298.56211298703,54298.56211298703,54298.56211298703,54298.56211298703,54298.56211298703,54298.56211298703,54298.56211298703,54298.56211298703,54298.56211298703,54298.56211298703,54298.56211298703,54298.56211298703,54298.56211298703,54298.56211298703,54298.56211298703,54298.56211298703,54298.56211298703,54298.56211298703,54298.56211298703,54298.56211298703,54298.56211298703,54298.56211298703,54298.56211298703,54298.56211298703,54298.56211298703,54298.56211298703,54298.56211298703,54298.56211298703,54298.56211298703,54298.56211298703,54298.56211298703,54298.56211298703,54298.56211298703,54298.56211298703,54298.56211298703,54298.56211298703,54298.56211298703,54298.56211298703,54298.56211298703,54298.56211298703,54298.56211298703,54298.56211298703,54298.56211298703,54298.56211298703,54298.56211298703,54298.56211298703,54298.56211298703,54298.56211298703,54298.56211298703,54298.56211298703,54298.56211298703,54298.56211298703,54298.56211298703,54298.56211298703,54298.56211298703,54298.56211298703,54298.56211298703,54298.56211298703,54298.56211298703,54298.56211298703,54298.56211298703,54298.56211298703,54298.56211298703,54298.56211298703,54298.56211298703,54298.56211298703,54298.56211298703,54298.56211298703,54298.56211298703,54298.56211298703,54298.56211298703,54298.56211298703,54298.56211298703,54298.56211298703,54298.56211298703,54298.56211298703,54298.56211298703,54298.56211298703,54298.56211298703,54298.56211298703,54298.56211298703,54298.56211298703,54298.56211298703,54298.56211298703,54298.56211298703,54298.56211298703,54298.56211298703,54298.56211298703,54298.56211298703,54298.56211298703,54298.56211298703,54298.56211298703,54298.56211298703,54298.56211298703,54298.56211298703,54298.56211298703,54298.56211298703,54298.56211298703,54298.56211298703,54298.56211298703,54298.56211298703,54298.56211298703,54298.56211298703,54298.56211298703,54298.56211298703,54298.56211298703,54298.56211298703,54298.56211298703,54298.56211298703,54298.56211298703,54298.56211298703,54298.56211298703,54298.56211298703,54298.56211298703,54298.56211298703,54298.56211298703,54298.56211298703,54298.56211298703,54298.56211298703,54298.56211298703,54298.56211298703,54298.56211298703,54298.56211298703,54298.56211298703,54298.56211298703,54298.56211298703,54298.56211298703,54298.56211298703,54298.56211298703,54298.56211298703,54298.56211298703,54298.56211298703,54298.56211298703,54298.56211298703,54298.56211298703,54298.56211298703,54298.56211298703,54298.56211298703,54298.56211298703,54298.56211298703,54298.56211298703,54298.56211298703,54298.56211298703,54298.56211298703,54298.56211298703,54298.56211298703,54298.56211298703,54298.56211298703,54298.56211298703,54298.56211298703,54298.56211298703,54298.56211298703,54298.56211298703,54298.56211298703,54298.56211298703,54298.56211298703,54298.56211298703,54298.56211298703,54298.56211298703,54298.56211298703,54298.56211298703,54298.56211298703,54298.56211298703,54298.56211298703,54298.56211298703,54298.56211298703,54298.56211298703,54298.56211298703,54298.56211298703,54298.56211298703,54298.56211298703,54298.56211298703,54298.56211298703,54298.56211298703,54298.56211298703,54298.56211298703,54298.56211298703,54298.56211298703,54298.56211298703,54298.56211298703,54298.56211298703,54298.56211298703,54298.56211298703,54298.56211298703,54298.56211298703,54298.56211298703,54298.56211298703,54298.56211298703,54298.56211298703,54298.56211298703,54298.56211298703,54298.56211298703,54298.56211298703,54298.56211298703,54298.56211298703,54298.56211298703,54298.56211298703,54298.56211298703,54298.56211298703,54298.56211298703,54298.56211298703,54298.56211298703,54298.56211298703,54298.56211298703,54298.56211298703,54298.56211298703,54298.56211298703,54298.56211298703,54298.56211298703,54298.56211298703,54298.56211298703,54298.56211298703,54298.56211298703,54298.56211298703,54298.56211298703,54298.56211298703,54298.56211298703,54298.56211298703,54298.56211298703,54298.56211298703,54298.56211298703,54298.56211298703,54298.56211298703,54298.56211298703,54298.56211298703,54298.56211298703,54298.56211298703,54298.56211298703,54298.56211298703,54298.56211298703,54298.56211298703,54298.56211298703,54298.56211298703,54298.56211298703,54298.56211298703,54298.56211298703,54298.56211298703,54298.56211298703,54298.56211298703,54298.56211298703,54298.56211298703,54298.56211298703,54298.56211298703
1,1589.2458303890753,1589.2458303890753,1589.2458303890755,1589.2458303890755,1589.2458303890755,1589.2458303890758,1589.2458303890758,1589.2458303890758,1589.245830389076,1589.245830389076,1589.245830389076,1589.245830389076,1589.2458303890762,1589.2458303890762,1589.2458303890762,1589.2458303890764,1589.2458303890764,1589.2458303890764,1589.2458303890767,1589.2458303890767,1589.2458303890767,1589.245830389077,1589.245830389077,1589.245830389077,1589.2458303890771,1589.2458303890771,1589.2458303890771,1589.2458303890771,1589.2458303890774,1589.2458303890774,1589.2458303890774,1589.2458303890776,1589.2458303890776,1589.2458303890776,1589.2458303890778,1589.2458303890778,1589.2458303890778,1589.245830389078,1589.245830389078,1589.245830389078,1589.245830389078,1589.2458303890783,1589.2458303890783,1589.2458303890783,1589.2458303890785,1589.2458303890785,1589.2458303890785,1589.2458303890787,1589.2458303890787,1589.2458303890787,1589.2458303890787,1589.245830389079,1589.245830389079,1589.245830389079,1589.2458303890792,1589.2458303890792,1589.2458303890792,1589.2458303890794,1589.2458303890794,1589.2458303890794,1589.2458303890794,1589.2458303890796,1589.2458303890796,1589.2458303890796,1589.2458303890799,1589.2458303890799,1589.2458303890799,1589.24583038908,1589.24583038908,1589.24583038908,1589.24583038908,1589.2458303890803,1589.2458303890803,1589.2458303890803,1589.2458303890805,1589.2458303890805,1589.2458303890805,1589.2458303890805,1589.2458303890808,1589.2458303890808,1589.2458303890808,1589.245830389081,1589.245830389081,1589.245830389081,1589.2458303890812,1589.2458303890812,1589.2458303890812,1589.2458303890812,1589.2458303890814,1589.2458303890814,1589.2458303890814,1589.2458303890817,1589.2458303890817,1589.2458303890817,1589.2458303890817,1589.245830389082,1589.245830389082,1589.245830389082,1589.2458303890821,1589.2458303890821,1589.2458303890821,1589.2458303890821,1589.2458303890824,1589.2458303890824,1589.2458303890824,1589.2458303890826,1589.2458303890826,1589.2458303890826,1589.2458303890826,1589.2458303890828,1589.2458303890828,1589.2458303890828,1589.245830389083,1589.245830389083,1589.245830389083,1589.245830389083,1589.2458303890833,1589.2458303890833,1589.2458303890833,1589.2458303890833,1589.2458303890835,1589.2458303890835,1589.2458303890835,1589.2458303890837,1589.2458303890837,1589.2458303890837,1589.2458303890837,1589.245830389084,1589.245830389084,1589.245830389084,1589.2458303890842,1589.2458303890842,1589.2458303890842,1589.2458303890842,1589.2458303890844,1589.2458303890844,1589.2458303890844,1589.2458303890844,1589.2458303890846,1589.2458303890846,1589.2458303890846,1589.2458303890849,1589.2458303890849,1589.2458303890849,1589.2458303890849,1589.245830389085,1589.245830389085,1589.245830389085,1589.245830389085,1589.2458303890853,1589.2458303890853,1589.2458303890853,1589.2458303890855,1589.2458303890855,1589.2458303890855,1589.2458303890855,1589.2458303890858,1589.2458303890858,1589.2458303890858,1589.2458303890858,1589.245830389086,1589.245830389086,1589.245830389086,1589.245830389086,1589.2458303890862,1589.2458303890862,1589.2458303890862,1589.2458303890864,1589.2458303890864,1589.2458303890864,1589.2458303890864,1589.2458303890867,1589.2458303890867,1589.2458303890867,1589.2458303890867,1589.245830389087,1589.245830389087,1589.245830389087,1589.245830389087,1589.2458303890871,1589.2458303890871,1589.2458303890871,1589.2458303890874,1589.2458303890874,1589.2458303890874,1589.2458303890874,1589.2458303890876,1589.2458303890876,1589.2458303890876,1589.2458303890876,1589.2458303890878,1589.2458303890878,1589.2458303890878,1589.2458303890878,1589.245830389088,1589.245830389088,1589.245830389088,1589.245830389088,1589.2458303890883,1589.2458303890883,1589.2458303890883,1589.2458303890883,1589.2458303890885,1589.2458303890885,1589.2458303890885,1589.2458303890885,1589.2458303890887,1589.2458303890887,1589.2458303890887,1589.2458303890887,1589.245830389089,1589.245830389089,1589.245830389089,1589.2458303890892,1589.2458303890892,1589.2458303890892,1589.2458303890892,1589.2458303890894,1589.2458303890894,1589.2458303890894,1589.2458303890894,1589.2458303890896,1589.2458303890896,1589.2458303890896,1589.2458303890896,1589.2458303890899,1589.2458303890899,1589.2458303890899,1589.2458303890899,1589.24583038909,1589.24583038909,1589.24583038909,1589.24583038909,1589.2458303890903,1589.2458303890903,1589.2458303890903,1589.2458303890903,1589.2458303890905,1589.2458303890905,1589.2458303890905,1589.2458303890905,1589.2458303890908,1589.2458303890908,1589.2458303890908,1589.2458303890908,1589.245830389091,1589.245830389091,1589.245830389091,1589.245830389091,1589.245830389091,1589.2458303890912,1589.2458303890912,1589.2458303890912,1589.2458303890912,1589.2458303890915,1589.2458303890915,1589.2458303890915,1589.2458303890915,1589.2458303890917,1589.2458303890917,1589.2458303890917,1589.2458303890917,1589.245830389092,1589.245830389092,1589.245830389092,1589.245830389092,1589.2458303890921,1589.2458303890921,1589.2458303890921,1589.2458303890921,1589.2458303890924,1589.2458303890924,1589.2458303890924,1589.2458303890924,1589.2458303890926,1589.2458303890926,1589.2458303890926,1589.2458303890926,1589.2458303890928,1589.2458303890928,1589.2458303890928,1589.2458303890928,1589.2458303890928,1589.245830389093,1589.245830389093,1589.245830389093,1589.245830389093,1589.2458303890933,1589.2458303890933,1589.2458303890933,1589.2458303890933,1589.2458303890935,1589.2458303890935,1589.2458303890935,1589.2458303890935,1589.2458303890937,1589.2458303890937,1589.2458303890937,1589.2458303890937,1589.2458303890937,1589.245830389094,1589.245830389094,1589.245830389094,1589.245830389094,1589.2458303890942,1589.2458303890942,1589.2458303890942,1589.2458303890942,1589.2458303890944,1589.2458303890944,1589.2458303890944,1589.2458303890944,1589.2458303890944,1589.2458303890946,1589.2458303890946,1589.2458303890946,1589.2458303890946,1589.2458303890949,1589.2458303890949,1589.2458303890949,1589.2458303890949,1589.245830389095,1589.245830389095,1589.245830389095,1589.245830389095,1589.245830389095,1589.2458303890953,1589.2458303890953,1589.2458303890953,1589.2458303890953,1589.2458303890955,1589.2458303890955,1589.2458303890955,1589.2458303890955,1589.2458303890955,1589.2458303890958,1589.2458303890958,1589.2458303890958,1589.2458303890958,1589.245830389096,1589.245830389096,1589.245830389096,1589.245830389096,1589.2458303890962,1589.2458303890962,1589.2458303890962,1589.2458303890962,1589.2458303890962,1589.2458303890965,1589.2458303890965,1589.2458303890965,1589.2458303890965,1589.2458303890967,1589.2458303890967,1589.2458303890967,1589.2458303890967,1589.2458303890967,1589.245830389097,1589.245830389097,1589.245830389097,1589.245830389097,1589.2458303890971,1589.2458303890971,1589.2458303890971,1589.2458303890971,1589.2458303890971,1589.2458303890974,1589.2458303890974,1589.2458303890974,1589.2458303890974,1589.2458303890974,1589.2458303890976,1589.2458303890976,1589.2458303890976,1589.2458303890976,1589.2458303890978,1589.2458303890978,1589.2458303890978,1589.2458303890978,1589.2458303890978,1589.245830389098,1589.245830389098,1589.245830389098,1589.245830389098,1589.2458303890983,1589.2458303890983,1589.2458303890983,1589.2458303890983,1589.2458303890983,1589.2458303890985,1589.2458303890985,1589.2458303890985,1589.2458303890985,1589.2458303890985,1589.2458303890987,1589.2458303890987,1589.2458303890987,1589.2458303890987,1589.245830389099,1589.245830389099,1589.245830389099,1589.245830389099,1589.245830389099,1589.2458303890992,1589.2458303890992,1589.2458303890992,1589.2458303890992,1589.2458303890992,1589.2458303890994,1589.2458303890994,1589.2458303890994,1589.2458303890994,1589.2458303890996,1589.2458303890996,1589.2458303890996,1589.2458303890996,1589.2458303890996,1589.2458303890999,1589.2458303890999,1589.2458303890999,1589.2458303890999,1589.2458303890999,1589.2458303891,1589.2458303891,1589.2458303891,1589.2458303891,1589.2458303891,1589.2458303891003,1589.2458303891003,1589.2458303891003,1589.2458303891003,1589.2458303891003,1589.2458303891005,1589.2458303891005,1589.2458303891005,1589.2458303891005,1589.2458303891005,1589.2458303891008,1589.2458303891008,1589.2458303891008,1589.2458303891008,1589.245830389101,1589.245830389101,1589.245830389101,1589.245830389101,1589.245830389101,1589.2458303891012,1589.2458303891012,1589.2458303891012,1589.2458303891012,1589.2458303891012,1589.2458303891015,1589.2458303891015,1589.2458303891015,1589.2458303891015,1589.2458303891015,1589.2458303891017,1589.2458303891017,1589.2458303891017,1589.2458303891017,1589.2458303891017,1589.245830389102,1589.245830389102,1589.245830389102,1589.245830389102,1589.245830389102,1589.2458303891021,1589.2458303891021,1589.2458303891021,1589.2458303891021,1589.2458303891021,1589.2458303891024,1589.2458303891024,1589.2458303891024,1589.2458303891024,1589.2458303891024,1589.2458303891026,1589.2458303891026,1589.2458303891026,1589.2458303891026,1589.2458303891026,1589.2458303891028,1589.2458303891028,1589.2458303891028,1589.2458303891028,1589.2458303891028,1589.245830389103,1589.245830389103,1589.245830389103,1589.245830389103,1589.245830389103,1589.2458303891033,1589.2458303891033,1589.2458303891033,1589.2458303891033,1589.2458303891033,1589.2458303891035,1589.2458303891035,1589.2458303891035,1589.2458303891035,1589.2458303891035,1589.2458303891037,1589.2458303891037,1589.2458303891037,1589.2458303891037,1589.2458303891037,1589.2458303891037,1589.245830389104,1589.245830389104,1589.245830389104,1589.245830389104,1589.245830389104,1589.2458303891042,1589.2458303891042,1589.2458303891042,1589.2458303891042,1589.2458303891042,1589.2458303891044,1589.2458303891044,1589.2458303891044,1589.2458303891044,1589.2458303891044,1589.2458303891046,1589.2458303891046,1589.2458303891046,1589.2458303891046,1589.2458303891046,1589.2458303891046,1589.2458303891049,1589.2458303891049,1589.2458303891049,1589.2458303891049,1589.2458303891049,1589.245830389105,1589.245830389105,1589.245830389105,1589.245830389105,1589.245830389105,1589.2458303891053,1589.2458303891053,1589.2458303891053,1589.2458303891053,1589.2458303891053,1589.2458303891055,1589.2458303891055,1589.2458303891055,1589.2458303891055,1589.2458303891055,1589.2458303891055,1589.2458303891058,1589.2458303891058,1589.2458303891058,1589.2458303891058,1589.2458303891058,1589.245830389106,1589.245830389106,1589.245830389106,1589.245830389106,1589.245830389106,1589.245830389106,1589.2458303891062,1589.2458303891062,1589.2458303891062,1589.2458303891062,1589.2458303891062,1589.2458303891065,1589.2458303891065,1589.2458303891065,1589.2458303891065,1589.2458303891065,1589.2458303891067,1589.2458303891067,1589.2458303891067,1589.2458303891067,1589.2458303891067,1589.2458303891067,1589.245830389107,1589.245830389107,1589.245830389107,1589.245830389107,1589.245830389107,1589.2458303891071,1589.2458303891071,1589.2458303891071,1589.2458303891071,1589.2458303891071,1589.2458303891071,1589.2458303891074,1589.2458303891074,1589.2458303891074,1589.2458303891074,1589.2458303891074,1589.2458303891076,1589.2458303891076,1589.2458303891076,1589.2458303891076,1589.2458303891076,1589.2458303891076,1589.2458303891078,1589.2458303891078,1589.2458303891078,1589.2458303891078,1589.2458303891078,1589.2458303891078,1589.245830389108,1589.245830389108,1589.245830389108,1589.245830389108,1589.245830389108,1589.2458303891083,1589.2458303891083,1589.2458303891083,1589.2458303891083,1589.2458303891083,1589.2458303891083,1589.2458303891085,1589.2458303891085,1589.2458303891085,1589.2458303891085,1589.2458303891085,1589.2458303891085,1589.2458303891087,1589.2458303891087,1589.2458303891087,1589.2458303891087,1589.2458303891087,1589.245830389109,1589.245830389109,1589.245830389109,1589.245830389109,1589.245830389109,1589.245830389109,1589.2458303891092,1589.2458303891092,1589.2458303891092,1589.2458303891092,1589.2458303891092,1589.2458303891092,1589.2458303891094,1589.2458303891094,1589.2458303891094,1589.2458303891094,1589.2458303891094,1589.2458303891096,1589.2458303891096,1589.2458303891096,1589.2458303891096,1589.2458303891096,1589.2458303891096,1589.2458303891099,1589.2458303891099,1589.2458303891099,1589.2458303891099,1589.2458303891099,1589.2458303891099,1589.24583038911,1589.24583038911,1589.24583038911,1589.24583038911,1589.24583038911,1589.24583038911,1589.2458303891103,1589.2458303891103,1589.2458303891103,1589.2458303891103,1589.2458303891103,1589.2458303891103,1589.2458303891106,1589.2458303891106,1589.2458303891106,1589.2458303891106,1589.2458303891106,1589.2458303891106,1589.2458303891108,1589.2458303891108,1589.2458303891108,1589.2458303891108,1589.2458303891108,1589.2458303891108,1589.245830389111,1589.245830389111,1589.245830389111,1589.245830389111,1589.245830389111,1589.245830389111,1589.2458303891112,1589.2458303891112,1589.2458303891112,1589.2458303891112,1589.2458303891112,1589.2458303891112,1589.2458303891115,1589.2458303891115,1589.2458303891115,1589.2458303891115,1589.2458303891115,1589.2458303891115,1589.2458303891117,1589.2458303891117,1589.2458303891117,1589.2458303891117,1589.2458303891117,1589.2458303891117,1589.245830389112,1589.245830389112,1589.245830389112,1589.245830389112,1589.245830389112,1589.245830389112,1589.2458303891121,1589.2458303891121,1589.2458303891121,1589.2458303891121,1589.2458303891121,1589.2458303891121,1589.2458303891124,1589.2458303891124,1589.2458303891124,1589.2458303891124,1589.2458303891124,1589.2458303891124,1589.2458303891126,1589.2458303891126,1589.2458303891126,1589.2458303891126,1589.2458303891126,1589.2458303891126,1589.2458303891128,1589.2458303891128,1589.2458303891128,1589.2458303891128,1589.2458303891128,1589.2458303891128,1589.2458303891128,1589.245830389113,1589.245830389113,1589.245830389113,1589.245830389113,1589.245830389113,1589.245830389113,1589.2458303891133,1589.2458303891133,1589.2458303891133,1589.2458303891133,1589.2458303891133,1589.2458303891133,1589.2458303891135,1589.2458303891135,1589.2458303891135,1589.2458303891135,1589.2458303891135,1589.2458303891135,1589.2458303891135,1589.2458303891137,1589.2458303891137,1589.2458303891137,1589.2458303891137,1589.2458303891137,1589.2458303891137,1589.245830389114,1589.245830389114,1589.245830389114,1589.245830389114,1589.245830389114,1589.245830389114,1589.2458303891142,1589.2458303891142,1589.2458303891142,1589.2458303891142,1589.2458303891142,1589.2458303891142,1589.2458303891142,1589.2458303891144,1589.2458303891144,1589.2458303891144,1589.2458303891144,1589.2458303891144,1589.2458303891144,1589.2458303891146,1589.2458303891146,1589.2458303891146,1589.2458303891146,1589.2458303891146,1589.2458303891146,1589.2458303891146,1589.2458303891149,1589.2458303891149,1589.2458303891149,1589.2458303891149,1589.2458303891149,1589.2458303891149,1589.245830389115,1589.245830389115,1589.245830389115,1589.245830389115,1589.245830389115,1589.245830389115,1589.245830389115,1589.2458303891153,1589.2458303891153,1589.2458303891153,1589.2458303891153,1589.2458303891153,1589.2458303891153,1589.2458303891156,1589.2458303891156,1589.2458303891156,1589.2458303891156,1589.2458303891156,1589.2458303891156,1589.2458303891156,1589.2458303891158,1589.2458303891158,1589.2458303891158,1589.2458303891158,1589.2458303891158,1589.2458303891158,1589.245830389116,1589.245830389116,1589.245830389116,1589.245830389116,1589.245830389116,1589.245830389116,1589.245830389116,1589.2458303891162,1589.2458303891162,1589.2458303891162,1589.2458303891162,1589.2458303891162,1589.2458303891162,1589.2458303891162,1589.2458303891165,1589.2458303891165,1589.2458303891165,1589.2458303891165,1589.2458303891165,1589.2458303891165,1589.2458303891165,1589.2458303891167,1589.2458303891165,1589.2458303891162,1589.2458303891162,1589.245830389116,1589.245830389116,1589.2458303891158,1589.2458303891156,1589.2458303891156,1589.2458303891153,1589.245830389115,1589.245830389115,1589.2458303891149,1589.2458303891149,1589.2458303891146,1589.2458303891144,1589.2458303891144,1589.2458303891142,1589.245830389114,1589.245830389114,1589.2458303891137,1589.2458303891137,1589.2458303891135,1589.2458303891133,1589.2458303891133,1589.245830389113,1589.2458303891128,1589.2458303891128,1589.2458303891126,1589.2458303891126,1589.2458303891124,1589.2458303891121,1589.2458303891121,1589.245830389112,1589.245830389112,1589.2458303891117,1589.2458303891115,1589.2458303891115,1589.2458303891112,1589.2458303891112,1589.245830389111,1589.2458303891108,1589.2458303891108,1589.2458303891106,1589.2458303891103,1589.2458303891103,1589.24583038911,1589.24583038911,1589.2458303891099,1589.2458303891096,1589.2458303891096,1589.2458303891094,1589.2458303891094,1589.2458303891092,1589.245830389109,1589.245830389109,1589.2458303891087,1589.2458303891087,1589.2458303891085,1589.2458303891083,1589.2458303891083,1589.245830389108,1589.245830389108,1589.2458303891078,1589.2458303891076,1589.2458303891076,1589.2458303891074,1589.2458303891074,1589.2458303891071,1589.245830389107,1589.245830389107,1589.2458303891067,1589.2458303891067,1589.2458303891065,1589.2458303891062,1589.2458303891062,1589.245830389106,1589.245830389106,1589.2458303891058,1589.2458303891055,1589.2458303891055,1589.2458303891053,1589.2458303891053,1589.245830389105,1589.245830389105
2,-0.03179952002582961,-0.03179952002582961,-0.03179952002582961,-0.03179952002582961,-0.0317995200258296,-0.0317995200258296,-0.0317995200258296,-0.0317995200258296,-0.0317995200258296,-0.0317995200258296,-0.0317995200258296,-0.0317995200258296,-0.03179952002582959,-0.03179952002582959,-0.03179952002582959,-0.03179952002582959,-0.03179952002582959,-0.03179952002582959,-0.03179952002582959,-0.03179952002582959,-0.031799520025829586,-0.031799520025829586,-0.031799520025829586,-0.031799520025829586,-0.031799520025829586,-0.031799520025829586,-0.031799520025829586,-0.031799520025829586,-0.031799520025829586,-0.03179952002582958,-0.03179952002582958,-0.03179952002582958,-0.03179952002582958,-0.03179952002582958,-0.03179952002582958,-0.03179952002582958,-0.03179952002582958,-0.03179952002582957,-0.03179952002582957,-0.03179952002582957,-0.03179952002582957,-0.03179952002582957,-0.03179952002582957,-0.03179952002582957,-0.03179952002582957,-0.03179952002582957,-0.031799520025829565,-0.031799520025829565,-0.031799520025829565,-0.031799520025829565,-0.031799520025829565,-0.031799520025829565,-0.031799520025829565,-0.031799520025829565,-0.031799520025829565,-0.03179952002582956,-0.03179952002582956,-0.03179952002582956,-0.03179952002582956,-0.03179952002582956,-0.03179952002582956,-0.03179952002582956,-0.03179952002582956,-0.03179952002582956,-0.03179952002582955,-0.03179952002582955,-0.03179952002582955,-0.03179952002582955,-0.03179952002582955,-0.03179952002582955,-0.03179952002582955,-0.03179952002582955,-0.031799520025829545,-0.031799520025829545,-0.031799520025829545,-0.031799520025829545,-0.031799520025829545,-0.031799520025829545,-0.031799520025829545,-0.031799520025829545,-0.031799520025829545,-0.03179952002582954,-0.03179952002582954,-0.03179952002582954,-0.03179952002582954,-0.03179952002582954,-0.03179952002582954,-0.03179952002582954,-0.03179952002582954,-0.03179952002582954,-0.03179952002582953,-0.03179952002582953,-0.03179952002582953,-0.03179952002582953,-0.03179952002582953,-0.03179952002582953,-0.03179952002582953,-0.03179952002582953,-0.03179952002582953,-0.031799520025829524,-0.031799520025829524,-0.031799520025829524,-0.031799520025829524,-0.031799520025829524,-0.031799520025829524,-0.031799520025829524,-0.031799520025829524,-0.031799520025829524,-0.031799520025829524,-0.03179952002582952,-0.03179952002582952,-0.03179952002582952,-0.03179952002582952,-0.03179952002582952,-0.03179952002582952,-0.03179952002582952,-0.03179952002582952,-0.03179952002582952,-0.03179952002582951,-0.03179952002582951,-0.03179952002582951,-0.03179952002582951,-0.03179952002582951,-0.03179952002582951,-0.03179952002582951,-0.03179952002582951,-0.03179952002582951,-0.0317995200258295,-0.0317995200258295,-0.0317995200258295,-0.0317995200258295,-0.0317995200258295,-0.0317995200258295,-0.0317995200258295,-0.0317995200258295,-0.0317995200258295,-0.0317995200258295,-0.031799520025829496,-0.031799520025829496,-0.031799520025829496,-0.031799520025829496,-0.031799520025829496,-0.031799520025829496,-0.031799520025829496,-0.031799520025829496,-0.031799520025829496,-0.03179952002582949,-0.03179952002582949,-0.03179952002582949,-0.03179952002582949,-0.03179952002582949,-0.03179952002582949,-0.03179952002582949,-0.03179952002582949,-0.03179952002582949,-0.03179952002582949,-0.03179952002582948,-0.03179952002582948,-0.03179952002582948,-0.03179952002582948,-0.03179952002582948,-0.03179952002582948,-0.03179952002582948,-0.03179952002582948,-0.03179952002582948,-0.03179952002582948,-0.031799520025829475,-0.031799520025829475,-0.031799520025829475,-0.031799520025829475,-0.031799520025829475,-0.031799520025829475,-0.031799520025829475,-0.031799520025829475,-0.031799520025829475,-0.031799520025829475,-0.03179952002582947,-0.03179952002582947,-0.03179952002582947,-0.03179952002582947,-0.03179952002582947,-0.03179952002582947,-0.03179952002582947,-0.03179952002582947,-0.03179952002582947,-0.03179952002582947,-0.03179952002582946,-0.03179952002582946,-0.03179952002582946,-0.03179952002582946,-0.03179952002582946,-0.03179952002582946,-0.03179952002582946,-0.03179952002582946,-0.03179952002582946,-0.03179952002582946,-0.031799520025829454,-0.031799520025829454,-0.031799520025829454,-0.031799520025829454,-0.031799520025829454,-0.031799520025829454,-0.031799520025829454,-0.031799520025829454,-0.031799520025829454,-0.031799520025829454,-0.03179952002582945,-0.03179952002582945,-0.03179952002582945,-0.03179952002582945,-0.03179952002582945,-0.03179952002582945,-0.03179952002582945,-0.03179952002582945,-0.03179952002582945,-0.03179952002582945,-0.03179952002582945,-0.03179952002582945,-0.03179952002582945,-0.03179952002582945,-0.03179952002582945,-0.03179952002582944,-0.03179952002582944,-0.03179952002582944,-0.03179952002582944,-0.03179952002582944,-0.03179952002582944,-0.03179952002582944,-0.03179952002582944,-0.03179952002582944,-0.03179952002582944,-0.03179952002582944,-0.031799520025829434,-0.031799520025829434,-0.031799520025829434,-0.031799520025829434,-0.031799520025829434,-0.031799520025829434,-0.031799520025829434,-0.031799520025829434,-0.031799520025829434,-0.031799520025829434,-0.03179952002582943,-0.03179952002582943,-0.03179952002582943,-0.03179952002582943,-0.03179952002582943,-0.03179952002582943,-0.03179952002582943,-0.03179952002582943,-0.03179952002582943,-0.03179952002582943,-0.03179952002582943,-0.03179952002582942,-0.03179952002582942,-0.03179952002582942,-0.03179952002582942,-0.03179952002582942,-0.03179952002582942,-0.03179952002582942,-0.03179952002582942,-0.03179952002582942,-0.03179952002582942,-0.03179952002582942,-0.03179952002582941,-0.03179952002582941,-0.03179952002582941,-0.03179952002582941,-0.03179952002582941,-0.03179952002582941,-0.03179952002582941,-0.03179952002582941,-0.03179952002582941,-0.03179952002582941,-0.031799520025829406,-0.031799520025829406,-0.031799520025829406,-0.031799520025829406,-0.031799520025829406,-0.031799520025829406,-0.031799520025829406,-0.031799520025829406,-0.031799520025829406,-0.031799520025829406,-0.031799520025829406,-0.0317995200258294,-0.0317995200258294,-0.0317995200258294,-0.0317995200258294,-0.0317995200258294,-0.0317995200258294,-0.0317995200258294,-0.0317995200258294,-0.0317995200258294,-0.0317995200258294,-0.0317995200258294,-0.03179952002582939,-0.03179952002582939,-0.03179952002582939,-0.03179952002582939,-0.03179952002582939,-0.03179952002582939,-0.03179952002582939,-0.03179952002582939,-0.03179952002582939,-0.03179952002582939,-0.03179952002582939,-0.03179952002582939,-0.031799520025829385,-0.031799520025829385,-0.031799520025829385,-0.031799520025829385,-0.031799520025829385,-0.031799520025829385,-0.031799520025829385,-0.031799520025829385,-0.031799520025829385,-0.031799520025829385,-0.031799520025829385,-0.03179952002582938,-0.03179952002582938,-0.03179952002582938,-0.03179952002582938,-0.03179952002582938,-0.03179952002582938,-0.03179952002582938,-0.03179952002582938,-0.03179952002582938,-0.03179952002582938,-0.03179952002582938,-0.03179952002582937,-0.03179952002582937,-0.03179952002582937,-0.03179952002582937,-0.03179952002582937,-0.03179952002582937,-0.03179952002582937,-0.03179952002582937,-0.03179952002582937,-0.03179952002582937,-0.03179952002582937,-0.03179952002582937,-0.031799520025829364,-0.031799520025829364,-0.031799520025829364,-0.031799520025829364,-0.031799520025829364,-0.031799520025829364,-0.031799520025829364,-0.031799520025829364,-0.031799520025829364,-0.031799520025829364,-0.031799520025829364,-0.031799520025829364,-0.03179952002582936,-0.03179952002582936,-0.03179952002582936,-0.03179952002582936,-0.03179952002582936,-0.03179952002582936,-0.03179952002582936,-0.03179952002582936,-0.03179952002582936,-0.03179952002582936,-0.03179952002582936,-0.03179952002582935,-0.03179952002582935,-0.03179952002582935,-0.03179952002582935,-0.03179952002582935,-0.03179952002582935,-0.03179952002582935,-0.03179952002582935,-0.03179952002582935,-0.03179952002582935,-0.03179952002582935,-0.03179952002582935,-0.03179952002582934,-0.03179952002582934,-0.03179952002582934,-0.03179952002582934,-0.03179952002582934,-0.03179952002582934,-0.03179952002582934,-0.03179952002582934,-0.03179952002582934,-0.03179952002582934,-0.03179952002582934,-0.03179952002582934,-0.031799520025829336,-0.031799520025829336,-0.031799520025829336,-0.031799520025829336,-0.031799520025829336,-0.031799520025829336,-0.031799520025829336,-0.031799520025829336,-0.031799520025829336,-0.031799520025829336,-0.031799520025829336,-0.031799520025829336,-0.031799520025829336,-0.03179952002582933,-0.03179952002582933,-0.03179952002582933,-0.03179952002582933,-0.03179952002582933,-0.03179952002582933,-0.03179952002582933,-0.03179952002582933,-0.03179952002582933,-0.03179952002582933,-0.03179952002582933,-0.03179952002582933,-0.03179952002582932,-0.03179952002582932,-0.03179952002582932,-0.03179952002582932,-0.03179952002582932,-0.03179952002582932,-0.03179952002582932,-0.03179952002582932,-0.03179952002582932,-0.03179952002582932,-0.03179952002582932,-0.03179952002582932,-0.031799520025829316,-0.031799520025829316,-0.031799520025829316,-0.031799520025829316,-0.031799520025829316,-0.031799520025829316,-0.031799520025829316,-0.031799520025829316,-0.031799520025829316,-0.031799520025829316,-0.031799520025829316,-0.031799520025829316,-0.031799520025829316,-0.03179952002582931,-0.03179952002582931,-0.03179952002582931,-0.03179952002582931,-0.03179952002582931,-0.03179952002582931,-0.03179952002582931,-0.03179952002582931,-0.03179952002582931,-0.03179952002582931,-0.03179952002582931,-0.03179952002582931,-0.03179952002582931,-0.0317995200258293,-0.0317995200258293,-0.0317995200258293,-0.0317995200258293,-0.0317995200258293,-0.0317995200258293,-0.0317995200258293,-0.0317995200258293,-0.0317995200258293,-0.0317995200258293,-0.0317995200258293,-0.0317995200258293,-0.0317995200258293,-0.031799520025829295,-0.031799520025829295,-0.031799520025829295,-0.031799520025829295,-0.031799520025829295,-0.031799520025829295,-0.031799520025829295,-0.031799520025829295,-0.031799520025829295,-0.031799520025829295,-0.031799520025829295,-0.031799520025829295,-0.031799520025829295,-0.03179952002582929,-0.03179952002582929,-0.03179952002582929,-0.03179952002582929,-0.03179952002582929,-0.03179952002582929,-0.03179952002582929,-0.03179952002582929,-0.03179952002582929,-0.03179952002582929,-0.03179952002582929,-0.03179952002582929,-0.03179952002582929,-0.03179952002582928,-0.03179952002582928,-0.03179952002582928,-0.03179952002582928,-0.03179952002582928,-0.03179952002582928,-0.03179952002582928,-0.03179952002582928,-0.03179952002582928,-0.03179952002582928,-0.03179952002582928,-0.03179952002582928,-0.03179952002582928,-0.031799520025829274,-0.031799520025829274,-0.031799520025829274,-0.031799520025829274,-0.031799520025829274,-0.031799520025829274,-0.031799520025829274,-0.031799520025829274,-0.031799520025829274,-0.031799520025829274,-0.031799520025829274,-0.031799520025829274,-0.031799520025829274,-0.031799520025829274,-0.03179952002582927,-0.03179952002582927,-0.03179952002582927,-0.03179952002582927,-0.03179952002582927,-0.03179952002582927,-0.03179952002582927,-0.03179952002582927,-0.03179952002582927,-0.03179952002582927,-0.03179952002582927,-0.03179952002582927,-0.03179952002582927,-0.03179952002582926,-0.03179952002582926,-0.03179952002582926,-0.03179952002582926,-0.03179952002582926,-0.03179952002582926,-0.03179952002582926,-0.03179952002582926,-0.03179952002582926,-0.03179952002582926,-0.03179952002582926,-0.03179952002582926,-0.03179952002582926,-0.03179952002582926,-0.03179952002582925,-0.03179952002582925,-0.03179952002582925,-0.03179952002582925,-0.03179952002582925,-0.03179952002582925,-0.03179952002582925,-0.03179952002582925,-0.03179952002582925,-0.03179952002582925,-0.03179952002582925,-0.03179952002582925,-0.03179952002582925,-0.03179952002582925,-0.031799520025829246,-0.031799520025829246,-0.031799520025829246,-0.031799520025829246,-0.031799520025829246,-0.031799520025829246,-0.031799520025829246,-0.031799520025829246,-0.031799520025829246,-0.031799520025829246,-0.031799520025829246,-0.031799520025829246,-0.031799520025829246,-0.031799520025829246,-0.03179952002582924,-0.03179952002582924,-0.03179952002582924,-0.03179952002582924,-0.03179952002582924,-0.03179952002582924,-0.03179952002582924,-0.03179952002582924,-0.03179952002582924,-0.03179952002582924,-0.03179952002582924,-0.03179952002582924,-0.03179952002582924,-0.03179952002582924,-0.03179952002582924,-0.03179952002582923,-0.03179952002582923,-0.03179952002582923,-0.03179952002582923,-0.03179952002582923,-0.03179952002582923,-0.03179952002582923,-0.03179952002582923,-0.03179952002582923,-0.03179952002582923,-0.03179952002582923,-0.03179952002582923,-0.03179952002582923,-0.03179952002582923,-0.031799520025829225,-0.031799520025829225,-0.031799520025829225,-0.031799520025829225,-0.031799520025829225,-0.031799520025829225,-0.031799520025829225,-0.031799520025829225,-0.031799520025829225,-0.031799520025829225,-0.031799520025829225,-0.031799520025829225,-0.031799520025829225,-0.031799520025829225,-0.031799520025829225,-0.03179952002582922,-0.03179952002582922,-0.03179952002582922,-0.03179952002582922,-0.03179952002582922,-0.03179952002582922,-0.03179952002582922,-0.03179952002582922,-0.03179952002582922,-0.03179952002582922,-0.03179952002582922,-0.03179952002582922,-0.03179952002582922,-0.03179952002582922,-0.03179952002582922,-0.03179952002582921,-0.03179952002582921,-0.03179952002582921,-0.03179952002582921,-0.03179952002582921,-0.03179952002582921,-0.03179952002582921,-0.03179952002582921,-0.03179952002582921,-0.03179952002582921,-0.03179952002582921,-0.03179952002582921,-0.03179952002582921,-0.03179952002582921,-0.03179952002582921,-0.031799520025829205,-0.031799520025829205,-0.031799520025829205,-0.031799520025829205,-0.031799520025829205,-0.031799520025829205,-0.031799520025829205,-0.031799520025829205,-0.031799520025829205,-0.031799520025829205,-0.031799520025829205,-0.031799520025829205,-0.031799520025829205,-0.031799520025829205,-0.031799520025829205,-0.0317995200258292,-0.0317995200258292,-0.0317995200258292,-0.0317995200258292,-0.0317995200258292,-0.0317995200258292,-0.0317995200258292,-0.0317995200258292,-0.0317995200258292,-0.0317995200258292,-0.0317995200258292,-0.0317995200258292,-0.0317995200258292,-0.0317995200258292,-0.0317995200258292,-0.0317995200258292,-0.03179952002582919,-0.03179952002582919,-0.03179952002582919,-0.03179952002582919,-0.03179952002582919,-0.03179952002582919,-0.03179952002582919,-0.03179952002582919,-0.03179952002582919,-0.03179952002582919,-0.03179952002582919,-0.03179952002582919,-0.03179952002582919,-0.03179952002582919,-0.03179952002582919,-0.031799520025829184,-0.031799520025829184,-0.031799520025829184,-0.031799520025829184,-0.031799520025829184,-0.031799520025829184,-0.031799520025829184,-0.031799520025829184,-0.031799520025829184,-0.031799520025829184,-0.031799520025829184,-0.031799520025829184,-0.031799520025829184,-0.031799520025829184,-0.031799520025829184,-0.031799520025829184,-0.03179952002582918,-0.03179952002582918,-0.03179952002582918,-0.03179952002582918,-0.03179952002582918,-0.03179952002582918,-0.03179952002582918,-0.03179952002582918,-0.03179952002582918,-0.03179952002582918,-0.03179952002582918,-0.03179952002582918,-0.03179952002582918,-0.03179952002582918,-0.03179952002582918,-0.03179952002582918,-0.03179952002582917,-0.03179952002582917,-0.03179952002582917,-0.03179952002582917,-0.03179952002582917,-0.03179952002582917,-0.03179952002582917,-0.03179952002582917,-0.03179952002582917,-0.03179952002582917,-0.03179952002582917,-0.03179952002582917,-0.03179952002582917,-0.03179952002582917,-0.03179952002582917,-0.03179952002582917,-0.03179952002582916,-0.03179952002582916,-0.03179952002582916,-0.03179952002582916,-0.03179952002582916,-0.03179952002582916,-0.03179952002582916,-0.03179952002582916,-0.03179952002582916,-0.03179952002582916,-0.03179952002582916,-0.03179952002582916,-0.03179952002582916,-0.03179952002582916,-0.03179952002582916,-0.03179952002582916,-0.03179952002582916,-0.031799520025829156,-0.031799520025829156,-0.031799520025829156,-0.031799520025829156,-0.031799520025829156,-0.031799520025829156,-0.031799520025829156,-0.031799520025829156,-0.031799520025829156,-0.031799520025829156,-0.031799520025829156,-0.031799520025829156,-0.031799520025829156,-0.031799520025829156,-0.031799520025829156,-0.031799520025829156,-0.031799520025829156,-0.03179952002582915,-0.03179952002582915,-0.03179952002582915,-0.03179952002582915,-0.03179952002582915,-0.03179952002582915,-0.03179952002582915,-0.03179952002582915,-0.03179952002582915,-0.03179952002582915,-0.03179952002582915,-0.03179952002582915,-0.03179952002582915,-0.03179952002582915,-0.03179952002582915,-0.03179952002582915,-0.03179952002582914,-0.03179952002582914,-0.03179952002582914,-0.03179952002582914,-0.03179952002582914,-0.03179952002582914,-0.03179952002582914,-0.03179952002582914,-0.03179952002582914,-0.03179952002582914,-0.03179952002582914,-0.03179952002582914,-0.03179952002582914,-0.03179952002582914,-0.03179952002582914,-0.03179952002582914,-0.03179952002582914,-0.03179952002582914,-0.031799520025829135,-0.031799520025829135,-0.031799520025829135,-0.031799520025829135,-0.031799520025829135,-0.031799520025829135,-0.031799520025829135,-0.031799520025829135,-0.031799520025829135,-0.031799520025829135,-0.031799520025829135,-0.031799520025829135,-0.031799520025829135,-0.031799520025829135,-0.031799520025829135,-0.031799520025829135,-0.031799520025829135,-0.03179952002582913,-0.03179952002582913,-0.03179952002582913,-0.03179952002582913,-0.03179952002582913,-0.03179952002582913,-0.03179952002582913,-0.03179952002582913,-0.03179952002582913,-0.03179952002582913,-0.03179952002582913,-0.03179952002582913,-0.03179952002582913,-0.03179952002582913,-0.03179952002582913,-0.03179952002582913,-0.03179952002582913,-0.03179952002582912,-0.03179952002582912,-0.03179952002582912,-0.03179952002582912,-0.03179952002582912,-0.03179952002582912,-0.03179952002582912,-0.03179952002582912,-0.03179952002582912,-0.03179952002582912,-0.03179952002582912,-0.03179952002582912,-0.03179952002582912,-0.03179952002582912,-0.03179952002582912,-0.03179952002582912,-0.03179952002582912,-0.03179952002582912,-0.031799520025829114,-0.031799520025829114,-0.031799520025829114,-0.031799520025829114,-0.031799520025829114,-0.031799520025829114,-0.031799520025829114,-0.031799520025829114,-0.031799520025829114,-0.031799520025829114,-0.031799520025829114,-0.031799520025829114,-0.031799520025829114,-0.031799520025829114,-0.031799520025829114,-0.031799520025829114,-0.031799520025829114,-0.031799520025829114,-0.03179952002582911,-0.03179952002582911,-0.03179952002582911,-0.03179952002582911,-0.03179952002582911,-0.03179952002582911,-0.03179952002582911,-0.03179952002582911,-0.03179952002582911,-0.03179952002582911,-0.03179952002582911,-0.03179952002582911,-0.03179952002582911,-0.03179952002582911,-0.03179952002582911,-0.03179952002582911,-0.03179952002582911,-0.03179952002582911,-0.03179952002582911,-0.0317995200258291,-0.0317995200258291,-0.0317995200258291,-0.0317995200258291,-0.0317995200258291,-0.0317995200258291,-0.0317995200258291,-0.0317995200258291,-0.0317995200258291,-0.0317995200258291,-0.0317995200258291,-0.0317995200258291,-0.0317995200258291,-0.0317995200258291,-0.0317995200258291,-0.0317995200258291,-0.0317995200258291,-0.0317995200258291,-0.031799520025829094,-0.031799520025829094,-0.031799520025829094,-0.031799520025829094,-0.031799520025829094,-0.031799520025829094,-0.031799520025829094
3,0.5655956369173728,0.5655956369173728,0.5655956369173728,0.5655956369173727,0.5655956369173727,0.5655956369173727,0.5655956369173727,0.5655956369173727,0.5655956369173727,0.5655956369173727,0.5655956369173727,0.5655956369173727,0.5655956369173726,0.5655956369173726,0.5655956369173726,0.5655956369173726,0.5655956369173726,0.5655956369173726,0.5655956369173726,0.5655956369173726,0.5655956369173726,0.5655956369173725,0.5655956369173725,0.5655956369173725,0.5655956369173725,0.5655956369173725,0.5655956369173725,0.5655956369173725,0.5655956369173725,0.5655956369173725,0.5655956369173725,0.5655956369173724,0.5655956369173724,0.5655956369173724,0.5655956369173724,0.5655956369173724,0.5655956369173724,0.5655956369173724,0.5655956369173724,0.5655956369173724,0.5655956369173722,0.5655956369173722,0.5655956369173722,0.5655956369173722,0.5655956369173722,0.5655956369173722,0.5655956369173722,0.5655956369173722,0.5655956369173722,0.5655956369173722,0.5655956369173721,0.5655956369173721,0.5655956369173721,0.5655956369173721,0.5655956369173721,0.5655956369173721,0.5655956369173721,0.5655956369173721,0.5655956369173721,0.565595636917372,0.565595636917372,0.565595636917372,0.565595636917372,0.565595636917372,0.565595636917372,0.565595636917372,0.565595636917372,0.565595636917372,0.565595636917372,0.5655956369173719,0.5655956369173719,0.5655956369173719,0.5655956369173719,0.5655956369173719,0.5655956369173719,0.5655956369173719,0.5655956369173719,0.5655956369173719,0.5655956369173719,0.5655956369173718,0.5655956369173718,0.5655956369173718,0.5655956369173718,0.5655956369173718,0.5655956369173718,0.5655956369173718,0.5655956369173718,0.5655956369173718,0.5655956369173718,0.5655956369173717,0.5655956369173717,0.5655956369173717,0.5655956369173717,0.5655956369173717,0.5655956369173717,0.5655956369173717,0.5655956369173717,0.5655956369173717,0.5655956369173717,0.5655956369173716,0.5655956369173716,0.5655956369173716,0.5655956369173716,0.5655956369173716,0.5655956369173716,0.5655956369173716,0.5655956369173716,0.5655956369173716,0.5655956369173716,0.5655956369173715,0.5655956369173715,0.5655956369173715,0.5655956369173715,0.5655956369173715,0.5655956369173715,0.5655956369173715,0.5655956369173715,0.5655956369173715,0.5655956369173715,0.5655956369173715,0.5655956369173714,0.5655956369173714,0.5655956369173714,0.5655956369173714,0.5655956369173714,0.5655956369173714,0.5655956369173714,0.5655956369173714,0.5655956369173714,0.5655956369173714,0.5655956369173712,0.5655956369173712,0.5655956369173712,0.5655956369173712,0.5655956369173712,0.5655956369173712,0.5655956369173712,0.5655956369173712,0.5655956369173712,0.5655956369173712,0.5655956369173712,0.5655956369173711,0.5655956369173711,0.5655956369173711,0.5655956369173711,0.5655956369173711,0.5655956369173711,0.5655956369173711,0.5655956369173711,0.5655956369173711,0.5655956369173711,0.5655956369173711,0.565595636917371,0.565595636917371,0.565595636917371,0.565595636917371,0.565595636917371,0.565595636917371,0.565595636917371,0.565595636917371,0.565595636917371,0.565595636917371,0.5655956369173709,0.5655956369173709,0.5655956369173709,0.5655956369173709,0.5655956369173709,0.5655956369173709,0.5655956369173709,0.5655956369173709,0.5655956369173709,0.5655956369173709,0.5655956369173709,0.5655956369173708,0.5655956369173708,0.5655956369173708,0.5655956369173708,0.5655956369173708,0.5655956369173708,0.5655956369173708,0.5655956369173708,0.5655956369173708,0.5655956369173708,0.5655956369173708,0.5655956369173707,0.5655956369173707,0.5655956369173707,0.5655956369173707,0.5655956369173707,0.5655956369173707,0.5655956369173707,0.5655956369173707,0.5655956369173707,0.5655956369173707,0.5655956369173707,0.5655956369173707,0.5655956369173706,0.5655956369173706,0.5655956369173706,0.5655956369173706,0.5655956369173706,0.5655956369173706,0.5655956369173706,0.5655956369173706,0.5655956369173706,0.5655956369173706,0.5655956369173706,0.5655956369173705,0.5655956369173705,0.5655956369173705,0.5655956369173705,0.5655956369173705,0.5655956369173705,0.5655956369173705,0.5655956369173705,0.5655956369173705,0.5655956369173705,0.5655956369173705,0.5655956369173704,0.5655956369173704,0.5655956369173704,0.5655956369173704,0.5655956369173704,0.5655956369173704,0.5655956369173704,0.5655956369173704,0.5655956369173704,0.5655956369173704,0.5655956369173704,0.5655956369173704,0.5655956369173702,0.5655956369173702,0.5655956369173702,0.5655956369173702,0.5655956369173702,0.5655956369173702,0.5655956369173702,0.5655956369173702,0.5655956369173702,0.5655956369173702,0.5655956369173702,0.5655956369173702,0.5655956369173701,0.5655956369173701,0.5655956369173701,0.5655956369173701,0.5655956369173701,0.5655956369173701,0.5655956369173701,0.5655956369173701,0.5655956369173701,0.5655956369173701,0.5655956369173701,0.56559563691737,0.56559563691737,0.56559563691737,0.56559563691737,0.56559563691737,0.56559563691737,0.56559563691737,0.56559563691737,0.56559563691737,0.56559563691737,0.56559563691737,0.56559563691737,0.5655956369173699,0.5655956369173699,0.5655956369173699,0.5655956369173699,0.5655956369173699,0.5655956369173699,0.5655956369173699,0.5655956369173699,0.5655956369173699,0.5655956369173699,0.5655956369173699,0.5655956369173699,0.5655956369173699,0.5655956369173698,0.5655956369173698,0.5655956369173698,0.5655956369173698,0.5655956369173698,0.5655956369173698,0.5655956369173698,0.5655956369173698,0.5655956369173698,0.5655956369173698,0.5655956369173698,0.5655956369173698,0.5655956369173697,0.5655956369173697,0.5655956369173697,0.5655956369173697,0.5655956369173697,0.5655956369173697,0.5655956369173697,0.5655956369173697,0.5655956369173697,0.5655956369173697,0.5655956369173697,0.5655956369173697,0.5655956369173696,0.5655956369173696,0.5655956369173696,0.5655956369173696,0.5655956369173696,0.5655956369173696,0.5655956369173696,0.5655956369173696,0.5655956369173696,0.5655956369173696,0.5655956369173696,0.5655956369173696,0.5655956369173696,0.5655956369173695,0.5655956369173695,0.5655956369173695,0.5655956369173695,0.5655956369173695,0.5655956369173695,0.5655956369173695,0.5655956369173695,0.5655956369173695,0.5655956369173695,0.5655956369173695,0.5655956369173695,0.5655956369173694,0.5655956369173694,0.5655956369173694,0.5655956369173694,0.5655956369173694,0.5655956369173694,0.5655956369173694,0.5655956369173694,0.5655956369173694,0.5655956369173694,0.5655956369173694,0.5655956369173694,0.5655956369173694,0.5655956369173692,0.5655956369173692,0.5655956369173692,0.5655956369173692,0.5655956369173692,0.5655956369173692,0.5655956369173692,0.5655956369173692,0.5655956369173692,0.5655956369173692,0.5655956369173692,0.5655956369173692,0.5655956369173692,0.5655956369173691,0.5655956369173691,0.5655956369173691,0.5655956369173691,0.5655956369173691,0.5655956369173691,0.5655956369173691,0.5655956369173691,0.5655956369173691,0.5655956369173691,0.5655956369173691,0.5655956369173691,0.5655956369173691,0.565595636917369,0.565595636917369,0.565595636917369,0.565595636917369,0.565595636917369,0.565595636917369,0.565595636917369,0.565595636917369,0.565595636917369,0.565595636917369,0.565595636917369,0.565595636917369,0.565595636917369,0.565595636917369,0.5655956369173689,0.5655956369173689,0.5655956369173689,0.5655956369173689,0.5655956369173689,0.5655956369173689,0.5655956369173689,0.5655956369173689,0.5655956369173689,0.5655956369173689,0.5655956369173689,0.5655956369173689,0.5655956369173689,0.5655956369173688,0.5655956369173688,0.5655956369173688,0.5655956369173688,0.5655956369173688,0.5655956369173688,0.5655956369173688,0.5655956369173688,0.5655956369173688,0.5655956369173688,0.5655956369173688,0.5655956369173688,0.5655956369173688,0.5655956369173688,0.5655956369173687,0.5655956369173687,0.5655956369173687,0.5655956369173687,0.5655956369173687,0.5655956369173687,0.5655956369173687,0.5655956369173687,0.5655956369173687,0.5655956369173687,0.5655956369173687,0.5655956369173687,0.5655956369173687,0.5655956369173687,0.5655956369173686,0.5655956369173686,0.5655956369173686,0.5655956369173686,0.5655956369173686,0.5655956369173686,0.5655956369173686,0.5655956369173686,0.5655956369173686,0.5655956369173686,0.5655956369173686,0.5655956369173686,0.5655956369173686,0.5655956369173686,0.5655956369173685,0.5655956369173685,0.5655956369173685,0.5655956369173685,0.5655956369173685,0.5655956369173685,0.5655956369173685,0.5655956369173685,0.5655956369173685,0.5655956369173685,0.5655956369173685,0.5655956369173685,0.5655956369173685,0.5655956369173685,0.5655956369173684,0.5655956369173684,0.5655956369173684,0.5655956369173684,0.5655956369173684,0.5655956369173684,0.5655956369173684,0.5655956369173684,0.5655956369173684,0.5655956369173684,0.5655956369173684,0.5655956369173684,0.5655956369173684,0.5655956369173684,0.5655956369173682,0.5655956369173682,0.5655956369173682,0.5655956369173682,0.5655956369173682,0.5655956369173682,0.5655956369173682,0.5655956369173682,0.5655956369173682,0.5655956369173682,0.5655956369173682,0.5655956369173682,0.5655956369173682,0.5655956369173682,0.5655956369173682,0.5655956369173681,0.5655956369173681,0.5655956369173681,0.5655956369173681,0.5655956369173681,0.5655956369173681,0.5655956369173681,0.5655956369173681,0.5655956369173681,0.5655956369173681,0.5655956369173681,0.5655956369173681,0.5655956369173681,0.5655956369173681,0.5655956369173681,0.565595636917368,0.565595636917368,0.565595636917368,0.565595636917368,0.565595636917368,0.565595636917368,0.565595636917368,0.565595636917368,0.565595636917368,0.565595636917368,0.565595636917368,0.565595636917368,0.565595636917368,0.565595636917368,0.565595636917368,0.5655956369173679,0.5655956369173679,0.5655956369173679,0.5655956369173679,0.5655956369173679,0.5655956369173679,0.5655956369173679,0.5655956369173679,0.5655956369173679,0.5655956369173679,0.5655956369173679,0.5655956369173679,0.5655956369173679,0.5655956369173679,0.5655956369173679,0.5655956369173678,0.5655956369173678,0.5655956369173678,0.5655956369173678,0.5655956369173678,0.5655956369173678,0.5655956369173678,0.5655956369173678,0.5655956369173678,0.5655956369173678,0.5655956369173678,0.5655956369173678,0.5655956369173678,0.5655956369173678,0.5655956369173678,0.5655956369173677,0.5655956369173677,0.5655956369173677,0.5655956369173677,0.5655956369173677,0.5655956369173677,0.5655956369173677,0.5655956369173677,0.5655956369173677,0.5655956369173677,0.5655956369173677,0.5655956369173677,0.5655956369173677,0.5655956369173677,0.5655956369173677,0.5655956369173677,0.5655956369173676,0.5655956369173676,0.5655956369173676,0.5655956369173676,0.5655956369173676,0.5655956369173676,0.5655956369173676,0.5655956369173676,0.5655956369173676,0.5655956369173676,0.5655956369173676,0.5655956369173676,0.5655956369173676,0.5655956369173676,0.5655956369173676,0.5655956369173675,0.5655956369173675,0.5655956369173675,0.5655956369173675,0.5655956369173675,0.5655956369173675,0.5655956369173675,0.5655956369173675,0.5655956369173675,0.5655956369173675,0.5655956369173675,0.5655956369173675,0.5655956369173675,0.5655956369173675,0.5655956369173675,0.5655956369173675,0.5655956369173674,0.5655956369173674,0.5655956369173674,0.5655956369173674,0.5655956369173674,0.5655956369173674,0.5655956369173674,0.5655956369173674,0.5655956369173674,0.5655956369173674,0.5655956369173674,0.5655956369173674,0.5655956369173674,0.5655956369173674,0.5655956369173674,0.5655956369173674,0.5655956369173674,0.5655956369173673,0.5655956369173673,0.5655956369173673,0.5655956369173673,0.5655956369173673,0.5655956369173673,0.5655956369173673,0.5655956369173673,0.5655956369173673,0.5655956369173673,0.5655956369173673,0.5655956369173673,0.5655956369173673,0.5655956369173673,0.5655956369173673,0.5655956369173673,0.5655956369173671,0.5655956369173671,0.5655956369173671,0.5655956369173671,0.5655956369173671,0.5655956369173671,0.5655956369173671,0.5655956369173671,0.5655956369173671,0.5655956369173671,0.5655956369173671,0.5655956369173671,0.5655956369173671,0.5655956369173671,0.5655956369173671,0.5655956369173671,0.5655956369173671,0.565595636917367,0.565595636917367,0.565595636917367,0.565595636917367,0.565595636917367,0.565595636917367,0.565595636917367,0.565595636917367,0.565595636917367,0.565595636917367,0.565595636917367,0.565595636917367,0.565595636917367,0.565595636917367,0.565595636917367,0.565595636917367,0.5655956369173669,0.5655956369173669,0.5655956369173669,0.5655956369173669,0.5655956369173669,0.5655956369173669,0.5655956369173669,0.5655956369173669,0.5655956369173669,0.5655956369173669,0.5655956369173669,0.5655956369173669,0.5655956369173669,0.5655956369173669,0.5655956369173669,0.5655956369173669,0.5655956369173669,0.5655956369173669,0.5655956369173668,0.5655956369173668,0.5655956369173668,0.5655956369173668,0.5655956369173668,0.5655956369173668,0.5655956369173668,0.5655956369173668,0.5655956369173668,0.5655956369173668,0.5655956369173668,0.5655956369173668,0.5655956369173668,0.5655956369173668,0.5655956369173668,0.5655956369173668,0.5655956369173668,0.5655956369173667,0.5655956369173667,0.5655956369173667,0.5655956369173667,0.5655956369173667,0.5655956369173667,0.5655956369173667,0.5655956369173667,0.5655956369173667,0.5655956369173667,0.5655956369173667,0.5655956369173667,0.5655956369173667,0.5655956369173667,0.5655956369173667,0.5655956369173667,0.5655956369173667,0.5655956369173666,0.5655956369173666,0.5655956369173666,0.5655956369173666,0.5655956369173666,0.5655956369173666,0.5655956369173666,0.5655956369173666,0.5655956369173666,0.5655956369173666,0.5655956369173666,0.5655956369173666,0.5655956369173666,0.5655956369173666,0.5655956369173666,0.5655956369173666,0.5655956369173666,0.5655956369173666,0.5655956369173665,0.5655956369173665,0.5655956369173665,0.5655956369173665,0.5655956369173665,0.5655956369173665,0.5655956369173665,0.5655956369173665,0.5655956369173665,0.5655956369173665,0.5655956369173665,0.5655956369173665,0.5655956369173665,0.5655956369173665,0.5655956369173665,0.5655956369173665,0.5655956369173665,0.5655956369173665,0.5655956369173664,0.5655956369173664,0.5655956369173664,0.5655956369173664,0.5655956369173664,0.5655956369173664,0.5655956369173664,0.5655956369173664,0.5655956369173664,0.5655956369173664,0.5655956369173664,0.5655956369173664,0.5655956369173664,0.5655956369173664,0.5655956369173664,0.5655956369173664,0.5655956369173664,0.5655956369173664,0.5655956369173664,0.5655956369173663,0.5655956369173663,0.5655956369173663,0.5655956369173663,0.5655956369173663,0.5655956369173663,0.5655956369173663,0.5655956369173663,0.5655956369173663,0.5655956369173663,0.5655956369173663,0.5655956369173663,0.5655956369173663,0.5655956369173663,0.5655956369173663,0.5655956369173663,0.5655956369173663,0.5655956369173663,0.5655956369173661,0.5655956369173661,0.5655956369173661,0.5655956369173661,0.5655956369173661,0.5655956369173661,0.5655956369173661,0.5655956369173661,0.5655956369173661,0.5655956369173661,0.5655956369173661,0.5655956369173661,0.5655956369173661,0.5655956369173661,0.5655956369173661,0.5655956369173661,0.5655956369173661,0.5655956369173661,0.5655956369173661,0.565595636917366,0.565595636917366,0.565595636917366,0.565595636917366,0.565595636917366,0.565595636917366,0.565595636917366,0.565595636917366,0.565595636917366,0.565595636917366,0.565595636917366,0.565595636917366,0.565595636917366,0.565595636917366,0.565595636917366,0.565595636917366,0.565595636917366,0.565595636917366,0.565595636917366,0.5655956369173659,0.5655956369173659,0.5655956369173659,0.5655956369173659,0.5655956369173659,0.5655956369173659,0.5655956369173659,0.5655956369173659,0.5655956369173659,0.5655956369173659,0.5655956369173659,0.5655956369173659,0.5655956369173659,0.5655956369173659,0.5655956369173659,0.5655956369173659,0.5655956369173659,0.5655956369173659,0.5655956369173659,0.5655956369173659,0.5655956369173658,0.5655956369173658,0.5655956369173658,0.5655956369173658,0.5655956369173658,0.5655956369173658,0.5655956369173658,0.5655956369173658,0.5655956369173658,0.5655956369173658,0.5655956369173658,0.5655956369173658,0.5655956369173658,0.5655956369173658,0.5655956369173658,0.5655956369173658,0.5655956369173658,0.5655956369173658,0.5655956369173658,0.5655956369173657,0.5655956369173657,0.5655956369173657,0.5655956369173657,0.5655956369173657,0.5655956369173657,0.5655956369173657,0.5655956369173657,0.5655956369173657,0.5655956369173657,0.5655956369173657,0.5655956369173657,0.5655956369173657,0.5655956369173657,0.5655956369173657,0.5655956369173657,0.5655956369173657,0.5655956369173657,0.5655956369173657,0.5655956369173657,0.5655956369173656,0.5655956369173656,0.5655956369173656,0.5655956369173656,0.5655956369173656,0.5655956369173656,0.5655956369173656,0.5655956369173656,0.5655956369173656,0.5655956369173656,0.5655956369173656,0.5655956369173656,0.5655956369173656,0.5655956369173656,0.5655956369173656,0.5655956369173656,0.5655956369173656,0.5655956369173656,0.5655956369173656,0.5655956369173656,0.5655956369173656,0.5655956369173655,0.5655956369173655,0.5655956369173655,0.5655956369173655,0.5655956369173655,0.5655956369173655,0.5655956369173655,0.5655956369173655,0.5655956369173655,0.5655956369173655,0.5655956369173655,0.5655956369173655,0.5655956369173655,0.5655956369173655,0.5655956369173655,0.5655956369173655,0.5655956369173655,0.5655956369173655,0.5655956369173655,0.5655956369173655,0.5655956369173654,0.5655956369173654,0.5655956369173654,0.5655956369173654,0.5655956369173654,0.5655956369173654,0.5655956369173654,0.5655956369173654,0.5655956369173654
