,0,1,2,3,4,5,6,7,8,9,10,11,12,13,14,15,16,17,18,19,20,21,22,23,24,25,26,27,28,29,30,31,32,33,34,35,36,37,38,39,40,41,42,43,44,45,46,47,48,49,50,51,52,53,54,55,56,57,58,59,60,61,62,63,64,65,66,67,68,69,70,71,72,73,74,75,76,77,78,79,80,81,82,83,84,85,86,87,88,89,90,91,92,93,94,95,96,97,98,99,100,101,102,103,104,105,106,107,108,109,110,111,112,113,114,115,116,117,118,119,120,121,122,123,124,125,126,127,128,129,130,131,132,133,134,135,136,137,138,139,140,141,142,143,144,145,146,147,148,149,150,151,152,153,154,155,156,157,158,159,160,161,162,163,164,165,166,167,168,169,170,171,172,173,174,175,176,177,178,179,180,181,182,183,184,185,186,187,188,189,190,191,192,193,194,195,196,197,198,199,200,201,202,203,204,205,206,207,208,209,210,211,212,213,214,215,216,217,218,219,220,221,222,223,224,225,226,227,228,229,230,231,232,233,234,235,236,237,238,239,240,241,242,243,244,245,246,247,248,249,250,251,252,253,254,255,256,257,258,259,260,261,262,263,264,265,266,267,268,269,270,271,272,273,274,275,276,277,278,279,280,281,282,283,284,285,286,287,288,289,290,291,292,293,294,295,296,297,298,299,300,301,302,303,304,305,306,307,308,309,310,311,312,313,314,315,316,317,318,319,320,321,322,323,324,325,326,327,328,329,330,331,332,333,334,335,336,337,338,339,340,341,342,343,344,345,346,347,348,349,350,351,352,353,354,355,356,357,358,359,360,361,362,363,364,365,366,367,368,369,370,371,372,373,374,375,376,377,378,379,380,381,382,383,384,385,386,387,388,389,390,391,392,393,394,395,396,397,398,399,400,401,402,403,404,405,406,407,408,409,410,411,412,413,414,415,416,417,418,419,420,421,422,423,424,425,426,427,428,429,430,431,432,433,434,435,436,437,438,439,440,441,442,443,444,445,446,447,448,449,450,451,452,453,454,455,456,457,458,459,460,461,462,463,464,465,466,467,468,469,470,471,472,473,474,475,476,477,478,479,480,481,482,483,484,485,486,487,488,489,490,491,492,493,494,495,496,497,498,499,500,501,502,503,504,505,506,507,508,509,510,511,512,513,514,515,516,517,518,519,520,521,522,523,524,525,526,527,528,529,530,531,532,533,534,535,536,537,538,539,540,541,542,543,544,545,546,547,548,549,550,551,552,553,554,555,556,557,558,559,560,561,562,563,564,565,566,567,568,569,570,571,572,573,574,575,576,577,578,579,580,581,582,583,584,585,586,587,588,589,590,591,592,593,594,595,596,597,598,599,600,601,602,603,604,605,606,607,608,609,610,611,612,613,614,615,616,617,618,619,620,621,622,623,624,625,626,627,628,629,630,631,632,633,634,635,636,637,638,639,640,641,642,643,644,645,646,647,648,649,650,651,652,653,654,655,656,657,658,659,660,661,662,663,664,665,666,667,668,669,670,671,672,673,674,675,676,677,678,679,680,681,682,683,684,685,686,687,688,689,690,691,692,693,694,695,696,697,698,699,700,701,702,703,704,705,706,707,708,709,710,711,712,713,714,715,716,717,718,719,720,721,722,723,724,725,726,727,728,729,730,731,732,733,734,735,736,737,738,739,740,741,742,743,744,745,746,747,748,749,750,751,752,753,754,755,756,757,758,759,760,761,762,763,764,765,766,767,768,769,770,771,772,773,774,775,776,777,778,779,780,781,782,783,784,785,786,787,788,789,790,791,792,793,794,795,796,797,798,799,800,801,802,803,804,805,806,807,808,809,810,811,812,813,814,815,816,817,818,819,820,821,822,823,824,825,826,827,828,829,830,831,832,833,834,835,836,837,838,839,840,841,842,843,844,845,846,847,848,849,850,851,852,853,854,855,856,857,858,859,860,861,862,863,864,865,866,867,868,869,870,871,872,873,874,875,876,877,878,879,880,881,882,883,884,885,886,887,888,889,890,891,892,893,894,895,896,897,898,899,900,901,902,903,904,905,906,907,908,909,910,911,912,913,914,915,916,917,918,919,920,921,922,923,924,925,926,927,928,929,930,931,932,933,934,935,936,937,938,939,940,941,942,943,944,945,946,947,948,949,950,951,952,953,954,955,956,957,958,959,960,961,962,963,964,965,966,967,968,969,970,971,972,973,974,975,976,977,978,979,980,981,982,983,984,985,986,987,988,989,990,991,992,993,994,995,996,997,998,999,1000,1001,1002,1003,1004,1005,1006,1007,1008,1009,1010,1011,1012,1013,1014,1015,1016,1017,1018,1019,1020,1021,1022,1023,1024,1025,1026,1027,1028,1029,1030,1031,1032,1033,1034,1035,1036,1037,1038,1039,1040,1041,1042,1043,1044,1045,1046,1047,1048,1049,1050,1051,1052,1053,1054,1055,1056,1057,1058,1059,1060,1061,1062,1063,1064,1065,1066,1067,1068,1069,1070,1071,1072,1073,1074,1075,1076,1077,1078,1079,1080,1081,1082,1083,1084,1085,1086,1087,1088,1089,1090,1091,1092,1093,1094,1095,1096,1097,1098,1099,1100,1101,1102,1103,1104,1105,1106,1107,1108,1109,1110,1111,1112,1113,1114,1115,1116,1117,1118,1119,1120,1121,1122,1123,1124,1125,1126,1127,1128,1129,1130,1131,1132,1133,1134,1135,1136,1137,1138,1139,1140,1141,1142,1143,1144,1145,1146,1147,1148,1149,1150,1151,1152,1153,1154,1155,1156,1157,1158,1159,1160,1161,1162,1163,1164,1165,1166,1167,1168,1169,1170,1171,1172,1173,1174,1175,1176,1177,1178,1179,1180,1181,1182,1183,1184,1185,1186,1187,1188,1189,1190,1191,1192,1193,1194,1195,1196,1197,1198,1199,1200,1201,1202,1203,1204,1205,1206,1207,1208,1209,1210,1211,1212,1213,1214,1215,1216,1217,1218,1219,1220,1221,1222,1223,1224,1225,1226,1227,1228,1229,1230,1231,1232,1233,1234,1235,1236,1237,1238,1239,1240,1241,1242,1243,1244,1245,1246,1247,1248,1249,1250,1251,1252,1253,1254,1255,1256,1257,1258,1259,1260,1261,1262,1263,1264,1265,1266,1267,1268,1269,1270,1271,1272,1273,1274,1275,1276,1277,1278,1279,1280,1281,1282,1283,1284,1285,1286,1287,1288,1289,1290,1291,1292,1293,1294,1295,1296,1297,1298,1299,1300,1301,1302,1303,1304,1305,1306,1307,1308,1309,1310,1311,1312,1313,1314,1315,1316,1317,1318,1319,1320,1321,1322,1323,1324,1325,1326,1327,1328,1329,1330,1331,1332,1333,1334,1335,1336,1337,1338,1339,1340,1341,1342,1343,1344,1345,1346,1347,1348,1349,1350,1351,1352,1353,1354,1355,1356,1357,1358,1359,1360,1361,1362,1363,1364,1365,1366,1367,1368,1369,1370,1371,1372,1373,1374,1375,1376,1377,1378,1379,1380,1381,1382,1383,1384,1385,1386,1387,1388,1389,1390,1391,1392,1393,1394,1395,1396,1397,1398,1399,1400,1401,1402,1403,1404,1405,1406,1407,1408,1409,1410,1411,1412,1413,1414,1415,1416,1417,1418,1419,1420,1421,1422,1423,1424,1425,1426,1427,1428,1429,1430,1431,1432,1433,1434,1435,1436,1437,1438,1439,1440,1441,1442,1443,1444,1445,1446,1447,1448,1449,1450,1451,1452,1453,1454,1455,1456,1457,1458,1459,1460,1461,1462,1463,1464,1465,1466,1467,1468,1469,1470,1471,1472,1473,1474,1475,1476,1477,1478,1479,1480,1481,1482,1483,1484,1485,1486,1487,1488,1489,1490,1491,1492,1493,1494,1495,1496,1497,1498,1499,1500,1501,1502,1503,1504,1505,1506,1507,1508,1509,1510,1511,1512,1513,1514,1515,1516,1517,1518,1519,1520,1521,1522,1523,1524,1525,1526,1527,1528,1529,1530,1531,1532,1533,1534,1535,1536,1537,1538,1539,1540,1541,1542,1543,1544,1545,1546,1547,1548,1549,1550,1551,1552,1553,1554,1555,1556,1557,1558,1559,1560,1561,1562,1563,1564,1565,1566,1567,1568,1569,1570,1571,1572,1573,1574,1575,1576,1577,1578,1579,1580,1581,1582,1583,1584,1585,1586,1587,1588,1589,1590,1591,1592,1593,1594,1595,1596,1597,1598,1599,1600,1601,1602,1603
0,54298.562112987034,54298.562112987034,54298.562112987034,54298.562112987034,54298.562112987034,54298.562112987034,54298.562112987034,54298.562112987034,54298.562112987034,54298.562112987034,54298.562112987034,54298.562112987034,54298.562112987034,54298.562112987034,54298.562112987034,54298.562112987034,54298.562112987034,54298.562112987034,54298.562112987034,54298.562112987034,54298.562112987034,54298.562112987034,54298.562112987034,54298.562112987034,54298.562112987034,54298.562112987034,54298.562112987034,54298.562112987034,54298.562112987034,54298.562112987034,54298.562112987034,54298.562112987034,54298.562112987034,54298.562112987034,54298.562112987034,54298.562112987034,54298.562112987034,54298.562112987034,54298.562112987034,54298.562112987034,54298.562112987034,54298.562112987034,54298.562112987034,54298.562112987034,54298.562112987034,54298.562112987034,54298.562112987034,54298.562112987034,54298.562112987034,54298.562112987034,54298.562112987034,54298.562112987034,54298.562112987034,54298.562112987034,54298.562112987034,54298.562112987034,54298.562112987034,54298.562112987034,54298.562112987034,54298.562112987034,54298.562112987034,54298.562112987034,54298.562112987034,54298.562112987034,54298.562112987034,54298.562112987034,54298.562112987034,54298.562112987034,54298.562112987034,54298.562112987034,54298.562112987034,54298.562112987034,54298.562112987034,54298.562112987034,54298.562112987034,54298.562112987034,54298.562112987034,54298.562112987034,54298.562112987034,54298.562112987034,54298.562112987034,54298.562112987034,54298.562112987034,54298.562112987034,54298.562112987034,54298.562112987034,54298.562112987034,54298.562112987034,54298.562112987034,54298.562112987034,54298.562112987034,54298.562112987034,54298.562112987034,54298.562112987034,54298.562112987034,54298.562112987034,54298.562112987034,54298.562112987034,54298.562112987034,54298.562112987034,54298.562112987034,54298.562112987034,54298.562112987034,54298.562112987034,54298.562112987034,54298.562112987034,54298.562112987034,54298.562112987034,54298.562112987034,54298.562112987034,54298.562112987034,54298.562112987034,54298.562112987034,54298.562112987034,54298.562112987034,54298.562112987034,54298.562112987034,54298.562112987034,54298.562112987034,54298.562112987034,54298.562112987034,54298.562112987034,54298.562112987034,54298.562112987034,54298.562112987034,54298.562112987034,54298.562112987034,54298.562112987034,54298.562112987034,54298.562112987034,54298.562112987034,54298.562112987034,54298.562112987034,54298.562112987034,54298.562112987034,54298.562112987034,54298.562112987034,54298.562112987034,54298.562112987034,54298.562112987034,54298.562112987034,54298.562112987034,54298.562112987034,54298.562112987034,54298.562112987034,54298.562112987034,54298.562112987034,54298.562112987034,54298.562112987034,54298.562112987034,54298.562112987034,54298.562112987034,54298.562112987034,54298.562112987034,54298.562112987034,54298.562112987034,54298.562112987034,54298.562112987034,54298.562112987034,54298.562112987034,54298.562112987034,54298.562112987034,54298.562112987034,54298.562112987034,54298.562112987034,54298.562112987034,54298.562112987034,54298.562112987034,54298.562112987034,54298.562112987034,54298.562112987034,54298.562112987034,54298.562112987034,54298.562112987034,54298.562112987034,54298.562112987034,54298.562112987034,54298.562112987034,54298.562112987034,54298.562112987034,54298.562112987034,54298.562112987034,54298.562112987034,54298.562112987034,54298.562112987034,54298.562112987034,54298.562112987034,54298.562112987034,54298.562112987034,54298.562112987034,54298.562112987034,54298.562112987034,54298.562112987034,54298.562112987034,54298.562112987034,54298.562112987034,54298.562112987034,54298.562112987034,54298.562112987034,54298.562112987034,54298.562112987034,54298.562112987034,54298.562112987034,54298.562112987034,54298.562112987034,54298.562112987034,54298.562112987034,54298.562112987034,54298.562112987034,54298.562112987034,54298.562112987034,54298.562112987034,54298.562112987034,54298.562112987034,54298.562112987034,54298.562112987034,54298.562112987034,54298.562112987034,54298.562112987034,54298.562112987034,54298.562112987034,54298.562112987034,54298.562112987034,54298.562112987034,54298.562112987034,54298.562112987034,54298.562112987034,54298.562112987034,54298.562112987034,54298.562112987034,54298.562112987034,54298.562112987034,54298.562112987034,54298.562112987034,54298.562112987034,54298.562112987034,54298.562112987034,54298.562112987034,54298.562112987034,54298.562112987034,54298.562112987034,54298.562112987034,54298.562112987034,54298.562112987034,54298.562112987034,54298.562112987034,54298.562112987034,54298.562112987034,54298.562112987034,54298.562112987034,54298.562112987034,54298.562112987034,54298.562112987034,54298.562112987034,54298.562112987034,54298.562112987034,54298.562112987034,54298.562112987034,54298.562112987034,54298.562112987034,54298.562112987034,54298.562112987034,54298.562112987034,54298.562112987034,54298.562112987034,54298.562112987034,54298.562112987034,54298.562112987034,54298.562112987034,54298.562112987034,54298.562112987034,54298.562112987034,54298.562112987034,54298.562112987034,54298.562112987034,54298.562112987034,54298.562112987034,54298.562112987034,54298.562112987034,54298.562112987034,54298.562112987034,54298.562112987034,54298.562112987034,54298.562112987034,54298.562112987034,54298.562112987034,54298.562112987034,54298.562112987034,54298.562112987034,54298.562112987034,54298.562112987034,54298.562112987034,54298.562112987034,54298.562112987034,54298.562112987034,54298.562112987034,54298.562112987034,54298.562112987034,54298.562112987034,54298.562112987034,54298.562112987034,54298.562112987034,54298.562112987034,54298.562112987034,54298.562112987034,54298.562112987034,54298.562112987034,54298.562112987034,54298.562112987034,54298.562112987034,54298.562112987034,54298.562112987034,54298.562112987034,54298.562112987034,54298.562112987034,54298.562112987034,54298.562112987034,54298.562112987034,54298.562112987034,54298.562112987034,54298.562112987034,54298.562112987034,54298.562112987034,54298.562112987034,54298.562112987034,54298.562112987034,54298.562112987034,54298.562112987034,54298.562112987034,54298.562112987034,54298.562112987034,54298.562112987034,54298.562112987034,54298.562112987034,54298.562112987034,54298.562112987034,54298.562112987034,54298.562112987034,54298.562112987034,54298.562112987034,54298.562112987034,54298.562112987034,54298.562112987034,54298.562112987034,54298.562112987034,54298.562112987034,54298.562112987034,54298.562112987034,54298.562112987034,54298.562112987034,54298.562112987034,54298.562112987034,54298.562112987034,54298.562112987034,54298.562112987034,54298.562112987034,54298.562112987034,54298.562112987034,54298.562112987034,54298.562112987034,54298.562112987034,54298.562112987034,54298.562112987034,54298.562112987034,54298.562112987034,54298.562112987034,54298.562112987034,54298.562112987034,54298.562112987034,54298.562112987034,54298.562112987034,54298.562112987034,54298.562112987034,54298.562112987034,54298.562112987034,54298.562112987034,54298.562112987034,54298.562112987034,54298.562112987034,54298.562112987034,54298.562112987034,54298.562112987034,54298.562112987034,54298.562112987034,54298.562112987034,54298.562112987034,54298.562112987034,54298.562112987034,54298.562112987034,54298.562112987034,54298.562112987034,54298.562112987034,54298.562112987034,54298.562112987034,54298.562112987034,54298.562112987034,54298.562112987034,54298.562112987034,54298.562112987034,54298.562112987034,54298.562112987034,54298.562112987034,54298.562112987034,54298.562112987034,54298.562112987034,54298.562112987034,54298.562112987034,54298.562112987034,54298.562112987034,54298.562112987034,54298.562112987034,54298.562112987034,54298.562112987034,54298.562112987034,54298.562112987034,54298.562112987034,54298.562112987034,54298.562112987034,54298.562112987034,54298.562112987034,54298.562112987034,54298.562112987034,54298.562112987034,54298.562112987034,54298.562112987034,54298.562112987034,54298.562112987034,54298.562112987034,54298.562112987034,54298.562112987034,54298.562112987034,54298.562112987034,54298.562112987034,54298.562112987034,54298.562112987034,54298.562112987034,54298.562112987034,54298.562112987034,54298.562112987034,54298.562112987034,54298.562112987034,54298.562112987034,54298.562112987034,54298.562112987034,54298.562112987034,54298.562112987034,54298.562112987034,54298.562112987034,54298.562112987034,54298.562112987034,54298.562112987034,54298.562112987034,54298.562112987034,54298.562112987034,54298.562112987034,54298.562112987034,54298.562112987034,54298.562112987034,54298.562112987034,54298.562112987034,54298.562112987034,54298.562112987034,54298.562112987034,54298.562112987034,54298.562112987034,54298.562112987034,54298.562112987034,54298.562112987034,54298.562112987034,54298.562112987034,54298.562112987034,54298.562112987034,54298.562112987034,54298.562112987034,54298.562112987034,54298.562112987034,54298.562112987034,54298.562112987034,54298.562112987034,54298.562112987034,54298.562112987034,54298.562112987034,54298.562112987034,54298.562112987034,54298.562112987034,54298.562112987034,54298.562112987034,54298.562112987034,54298.562112987034,54298.562112987034,54298.562112987034,54298.562112987034,54298.562112987034,54298.562112987034,54298.562112987034,54298.562112987034,54298.562112987034,54298.562112987034,54298.562112987034,54298.562112987034,54298.562112987034,54298.562112987034,54298.562112987034,54298.562112987034,54298.562112987034,54298.562112987034,54298.562112987034,54298.562112987034,54298.562112987034,54298.562112987034,54298.562112987034,54298.562112987034,54298.562112987034,54298.562112987034,54298.562112987034,54298.562112987034,54298.562112987034,54298.562112987034,54298.562112987034,54298.562112987034,54298.562112987034,54298.562112987034,54298.562112987034,54298.562112987034,54298.562112987034,54298.562112987034,54298.562112987034,54298.562112987034,54298.562112987034,54298.562112987034,54298.562112987034,54298.562112987034,54298.562112987034,54298.562112987034,54298.562112987034,54298.562112987034,54298.562112987034,54298.562112987034,54298.562112987034,54298.562112987034,54298.562112987034,54298.562112987034,54298.562112987034,54298.562112987034,54298.562112987034,54298.562112987034,54298.562112987034,54298.562112987034,54298.562112987034,54298.562112987034,54298.562112987034,54298.562112987034,54298.562112987034,54298.562112987034,54298.562112987034,54298.562112987034,54298.562112987034,54298.562112987034,54298.562112987034,54298.562112987034,54298.562112987034,54298.562112987034,54298.562112987034,54298.562112987034,54298.562112987034,54298.562112987034,54298.562112987034,54298.562112987034,54298.562112987034,54298.562112987034,54298.562112987034,54298.562112987034,54298.562112987034,54298.562112987034,54298.562112987034,54298.562112987034,54298.562112987034,54298.562112987034,54298.562112987034,54298.562112987034,54298.562112987034,54298.562112987034,54298.562112987034,54298.562112987034,54298.562112987034,54298.562112987034,54298.562112987034,54298.562112987034,54298.562112987034,54298.562112987034,54298.562112987034,54298.562112987034,54298.562112987034,54298.562112987034,54298.562112987034,54298.562112987034,54298.562112987034,54298.562112987034,54298.562112987034,54298.562112987034,54298.562112987034,54298.562112987034,54298.562112987034,54298.562112987034,54298.562112987034,54298.562112987034,54298.562112987034,54298.562112987034,54298.562112987034,54298.562112987034,54298.562112987034,54298.562112987034,54298.562112987034,54298.562112987034,54298.562112987034,54298.562112987034,54298.562112987034,54298.562112987034,54298.562112987034,54298.562112987034,54298.562112987034,54298.562112987034,54298.562112987034,54298.562112987034,54298.562112987034,54298.562112987034,54298.562112987034,54298.562112987034,54298.562112987034,54298.562112987034,54298.562112987034,54298.562112987034,54298.562112987034,54298.562112987034,54298.562112987034,54298.562112987034,54298.562112987034,54298.562112987034,54298.562112987034,54298.562112987034,54298.562112987034,54298.562112987034,54298.562112987034,54298.562112987034,54298.562112987034,54298.562112987034,54298.562112987034,54298.562112987034,54298.562112987034,54298.562112987034,54298.562112987034,54298.562112987034,54298.562112987034,54298.562112987034,54298.562112987034,54298.562112987034,54298.562112987034,54298.562112987034,54298.562112987034,54298.562112987034,54298.562112987034,54298.562112987034,54298.562112987034,54298.562112987034,54298.562112987034,54298.562112987034,54298.562112987034,54298.562112987034,54298.562112987034,54298.562112987034,54298.562112987034,54298.562112987034,54298.562112987034,54298.562112987034,54298.562112987034,54298.562112987034,54298.562112987034,54298.562112987034,54298.562112987034,54298.562112987034,54298.562112987034,54298.562112987034,54298.562112987034,54298.562112987034,54298.562112987034,54298.562112987034,54298.562112987034,54298.562112987034,54298.562112987034,54298.562112987034,54298.562112987034,54298.562112987034,54298.562112987034,54298.562112987034,54298.562112987034,54298.562112987034,54298.562112987034,54298.562112987034,54298.562112987034,54298.562112987034,54298.562112987034,54298.562112987034,54298.562112987034,54298.562112987034,54298.562112987034,54298.562112987034,54298.562112987034,54298.562112987034,54298.562112987034,54298.562112987034,54298.562112987034,54298.562112987034,54298.562112987034,54298.562112987034,54298.562112987034,54298.562112987034,54298.562112987034,54298.562112987034,54298.562112987034,54298.562112987034,54298.562112987034,54298.562112987034,54298.562112987034,54298.562112987034,54298.562112987034,54298.562112987034,54298.562112987034,54298.562112987034,54298.562112987034,54298.562112987034,54298.562112987034,54298.562112987034,54298.562112987034,54298.562112987034,54298.562112987034,54298.562112987034,54298.562112987034,54298.562112987034,54298.562112987034,54298.562112987034,54298.562112987034,54298.562112987034,54298.562112987034,54298.562112987034,54298.562112987034,54298.562112987034,54298.562112987034,54298.562112987034,54298.562112987034,54298.562112987034,54298.562112987034,54298.562112987034,54298.562112987034,54298.562112987034,54298.562112987034,54298.562112987034,54298.562112987034,54298.562112987034,54298.562112987034,54298.562112987034,54298.562112987034,54298.562112987034,54298.562112987034,54298.562112987034,54298.562112987034,54298.562112987034,54298.562112987034,54298.562112987034,54298.562112987034,54298.562112987034,54298.562112987034,54298.562112987034,54298.562112987034,54298.562112987034,54298.562112987034,54298.562112987034,54298.562112987034,54298.562112987034,54298.562112987034,54298.562112987034,54298.562112987034,54298.562112987034,54298.562112987034,54298.562112987034,54298.562112987034,54298.562112987034,54298.562112987034,54298.562112987034,54298.562112987034,54298.562112987034,54298.562112987034,54298.562112987034,54298.562112987034,54298.562112987034,54298.562112987034,54298.562112987034,54298.562112987034,54298.562112987034,54298.562112987034,54298.562112987034,54298.562112987034,54298.562112987034,54298.562112987034,54298.562112987034,54298.562112987034,54298.562112987034,54298.562112987034,54298.562112987034,54298.562112987034,54298.562112987034,54298.562112987034,54298.562112987034,54298.562112987034,54298.562112987034,54298.562112987034,54298.562112987034,54298.562112987034,54298.562112987034,54298.562112987034,54298.562112987034,54298.562112987034,54298.562112987034,54298.562112987034,54298.562112987034,54298.562112987034,54298.562112987034,54298.562112987034,54298.562112987034,54298.562112987034,54298.562112987034,54298.562112987034,54298.562112987034,54298.562112987034,54298.562112987034,54298.562112987034,54298.562112987034,54298.562112987034,54298.562112987034,54298.562112987034,54298.562112987034,54298.562112987034,54298.562112987034,54298.562112987034,54298.562112987034,54298.562112987034,54298.562112987034,54298.562112987034,54298.562112987034,54298.562112987034,54298.562112987034,54298.562112987034,54298.562112987034,54298.562112987034,54298.562112987034,54298.562112987034,54298.562112987034,54298.562112987034,54298.562112987034,54298.562112987034,54298.562112987034,54298.562112987034,54298.562112987034,54298.562112987034,54298.562112987034,54298.562112987034,54298.562112987034,54298.562112987034,54298.562112987034,54298.562112987034,54298.562112987034,54298.562112987034,54298.562112987034,54298.562112987034,54298.562112987034,54298.562112987034,54298.562112987034,54298.562112987034,54298.562112987034,54298.562112987034,54298.562112987034,54298.562112987034,54298.562112987034,54298.562112987034,54298.562112987034,54298.562112987034,54298.562112987034,54298.562112987034,54298.562112987034,54298.562112987034,54298.562112987034,54298.562112987034,54298.562112987034,54298.562112987034,54298.562112987034,54298.562112987034,54298.562112987034,54298.562112987034,54298.562112987034,54298.562112987034,54298.562112987034,54298.562112987034,54298.562112987034,54298.562112987034,54298.562112987034,54298.562112987034,54298.562112987034,54298.562112987034,54298.562112987034,54298.562112987034,54298.562112987034,54298.562112987034,54298.562112987034,54298.562112987034,54298.562112987034,54298.562112987034,54298.562112987034,54298.562112987034,54298.562112987034,54298.562112987034,54298.562112987034,54298.562112987034,54298.562112987034,54298.562112987034,54298.562112987034,54298.562112987034,54298.562112987034,54298.562112987034,54298.562112987034,54298.562112987034,54298.562112987034,54298.562112987034,54298.562112987034,54298.562112987034,54298.562112987034,54298.562112987034,54298.562112987034,54298.562112987034,54298.562112987034,54298.562112987034,54298.562112987034,54298.562112987034,54298.562112987034,54298.562112987034,54298.562112987034,54298.562112987034,54298.562112987034,54298.562112987034,54298.562112987034,54298.562112987034,54298.562112987034,54298.562112987034,54298.562112987034,54298.562112987034,54298.562112987034,54298.562112987034,54298.562112987034,54298.562112987034,54298.562112987034,54298.562112987034,54298.562112987034,54298.562112987034,54298.562112987034,54298.562112987034,54298.562112987034,54298.562112987034,54298.562112987034,54298.562112987034,54298.562112987034,54298.562112987034,54298.562112987034,54298.562112987034,54298.562112987034,54298.562112987034,54298.562112987034,54298.562112987034,54298.562112987034,54298.562112987034,54298.562112987034,54298.562112987034,54298.562112987034,54298.562112987034,54298.562112987034,54298.562112987034,54298.562112987034,54298.562112987034,54298.562112987034,54298.562112987034,54298.562112987034,54298.562112987034,54298.562112987034,54298.562112987034,54298.562112987034,54298.562112987034,54298.562112987034,54298.562112987034,54298.562112987034,54298.562112987034,54298.562112987034,54298.562112987034,54298.562112987034,54298.562112987034,54298.562112987034,54298.562112987034,54298.562112987034,54298.562112987034,54298.562112987034,54298.562112987034,54298.562112987034,54298.562112987034,54298.562112987034,54298.562112987034,54298.562112987034,54298.562112987034,54298.562112987034,54298.562112987034,54298.562112987034,54298.562112987034,54298.562112987034,54298.562112987034,54298.562112987034,54298.562112987034,54298.562112987034,54298.562112987034,54298.562112987034,54298.562112987034,54298.562112987034,54298.562112987034,54298.562112987034,54298.562112987034,54298.562112987034,54298.562112987034,54298.562112987034,54298.562112987034,54298.562112987034,54298.562112987034,54298.562112987034,54298.562112987034,54298.562112987034,54298.562112987034,54298.562112987034,54298.562112987034,54298.562112987034,54298.562112987034,54298.562112987034,54298.562112987034,54298.562112987034,54298.562112987034,54298.562112987034,54298.562112987034,54298.562112987034,54298.562112987034,54298.562112987034,54298.562112987034,54298.562112987034,54298.562112987034,54298.562112987034,54298.562112987034,54298.562112987034,54298.562112987034,54298.562112987034,54298.562112987034,54298.562112987034,54298.562112987034,54298.562112987034,54298.562112987034,54298.562112987034,54298.562112987034,54298.562112987034,54298.562112987034,54298.562112987034,54298.562112987034,54298.562112987034,54298.562112987034,54298.562112987034,54298.562112987034,54298.562112987034,54298.562112987034,54298.562112987034,54298.562112987034,54298.562112987034,54298.562112987034,54298.562112987034,54298.562112987034,54298.562112987034,54298.562112987034,54298.562112987034,54298.562112987034,54298.562112987034,54298.562112987034,54298.562112987034,54298.562112987034,54298.562112987034,54298.562112987034,54298.562112987034,54298.562112987034,54298.562112987034,54298.562112987034,54298.562112987034,54298.562112987034,54298.562112987034,54298.562112987034,54298.562112987034,54298.562112987034,54298.562112987034,54298.562112987034,54298.562112987034,54298.562112987034,54298.562112987034,54298.562112987034,54298.562112987034,54298.562112987034,54298.562112987034,54298.562112987034,54298.562112987034,54298.562112987034,54298.562112987034,54298.562112987034,54298.562112987034,54298.562112987034,54298.562112987034,54298.562112987034,54298.562112987034,54298.562112987034,54298.562112987034,54298.562112987034,54298.562112987034,54298.562112987034,54298.562112987034,54298.562112987034,54298.562112987034,54298.562112987034,54298.562112987034,54298.562112987034,54298.562112987034,54298.562112987034,54298.562112987034,54298.562112987034,54298.562112987034,54298.562112987034,54298.562112987034,54298.562112987034,54298.562112987034,54298.562112987034,54298.562112987034,54298.562112987034,54298.562112987034,54298.562112987034,54298.562112987034,54298.562112987034,54298.562112987034,54298.562112987034,54298.562112987034,54298.562112987034,54298.562112987034,54298.562112987034,54298.562112987034,54298.562112987034,54298.562112987034,54298.562112987034,54298.562112987034,54298.562112987034,54298.562112987034,54298.562112987034,54298.562112987034,54298.562112987034,54298.562112987034,54298.562112987034,54298.562112987034,54298.562112987034,54298.562112987034,54298.562112987034,54298.562112987034,54298.562112987034,54298.562112987034,54298.562112987034,54298.562112987034,54298.562112987034,54298.562112987034,54298.562112987034,54298.562112987034,54298.562112987034,54298.562112987034,54298.562112987034,54298.562112987034,54298.562112987034,54298.562112987034,54298.562112987034,54298.562112987034,54298.562112987034,54298.562112987034,54298.562112987034,54298.562112987034,54298.562112987034,54298.562112987034,54298.562112987034,54298.562112987034,54298.562112987034,54298.562112987034,54298.562112987034,54298.562112987034,54298.562112987034,54298.562112987034,54298.562112987034,54298.562112987034,54298.562112987034,54298.562112987034,54298.562112987034,54298.562112987034,54298.562112987034,54298.562112987034,54298.562112987034,54298.562112987034,54298.562112987034,54298.562112987034,54298.562112987034,54298.562112987034,54298.562112987034,54298.562112987034,54298.562112987034,54298.562112987034,54298.562112987034,54298.562112987034,54298.562112987034,54298.562112987034,54298.562112987034,54298.562112987034,54298.562112987034,54298.562112987034,54298.562112987034,54298.562112987034,54298.562112987034,54298.562112987034,54298.562112987034,54298.562112987034,54298.562112987034,54298.562112987034,54298.562112987034,54298.562112987034,54298.562112987034,54298.562112987034,54298.562112987034,54298.562112987034,54298.562112987034,54298.562112987034,54298.562112987034,54298.562112987034,54298.562112987034,54298.562112987034,54298.562112987034,54298.562112987034,54298.562112987034,54298.562112987034,54298.562112987034,54298.562112987034,54298.562112987034,54298.562112987034,54298.562112987034,54298.562112987034,54298.562112987034,54298.562112987034,54298.562112987034,54298.562112987034,54298.562112987034,54298.562112987034,54298.562112987034,54298.562112987034,54298.562112987034,54298.562112987034,54298.562112987034,54298.562112987034,54298.562112987034,54298.562112987034,54298.562112987034,54298.562112987034,54298.562112987034,54298.562112987034,54298.562112987034,54298.562112987034,54298.562112987034,54298.562112987034,54298.562112987034,54298.562112987034,54298.562112987034,54298.562112987034,54298.562112987034,54298.562112987034,54298.562112987034,54298.562112987034,54298.562112987034,54298.562112987034,54298.562112987034,54298.562112987034,54298.562112987034,54298.562112987034,54298.562112987034,54298.562112987034,54298.562112987034,54298.562112987034,54298.562112987034,54298.562112987034,54298.562112987034,54298.562112987034,54298.562112987034,54298.562112987034,54298.562112987034,54298.562112987034,54298.562112987034,54298.562112987034,54298.562112987034,54298.562112987034,54298.562112987034,54298.562112987034,54298.562112987034,54298.562112987034,54298.562112987034,54298.562112987034,54298.562112987034,54298.562112987034,54298.562112987034,54298.562112987034,54298.562112987034,54298.562112987034,54298.562112987034,54298.562112987034,54298.562112987034,54298.562112987034,54298.562112987034,54298.562112987034,54298.562112987034,54298.562112987034,54298.562112987034,54298.562112987034,54298.562112987034,54298.562112987034,54298.562112987034,54298.562112987034,54298.562112987034,54298.562112987034,54298.562112987034,54298.562112987034,54298.562112987034,54298.562112987034,54298.562112987034,54298.562112987034,54298.562112987034,54298.562112987034,54298.562112987034,54298.562112987034,54298.562112987034,54298.562112987034,54298.562112987034,54298.562112987034,54298.562112987034,54298.562112987034,54298.562112987034,54298.562112987034,54298.562112987034,54298.562112987034,54298.562112987034,54298.562112987034,54298.562112987034,54298.562112987034,54298.562112987034,54298.562112987034,54298.562112987034,54298.562112987034,54298.562112987034,54298.562112987034,54298.562112987034,54298.562112987034,54298.562112987034,54298.562112987034,54298.562112987034,54298.562112987034,54298.562112987034,54298.562112987034,54298.562112987034,54298.562112987034,54298.562112987034,54298.562112987034,54298.562112987034,54298.562112987034,54298.562112987034,54298.562112987034,54298.562112987034,54298.562112987034,54298.562112987034,54298.562112987034,54298.562112987034,54298.562112987034,54298.562112987034,54298.562112987034,54298.562112987034,54298.562112987034,54298.562112987034,54298.562112987034,54298.562112987034,54298.562112987034,54298.562112987034,54298.562112987034,54298.562112987034,54298.562112987034,54298.562112987034,54298.562112987034,54298.562112987034,54298.562112987034,54298.562112987034,54298.562112987034,54298.562112987034,54298.562112987034,54298.562112987034,54298.562112987034,54298.562112987034,54298.562112987034,54298.562112987034,54298.562112987034,54298.562112987034,54298.562112987034,54298.562112987034,54298.562112987034,54298.562112987034,54298.562112987034,54298.562112987034,54298.562112987034,54298.562112987034,54298.562112987034,54298.562112987034,54298.562112987034,54298.562112987034,54298.562112987034,54298.562112987034,54298.562112987034,54298.562112987034,54298.562112987034,54298.562112987034,54298.562112987034,54298.562112987034,54298.562112987034,54298.562112987034,54298.562112987034,54298.562112987034,54298.562112987034,54298.562112987034,54298.562112987034,54298.562112987034,54298.562112987034,54298.562112987034,54298.562112987034,54298.562112987034,54298.562112987034,54298.562112987034,54298.562112987034,54298.562112987034,54298.562112987034,54298.562112987034,54298.562112987034,54298.562112987034,54298.562112987034,54298.562112987034,54298.562112987034,54298.562112987034,54298.562112987034,54298.562112987034,54298.562112987034,54298.562112987034,54298.562112987034,54298.562112987034,54298.562112987034,54298.562112987034,54298.562112987034,54298.562112987034,54298.562112987034,54298.562112987034,54298.562112987034,54298.562112987034,54298.562112987034,54298.562112987034,54298.562112987034,54298.562112987034,54298.562112987034,54298.562112987034,54298.562112987034,54298.562112987034,54298.562112987034,54298.562112987034,54298.562112987034,54298.562112987034,54298.562112987034,54298.562112987034,54298.562112987034,54298.562112987034,54298.562112987034,54298.562112987034,54298.562112987034,54298.562112987034,54298.562112987034,54298.562112987034,54298.562112987034,54298.562112987034,54298.562112987034,54298.562112987034,54298.562112987034,54298.562112987034,54298.562112987034,54298.562112987034,54298.562112987034,54298.562112987034,54298.562112987034,54298.562112987034,54298.562112987034,54298.562112987034,54298.562112987034,54298.562112987034,54298.562112987034,54298.562112987034,54298.562112987034,54298.562112987034,54298.562112987034,54298.562112987034,54298.562112987034,54298.562112987034,54298.562112987034,54298.562112987034,54298.562112987034,54298.562112987034,54298.562112987034,54298.562112987034,54298.562112987034,54298.562112987034,54298.562112987034,54298.562112987034,54298.562112987034,54298.562112987034,54298.562112987034,54298.562112987034,54298.562112987034,54298.562112987034,54298.562112987034,54298.562112987034,54298.562112987034,54298.562112987034,54298.562112987034,54298.562112987034,54298.562112987034,54298.562112987034,54298.562112987034,54298.562112987034,54298.562112987034,54298.562112987034,54298.562112987034,54298.562112987034,54298.562112987034,54298.562112987034,54298.562112987034,54298.562112987034,54298.562112987034,54298.562112987034,54298.562112987034,54298.562112987034,54298.562112987034,54298.562112987034,54298.562112987034,54298.562112987034,54298.562112987034,54298.562112987034,54298.562112987034,54298.562112987034,54298.562112987034,54298.562112987034,54298.562112987034,54298.562112987034,54298.562112987034,54298.562112987034,54298.562112987034,54298.562112987034,54298.562112987034,54298.562112987034,54298.562112987034,54298.562112987034,54298.562112987034,54298.562112987034,54298.562112987034,54298.562112987034,54298.562112987034,54298.562112987034,54298.562112987034,54298.562112987034,54298.562112987034,54298.562112987034,54298.562112987034,54298.562112987034,54298.562112987034,54298.562112987034,54298.562112987034,54298.562112987034,54298.562112987034,54298.562112987034,54298.562112987034,54298.562112987034,54298.562112987034,54298.562112987034,54298.562112987034,54298.562112987034,54298.562112987034
1,1589.2458303890553,1589.245830389055,1589.245830389055,1589.245830389055,1589.2458303890548,1589.2458303890548,1589.2458303890546,1589.2458303890546,1589.2458303890544,1589.2458303890544,1589.2458303890542,1589.2458303890542,1589.2458303890542,1589.245830389054,1589.245830389054,1589.2458303890537,1589.2458303890537,1589.2458303890535,1589.2458303890535,1589.2458303890535,1589.2458303890533,1589.2458303890533,1589.245830389053,1589.245830389053,1589.2458303890528,1589.2458303890528,1589.2458303890528,1589.2458303890526,1589.2458303890526,1589.2458303890523,1589.2458303890523,1589.2458303890521,1589.2458303890521,1589.245830389052,1589.245830389052,1589.245830389052,1589.2458303890517,1589.2458303890517,1589.2458303890514,1589.2458303890514,1589.2458303890512,1589.2458303890512,1589.2458303890512,1589.245830389051,1589.245830389051,1589.2458303890508,1589.2458303890508,1589.2458303890505,1589.2458303890505,1589.2458303890505,1589.2458303890503,1589.2458303890503,1589.24583038905,1589.24583038905,1589.2458303890498,1589.2458303890498,1589.2458303890498,1589.2458303890496,1589.2458303890496,1589.2458303890494,1589.2458303890494,1589.2458303890494,1589.2458303890492,1589.2458303890492,1589.245830389049,1589.245830389049,1589.2458303890487,1589.2458303890487,1589.2458303890487,1589.2458303890485,1589.2458303890485,1589.2458303890483,1589.2458303890483,1589.245830389048,1589.245830389048,1589.245830389048,1589.2458303890478,1589.2458303890478,1589.2458303890476,1589.2458303890476,1589.2458303890476,1589.2458303890473,1589.2458303890473,1589.2458303890471,1589.2458303890471,1589.245830389047,1589.245830389047,1589.245830389047,1589.2458303890467,1589.2458303890467,1589.2458303890464,1589.2458303890464,1589.2458303890462,1589.2458303890462,1589.2458303890462,1589.245830389046,1589.245830389046,1589.2458303890458,1589.2458303890458,1589.2458303890458,1589.2458303890455,1589.2458303890455,1589.2458303890453,1589.2458303890453,1589.2458303890453,1589.245830389045,1589.245830389045,1589.2458303890448,1589.2458303890448,1589.2458303890446,1589.2458303890446,1589.2458303890446,1589.2458303890444,1589.2458303890444,1589.2458303890442,1589.2458303890442,1589.2458303890442,1589.245830389044,1589.245830389044,1589.2458303890437,1589.2458303890437,1589.2458303890437,1589.2458303890435,1589.2458303890435,1589.2458303890432,1589.2458303890432,1589.2458303890432,1589.245830389043,1589.245830389043,1589.2458303890428,1589.2458303890428,1589.2458303890426,1589.2458303890426,1589.2458303890426,1589.2458303890423,1589.2458303890423,1589.245830389042,1589.245830389042,1589.245830389042,1589.2458303890419,1589.2458303890419,1589.2458303890417,1589.2458303890417,1589.2458303890417,1589.2458303890414,1589.2458303890414,1589.2458303890412,1589.2458303890412,1589.2458303890412,1589.245830389041,1589.245830389041,1589.2458303890407,1589.2458303890407,1589.2458303890407,1589.2458303890405,1589.2458303890405,1589.2458303890403,1589.2458303890403,1589.2458303890403,1589.24583038904,1589.24583038904,1589.2458303890398,1589.2458303890398,1589.2458303890398,1589.2458303890396,1589.2458303890396,1589.2458303890394,1589.2458303890394,1589.2458303890394,1589.2458303890392,1589.2458303890392,1589.245830389039,1589.245830389039,1589.245830389039,1589.2458303890387,1589.2458303890387,1589.2458303890385,1589.2458303890385,1589.2458303890385,1589.2458303890382,1589.2458303890382,1589.245830389038,1589.245830389038,1589.245830389038,1589.2458303890378,1589.2458303890378,1589.2458303890378,1589.2458303890376,1589.2458303890376,1589.2458303890373,1589.2458303890373,1589.2458303890373,1589.245830389037,1589.245830389037,1589.2458303890369,1589.2458303890369,1589.2458303890369,1589.2458303890367,1589.2458303890367,1589.2458303890364,1589.2458303890364,1589.2458303890364,1589.2458303890362,1589.2458303890362,1589.245830389036,1589.245830389036,1589.245830389036,1589.2458303890357,1589.2458303890357,1589.2458303890357,1589.2458303890355,1589.2458303890355,1589.2458303890353,1589.2458303890353,1589.2458303890353,1589.245830389035,1589.245830389035,1589.2458303890348,1589.2458303890348,1589.2458303890348,1589.2458303890346,1589.2458303890346,1589.2458303890346,1589.2458303890344,1589.2458303890344,1589.2458303890342,1589.2458303890342,1589.2458303890342,1589.245830389034,1589.245830389034,1589.2458303890337,1589.2458303890337,1589.2458303890337,1589.2458303890335,1589.2458303890335,1589.2458303890335,1589.2458303890332,1589.2458303890332,1589.245830389033,1589.245830389033,1589.245830389033,1589.2458303890328,1589.2458303890328,1589.2458303890328,1589.2458303890326,1589.2458303890326,1589.2458303890323,1589.2458303890323,1589.2458303890323,1589.245830389032,1589.245830389032,1589.2458303890319,1589.2458303890319,1589.2458303890319,1589.2458303890317,1589.2458303890317,1589.2458303890317,1589.2458303890314,1589.2458303890314,1589.2458303890312,1589.2458303890312,1589.2458303890312,1589.245830389031,1589.245830389031,1589.245830389031,1589.2458303890307,1589.2458303890307,1589.2458303890305,1589.2458303890305,1589.2458303890305,1589.2458303890303,1589.2458303890303,1589.2458303890303,1589.24583038903,1589.24583038903,1589.2458303890298,1589.2458303890298,1589.2458303890298,1589.2458303890296,1589.2458303890296,1589.2458303890296,1589.2458303890294,1589.2458303890294,1589.2458303890294,1589.2458303890292,1589.2458303890292,1589.245830389029,1589.245830389029,1589.245830389029,1589.2458303890287,1589.2458303890287,1589.2458303890287,1589.2458303890285,1589.2458303890285,1589.2458303890282,1589.2458303890282,1589.2458303890282,1589.245830389028,1589.245830389028,1589.245830389028,1589.2458303890278,1589.2458303890278,1589.2458303890278,1589.2458303890276,1589.2458303890276,1589.2458303890273,1589.2458303890273,1589.2458303890273,1589.245830389027,1589.245830389027,1589.245830389027,1589.2458303890269,1589.2458303890269,1589.2458303890267,1589.2458303890267,1589.2458303890267,1589.2458303890264,1589.2458303890264,1589.2458303890264,1589.2458303890262,1589.2458303890262,1589.2458303890262,1589.245830389026,1589.245830389026,1589.2458303890257,1589.2458303890257,1589.2458303890257,1589.2458303890255,1589.2458303890255,1589.2458303890255,1589.2458303890253,1589.2458303890253,1589.2458303890253,1589.245830389025,1589.245830389025,1589.245830389025,1589.2458303890248,1589.2458303890248,1589.2458303890246,1589.2458303890246,1589.2458303890246,1589.2458303890244,1589.2458303890244,1589.2458303890244,1589.2458303890241,1589.2458303890241,1589.2458303890241,1589.245830389024,1589.245830389024,1589.245830389024,1589.2458303890237,1589.2458303890237,1589.2458303890235,1589.2458303890235,1589.2458303890235,1589.2458303890232,1589.2458303890232,1589.2458303890232,1589.245830389023,1589.245830389023,1589.245830389023,1589.2458303890228,1589.2458303890228,1589.2458303890228,1589.2458303890226,1589.2458303890226,1589.2458303890223,1589.2458303890223,1589.2458303890223,1589.245830389022,1589.245830389022,1589.245830389022,1589.2458303890219,1589.2458303890219,1589.2458303890219,1589.2458303890216,1589.2458303890216,1589.2458303890216,1589.2458303890214,1589.2458303890214,1589.2458303890214,1589.2458303890212,1589.2458303890212,1589.245830389021,1589.245830389021,1589.245830389021,1589.2458303890207,1589.2458303890207,1589.2458303890207,1589.2458303890205,1589.2458303890205,1589.2458303890205,1589.2458303890203,1589.2458303890203,1589.2458303890203,1589.24583038902,1589.24583038902,1589.24583038902,1589.2458303890198,1589.2458303890198,1589.2458303890198,1589.2458303890196,1589.2458303890196,1589.2458303890196,1589.2458303890194,1589.2458303890194,1589.2458303890191,1589.2458303890191,1589.2458303890191,1589.245830389019,1589.245830389019,1589.245830389019,1589.2458303890187,1589.2458303890187,1589.2458303890187,1589.2458303890185,1589.2458303890185,1589.2458303890185,1589.2458303890182,1589.2458303890182,1589.2458303890182,1589.245830389018,1589.245830389018,1589.245830389018,1589.2458303890178,1589.2458303890178,1589.2458303890178,1589.2458303890176,1589.2458303890176,1589.2458303890176,1589.2458303890173,1589.2458303890173,1589.2458303890173,1589.245830389017,1589.245830389017,1589.245830389017,1589.2458303890169,1589.2458303890169,1589.2458303890169,1589.2458303890166,1589.2458303890166,1589.2458303890166,1589.2458303890164,1589.2458303890164,1589.2458303890162,1589.2458303890162,1589.2458303890162,1589.245830389016,1589.245830389016,1589.245830389016,1589.2458303890157,1589.2458303890157,1589.2458303890157,1589.2458303890155,1589.2458303890155,1589.2458303890155,1589.2458303890153,1589.2458303890153,1589.2458303890153,1589.245830389015,1589.245830389015,1589.245830389015,1589.2458303890148,1589.2458303890148,1589.2458303890148,1589.2458303890146,1589.2458303890146,1589.2458303890146,1589.2458303890144,1589.2458303890144,1589.2458303890144,1589.2458303890141,1589.2458303890141,1589.2458303890141,1589.245830389014,1589.245830389014,1589.245830389014,1589.2458303890137,1589.2458303890137,1589.2458303890137,1589.2458303890135,1589.2458303890135,1589.2458303890135,1589.2458303890132,1589.2458303890132,1589.2458303890132,1589.245830389013,1589.245830389013,1589.245830389013,1589.2458303890128,1589.2458303890128,1589.2458303890128,1589.2458303890126,1589.2458303890126,1589.2458303890126,1589.2458303890123,1589.2458303890123,1589.2458303890123,1589.2458303890123,1589.245830389012,1589.245830389012,1589.245830389012,1589.2458303890119,1589.2458303890119,1589.2458303890119,1589.2458303890116,1589.2458303890116,1589.2458303890116,1589.2458303890114,1589.2458303890114,1589.2458303890114,1589.2458303890112,1589.2458303890112,1589.2458303890112,1589.245830389011,1589.245830389011,1589.245830389011,1589.2458303890107,1589.2458303890107,1589.2458303890107,1589.2458303890105,1589.2458303890105,1589.2458303890105,1589.2458303890103,1589.2458303890103,1589.2458303890103,1589.24583038901,1589.24583038901,1589.24583038901,1589.2458303890098,1589.2458303890098,1589.2458303890098,1589.2458303890096,1589.2458303890096,1589.2458303890096,1589.2458303890094,1589.2458303890094,1589.2458303890094,1589.2458303890094,1589.2458303890091,1589.2458303890091,1589.2458303890091,1589.245830389009,1589.245830389009,1589.245830389009,1589.2458303890087,1589.2458303890087,1589.2458303890087,1589.2458303890085,1589.2458303890085,1589.2458303890085,1589.2458303890082,1589.2458303890082,1589.2458303890082,1589.245830389008,1589.245830389008,1589.245830389008,1589.2458303890078,1589.2458303890078,1589.2458303890078,1589.2458303890076,1589.2458303890076,1589.2458303890076,1589.2458303890076,1589.2458303890073,1589.2458303890073,1589.2458303890073,1589.245830389007,1589.245830389007,1589.245830389007,1589.2458303890069,1589.2458303890069,1589.2458303890069,1589.2458303890066,1589.2458303890066,1589.2458303890066,1589.2458303890064,1589.2458303890064,1589.2458303890064,1589.2458303890062,1589.2458303890062,1589.2458303890062,1589.2458303890062,1589.245830389006,1589.245830389006,1589.245830389006,1589.2458303890057,1589.2458303890057,1589.2458303890057,1589.2458303890055,1589.2458303890055,1589.2458303890055,1589.2458303890053,1589.2458303890053,1589.2458303890053,1589.245830389005,1589.245830389005,1589.245830389005,1589.245830389005,1589.2458303890048,1589.2458303890048,1589.2458303890048,1589.2458303890046,1589.2458303890046,1589.2458303890046,1589.2458303890044,1589.2458303890044,1589.2458303890044,1589.2458303890041,1589.2458303890041,1589.2458303890041,1589.2458303890041,1589.245830389004,1589.245830389004,1589.245830389004,1589.2458303890037,1589.2458303890037,1589.2458303890037,1589.2458303890035,1589.2458303890035,1589.2458303890035,1589.2458303890032,1589.2458303890032,1589.2458303890032,1589.2458303890032,1589.245830389003,1589.245830389003,1589.245830389003,1589.2458303890028,1589.2458303890028,1589.2458303890028,1589.2458303890025,1589.2458303890025,1589.2458303890025,1589.2458303890023,1589.2458303890023,1589.2458303890023,1589.2458303890023,1589.245830389002,1589.245830389002,1589.245830389002,1589.2458303890019,1589.2458303890019,1589.2458303890019,1589.2458303890016,1589.2458303890016,1589.2458303890016,1589.2458303890014,1589.2458303890014,1589.2458303890014,1589.2458303890014,1589.2458303890012,1589.2458303890012,1589.2458303890012,1589.245830389001,1589.245830389001,1589.245830389001,1589.2458303890007,1589.2458303890007,1589.2458303890007,1589.2458303890007,1589.2458303890005,1589.2458303890005,1589.2458303890005,1589.2458303890003,1589.2458303890003,1589.2458303890003,1589.245830389,1589.245830389,1589.245830389,1589.245830389,1589.2458303889998,1589.2458303889998,1589.2458303889998,1589.2458303889996,1589.2458303889996,1589.2458303889996,1589.2458303889994,1589.2458303889994,1589.2458303889994,1589.2458303889994,1589.2458303889991,1589.2458303889991,1589.2458303889991,1589.245830388999,1589.245830388999,1589.245830388999,1589.2458303889987,1589.2458303889987,1589.2458303889987,1589.2458303889987,1589.2458303889985,1589.2458303889985,1589.2458303889985,1589.2458303889982,1589.2458303889982,1589.2458303889982,1589.2458303889982,1589.245830388998,1589.245830388998,1589.245830388998,1589.2458303889978,1589.2458303889978,1589.2458303889978,1589.2458303889975,1589.2458303889975,1589.2458303889975,1589.2458303889975,1589.2458303889973,1589.2458303889973,1589.2458303889973,1589.245830388997,1589.245830388997,1589.245830388997,1589.245830388997,1589.2458303889969,1589.2458303889969,1589.2458303889969,1589.2458303889966,1589.2458303889966,1589.2458303889966,1589.2458303889964,1589.2458303889964,1589.2458303889964,1589.2458303889964,1589.2458303889962,1589.2458303889962,1589.2458303889962,1589.245830388996,1589.245830388996,1589.245830388996,1589.245830388996,1589.2458303889957,1589.2458303889957,1589.2458303889957,1589.2458303889955,1589.2458303889955,1589.2458303889955,1589.2458303889955,1589.2458303889953,1589.2458303889953,1589.2458303889953,1589.245830388995,1589.245830388995,1589.245830388995,1589.245830388995,1589.2458303889948,1589.2458303889948,1589.2458303889948,1589.2458303889946,1589.2458303889946,1589.2458303889946,1589.2458303889946,1589.2458303889944,1589.2458303889944,1589.2458303889944,1589.2458303889941,1589.2458303889941,1589.2458303889941,1589.2458303889941,1589.245830388994,1589.245830388994,1589.245830388994,1589.2458303889937,1589.2458303889937,1589.2458303889937,1589.2458303889937,1589.2458303889935,1589.2458303889935,1589.2458303889935,1589.2458303889932,1589.2458303889932,1589.2458303889932,1589.2458303889932,1589.245830388993,1589.245830388993,1589.245830388993,1589.2458303889928,1589.2458303889928,1589.2458303889928,1589.2458303889928,1589.2458303889925,1589.2458303889925,1589.2458303889925,1589.2458303889923,1589.2458303889923,1589.2458303889923,1589.2458303889923,1589.245830388992,1589.245830388992,1589.245830388992,1589.2458303889919,1589.2458303889919,1589.2458303889919,1589.2458303889919,1589.2458303889916,1589.2458303889916,1589.2458303889916,1589.2458303889914,1589.2458303889914,1589.2458303889914,1589.2458303889914,1589.2458303889912,1589.2458303889912,1589.2458303889912,1589.2458303889912,1589.245830388991,1589.245830388991,1589.245830388991,1589.2458303889907,1589.2458303889907,1589.2458303889907,1589.2458303889907,1589.2458303889905,1589.2458303889905,1589.2458303889905,1589.2458303889903,1589.2458303889903,1589.2458303889903,1589.2458303889903,1589.24583038899,1589.24583038899,1589.24583038899,1589.24583038899,1589.2458303889898,1589.2458303889898,1589.2458303889898,1589.2458303889896,1589.2458303889896,1589.2458303889896,1589.2458303889896,1589.2458303889894,1589.2458303889894,1589.2458303889894,1589.2458303889891,1589.2458303889891,1589.2458303889891,1589.2458303889891,1589.245830388989,1589.245830388989,1589.245830388989,1589.245830388989,1589.2458303889887,1589.2458303889887,1589.2458303889887,1589.2458303889885,1589.2458303889885,1589.2458303889885,1589.2458303889885,1589.2458303889882,1589.2458303889882,1589.2458303889882,1589.2458303889882,1589.245830388988,1589.245830388988,1589.245830388988,1589.2458303889878,1589.2458303889878,1589.2458303889878,1589.2458303889878,1589.2458303889875,1589.2458303889875,1589.2458303889875,1589.2458303889875,1589.2458303889873,1589.2458303889873,1589.2458303889873,1589.245830388987,1589.245830388987,1589.245830388987,1589.245830388987,1589.2458303889869,1589.2458303889869,1589.2458303889869,1589.2458303889869,1589.2458303889866,1589.2458303889866,1589.2458303889866,1589.2458303889864,1589.2458303889864,1589.2458303889864,1589.2458303889864,1589.2458303889862,1589.2458303889862,1589.2458303889862,1589.2458303889862,1589.245830388986,1589.245830388986,1589.245830388986,1589.245830388986,1589.2458303889857,1589.2458303889857,1589.2458303889857,1589.2458303889855,1589.2458303889855,1589.2458303889855,1589.2458303889855,1589.2458303889853,1589.2458303889853,1589.2458303889853,1589.2458303889853,1589.245830388985,1589.245830388985,1589.245830388985,1589.245830388985,1589.2458303889848,1589.2458303889848,1589.2458303889848,1589.2458303889846,1589.2458303889846,1589.2458303889846,1589.2458303889846,1589.2458303889844,1589.2458303889844,1589.2458303889844,1589.2458303889844,1589.2458303889841,1589.2458303889841,1589.2458303889841,1589.2458303889841,1589.245830388984,1589.245830388984,1589.245830388984,1589.245830388984,1589.2458303889837,1589.2458303889837,1589.2458303889837,1589.2458303889834,1589.2458303889834,1589.2458303889834,1589.2458303889834,1589.2458303889832,1589.2458303889832,1589.2458303889832,1589.2458303889832,1589.245830388983,1589.245830388983,1589.245830388983,1589.245830388983,1589.2458303889828,1589.2458303889828,1589.2458303889828,1589.2458303889828,1589.2458303889825,1589.2458303889825,1589.2458303889825,1589.2458303889823,1589.2458303889823,1589.2458303889823,1589.2458303889823,1589.245830388982,1589.245830388982,1589.245830388982,1589.245830388982,1589.2458303889819,1589.2458303889819,1589.2458303889819,1589.2458303889819,1589.2458303889816,1589.2458303889816,1589.2458303889816,1589.2458303889816,1589.2458303889814,1589.2458303889814,1589.2458303889814,1589.2458303889814,1589.2458303889812,1589.2458303889812,1589.2458303889812,1589.2458303889812,1589.245830388981,1589.245830388981,1589.245830388981,1589.2458303889807,1589.2458303889807,1589.2458303889807,1589.2458303889807,1589.2458303889805,1589.2458303889805,1589.2458303889805,1589.2458303889805,1589.2458303889803,1589.2458303889803,1589.2458303889803,1589.2458303889803,1589.24583038898,1589.24583038898,1589.24583038898,1589.24583038898,1589.2458303889798,1589.2458303889798,1589.2458303889798,1589.2458303889798,1589.2458303889796,1589.2458303889796,1589.2458303889796,1589.2458303889796,1589.2458303889794,1589.2458303889794,1589.2458303889794,1589.2458303889794,1589.2458303889791,1589.2458303889791,1589.2458303889791,1589.2458303889791,1589.245830388979,1589.245830388979,1589.245830388979,1589.245830388979,1589.2458303889787,1589.2458303889787,1589.2458303889787,1589.2458303889787,1589.2458303889784,1589.2458303889784,1589.2458303889784,1589.2458303889784,1589.2458303889782,1589.2458303889782,1589.2458303889782,1589.2458303889782,1589.245830388978,1589.245830388978,1589.245830388978,1589.245830388978,1589.2458303889778,1589.2458303889778,1589.2458303889778,1589.2458303889778,1589.2458303889775,1589.2458303889775,1589.2458303889775,1589.2458303889775,1589.2458303889773,1589.2458303889773,1589.2458303889773,1589.2458303889773,1589.245830388977,1589.245830388977,1589.245830388977,1589.245830388977,1589.2458303889769,1589.2458303889769,1589.2458303889769,1589.2458303889769,1589.2458303889766,1589.2458303889766,1589.2458303889766,1589.2458303889766,1589.2458303889764,1589.2458303889764,1589.2458303889764,1589.2458303889764,1589.2458303889762,1589.2458303889762,1589.2458303889762,1589.2458303889762,1589.245830388976,1589.245830388976,1589.245830388976,1589.245830388976,1589.2458303889757,1589.2458303889757,1589.2458303889757,1589.2458303889757,1589.2458303889755,1589.2458303889755,1589.2458303889755,1589.2458303889755,1589.2458303889753,1589.2458303889753,1589.2458303889753,1589.2458303889753,1589.245830388975,1589.245830388975,1589.245830388975,1589.245830388975,1589.2458303889748,1589.2458303889748,1589.2458303889748,1589.2458303889748,1589.2458303889746,1589.2458303889746,1589.2458303889746,1589.2458303889746,1589.2458303889744,1589.2458303889744,1589.2458303889744,1589.2458303889744,1589.2458303889741,1589.2458303889741,1589.2458303889741,1589.2458303889741,1589.2458303889741,1589.245830388974,1589.245830388974,1589.245830388974,1589.245830388974,1589.2458303889737,1589.2458303889737,1589.2458303889737,1589.2458303889737,1589.2458303889734,1589.2458303889734,1589.2458303889734,1589.2458303889734,1589.2458303889732,1589.2458303889732,1589.2458303889732,1589.2458303889732,1589.245830388973,1589.245830388973,1589.245830388973,1589.245830388973,1589.2458303889728,1589.2458303889728,1589.2458303889728,1589.2458303889728,1589.2458303889725,1589.2458303889725,1589.2458303889725,1589.2458303889725,1589.2458303889725,1589.2458303889723,1589.2458303889723,1589.2458303889723,1589.2458303889723,1589.245830388972,1589.245830388972,1589.245830388972,1589.245830388972,1589.2458303889719,1589.2458303889719,1589.2458303889719,1589.2458303889719,1589.2458303889716,1589.2458303889716,1589.2458303889716,1589.2458303889716,1589.2458303889714,1589.2458303889714,1589.2458303889714,1589.2458303889714,1589.2458303889714,1589.2458303889712,1589.2458303889712,1589.2458303889712,1589.2458303889712,1589.245830388971,1589.245830388971,1589.245830388971,1589.245830388971,1589.2458303889707,1589.2458303889707,1589.2458303889707,1589.2458303889707,1589.2458303889705,1589.2458303889705,1589.2458303889705,1589.2458303889705,1589.2458303889705,1589.2458303889703,1589.2458303889703,1589.2458303889703,1589.2458303889703,1589.24583038897,1589.24583038897,1589.24583038897,1589.24583038897,1589.2458303889698,1589.2458303889698,1589.2458303889698,1589.2458303889698,1589.2458303889696,1589.2458303889696,1589.2458303889696,1589.2458303889696,1589.2458303889696,1589.2458303889694,1589.2458303889694,1589.2458303889694,1589.2458303889694,1589.2458303889691,1589.2458303889691,1589.2458303889691,1589.2458303889691,1589.245830388969,1589.245830388969,1589.245830388969,1589.245830388969,1589.2458303889687,1589.2458303889687,1589.2458303889687,1589.2458303889687,1589.2458303889687,1589.2458303889684,1589.2458303889684,1589.2458303889684,1589.2458303889684,1589.2458303889682,1589.2458303889682,1589.2458303889682,1589.2458303889682,1589.245830388968,1589.245830388968,1589.245830388968,1589.245830388968,1589.245830388968,1589.2458303889678,1589.2458303889678,1589.2458303889678,1589.2458303889678,1589.2458303889675,1589.2458303889675,1589.2458303889675,1589.2458303889675,1589.2458303889673,1589.2458303889673,1589.2458303889673,1589.2458303889673,1589.2458303889673,1589.245830388967,1589.245830388967,1589.245830388967,1589.245830388967,1589.2458303889669,1589.2458303889669,1589.2458303889669,1589.2458303889669,1589.2458303889669,1589.2458303889666,1589.2458303889666,1589.2458303889666,1589.2458303889666,1589.2458303889664,1589.2458303889664,1589.2458303889664,1589.2458303889664,1589.2458303889662,1589.2458303889662,1589.2458303889662,1589.2458303889662,1589.2458303889662,1589.245830388966,1589.245830388966,1589.245830388966,1589.245830388966,1589.2458303889657,1589.2458303889657,1589.2458303889657,1589.2458303889657,1589.2458303889657,1589.2458303889655,1589.2458303889655,1589.2458303889655,1589.2458303889655,1589.2458303889653,1589.2458303889653,1589.2458303889653,1589.2458303889653,1589.2458303889653,1589.245830388965,1589.245830388965,1589.245830388965,1589.245830388965,1589.2458303889648,1589.2458303889648,1589.2458303889648,1589.2458303889648,1589.2458303889646,1589.2458303889646,1589.2458303889646,1589.2458303889646,1589.2458303889646,1589.2458303889644,1589.2458303889644,1589.2458303889644,1589.2458303889644,1589.2458303889641,1589.2458303889641,1589.2458303889641,1589.2458303889641,1589.2458303889641,1589.245830388964,1589.245830388964,1589.245830388964,1589.245830388964,1589.2458303889637,1589.2458303889637,1589.2458303889637,1589.2458303889637,1589.2458303889637,1589.2458303889634,1589.2458303889634,1589.2458303889634,1589.2458303889634,1589.2458303889632,1589.2458303889632,1589.2458303889632,1589.2458303889632,1589.2458303889632,1589.245830388963,1589.245830388963,1589.245830388963,1589.245830388963,1589.2458303889628,1589.2458303889628,1589.2458303889628,1589.2458303889628,1589.2458303889628,1589.2458303889625,1589.2458303889625,1589.2458303889625,1589.2458303889625,1589.2458303889625,1589.2458303889623,1589.2458303889623,1589.2458303889623,1589.2458303889623,1589.245830388962,1589.245830388962,1589.245830388962,1589.245830388962,1589.245830388962,1589.2458303889618,1589.2458303889618,1589.2458303889618,1589.2458303889618,1589.2458303889616,1589.2458303889616,1589.2458303889616,1589.2458303889616,1589.2458303889616,1589.2458303889614,1589.2458303889614,1589.2458303889614,1589.2458303889614,1589.2458303889612,1589.2458303889612,1589.2458303889612,1589.2458303889612,1589.2458303889612,1589.245830388961,1589.245830388961,1589.245830388961,1589.245830388961,1589.245830388961,1589.2458303889607,1589.2458303889607,1589.2458303889607,1589.2458303889607,1589.2458303889605,1589.2458303889605,1589.2458303889605,1589.2458303889605,1589.2458303889605,1589.2458303889603,1589.2458303889603,1589.2458303889603,1589.2458303889603,1589.2458303889603,1589.24583038896,1589.24583038896,1589.24583038896,1589.24583038896,1589.2458303889598,1589.2458303889598,1589.2458303889598,1589.2458303889598,1589.2458303889598,1589.2458303889596,1589.2458303889596,1589.2458303889596,1589.2458303889596,1589.2458303889596,1589.2458303889593,1589.2458303889593,1589.2458303889593,1589.2458303889593,1589.2458303889591,1589.2458303889591,1589.2458303889591,1589.2458303889591,1589.2458303889591,1589.245830388959,1589.245830388959,1589.245830388959,1589.245830388959,1589.245830388959,1589.2458303889587,1589.2458303889587,1589.2458303889587,1589.2458303889587,1589.2458303889584,1589.2458303889584,1589.2458303889584,1589.2458303889584,1589.2458303889584,1589.2458303889582,1589.2458303889582,1589.2458303889582,1589.2458303889582,1589.2458303889582,1589.245830388958,1589.245830388958,1589.245830388958,1589.245830388958,1589.245830388958,1589.2458303889578,1589.2458303889578,1589.2458303889578,1589.2458303889578,1589.2458303889575,1589.2458303889575,1589.2458303889575,1589.2458303889575,1589.2458303889575,1589.2458303889573,1589.2458303889573,1589.2458303889573,1589.2458303889573,1589.2458303889573,1589.245830388957,1589.245830388957,1589.245830388957,1589.245830388957,1589.245830388957,1589.2458303889568,1589.2458303889568,1589.2458303889568,1589.2458303889568,1589.2458303889568,1589.2458303889566,1589.2458303889566,1589.2458303889566,1589.2458303889566,1589.2458303889564,1589.2458303889564,1589.2458303889564,1589.2458303889564,1589.2458303889564,1589.2458303889562,1589.2458303889562,1589.2458303889562,1589.2458303889562,1589.2458303889562,1589.245830388956,1589.245830388956,1589.245830388956,1589.245830388956,1589.245830388956,1589.2458303889557,1589.2458303889557,1589.2458303889557,1589.2458303889557,1589.2458303889557,1589.2458303889555,1589.2458303889555,1589.2458303889555,1589.2458303889555,1589.2458303889555,1589.2458303889553,1589.2458303889553,1589.2458303889553,1589.2458303889553,1589.245830388955,1589.245830388955,1589.245830388955,1589.245830388955,1589.245830388955,1589.2458303889548,1589.2458303889548,1589.2458303889548,1589.2458303889548,1589.2458303889548,1589.2458303889546,1589.2458303889546,1589.2458303889546,1589.2458303889546,1589.2458303889546,1589.2458303889543,1589.2458303889543,1589.2458303889543,1589.2458303889543,1589.2458303889543,1589.2458303889541,1589.2458303889541,1589.2458303889541,1589.2458303889541,1589.2458303889541,1589.245830388954,1589.245830388954,1589.245830388954,1589.245830388954,1589.245830388954,1589.2458303889537,1589.2458303889537,1589.2458303889537,1589.2458303889537,1589.2458303889537,1589.2458303889534,1589.2458303889534,1589.2458303889534,1589.2458303889534,1589.2458303889534,1589.2458303889532,1589.2458303889532,1589.2458303889532,1589.2458303889532,1589.2458303889532,1589.245830388953,1589.245830388953,1589.245830388953,1589.245830388953,1589.245830388953,1589.2458303889528,1589.2458303889528,1589.2458303889528,1589.2458303889528,1589.2458303889528,1589.2458303889525,1589.2458303889525,1589.2458303889525,1589.2458303889525,1589.2458303889525,1589.2458303889523,1589.2458303889523,1589.2458303889523,1589.2458303889523,1589.2458303889523,1589.245830388952,1589.245830388952,1589.245830388952,1589.245830388952,1589.245830388952,1589.2458303889518,1589.2458303889518,1589.2458303889518,1589.2458303889518,1589.2458303889518,1589.2458303889516,1589.2458303889516,1589.2458303889516,1589.2458303889516,1589.2458303889516,1589.2458303889514,1589.2458303889514,1589.2458303889514,1589.2458303889514,1589.2458303889514,1589.2458303889512,1589.2458303889512,1589.2458303889512,1589.2458303889512,1589.2458303889512,1589.245830388951,1589.245830388951,1589.245830388951,1589.245830388951,1589.245830388951,1589.2458303889507,1589.2458303889507,1589.2458303889507,1589.2458303889507,1589.2458303889507,1589.2458303889505,1589.2458303889505,1589.2458303889505,1589.2458303889505,1589.2458303889505,1589.2458303889503,1589.2458303889503,1589.2458303889503,1589.2458303889503,1589.2458303889503,1589.24583038895,1589.24583038895,1589.24583038895,1589.24583038895,1589.24583038895,1589.2458303889498,1589.2458303889498,1589.2458303889498,1589.2458303889498,1589.2458303889498,1589.2458303889496,1589.2458303889496,1589.2458303889496,1589.2458303889496,1589.2458303889496,1589.2458303889496,1589.2458303889493,1589.2458303889493,1589.2458303889493,1589.2458303889493,1589.2458303889493,1589.2458303889491,1589.2458303889491,1589.2458303889491,1589.2458303889491,1589.2458303889491,1589.245830388949,1589.245830388949,1589.245830388949
2,-0.031799520025828955,-0.031799520025828955,-0.031799520025828955,-0.031799520025828955,-0.031799520025828955,-0.031799520025828955,-0.031799520025828955,-0.031799520025828955,-0.031799520025828955,-0.031799520025828955,-0.031799520025828955,-0.031799520025828955,-0.031799520025828955,-0.031799520025828955,-0.031799520025828955,-0.031799520025828955,-0.031799520025828955,-0.031799520025828955,-0.031799520025828955,-0.031799520025828955,-0.031799520025828955,-0.031799520025828955,-0.031799520025828955,-0.03179952002582895,-0.03179952002582895,-0.03179952002582895,-0.03179952002582895,-0.03179952002582895,-0.03179952002582895,-0.03179952002582895,-0.03179952002582895,-0.03179952002582895,-0.03179952002582895,-0.03179952002582895,-0.03179952002582895,-0.03179952002582895,-0.03179952002582895,-0.03179952002582895,-0.03179952002582895,-0.03179952002582895,-0.03179952002582895,-0.03179952002582895,-0.03179952002582895,-0.03179952002582895,-0.03179952002582895,-0.03179952002582895,-0.03179952002582895,-0.03179952002582895,-0.03179952002582895,-0.03179952002582894,-0.03179952002582894,-0.03179952002582894,-0.03179952002582894,-0.03179952002582894,-0.03179952002582894,-0.03179952002582894,-0.03179952002582894,-0.03179952002582894,-0.03179952002582894,-0.03179952002582894,-0.03179952002582894,-0.03179952002582894,-0.03179952002582894,-0.03179952002582894,-0.03179952002582894,-0.03179952002582894,-0.03179952002582894,-0.03179952002582894,-0.03179952002582894,-0.03179952002582894,-0.03179952002582894,-0.03179952002582894,-0.03179952002582894,-0.03179952002582894,-0.03179952002582894,-0.031799520025828934,-0.031799520025828934,-0.031799520025828934,-0.031799520025828934,-0.031799520025828934,-0.031799520025828934,-0.031799520025828934,-0.031799520025828934,-0.031799520025828934,-0.031799520025828934,-0.031799520025828934,-0.031799520025828934,-0.031799520025828934,-0.031799520025828934,-0.031799520025828934,-0.031799520025828934,-0.031799520025828934,-0.031799520025828934,-0.031799520025828934,-0.031799520025828934,-0.031799520025828934,-0.031799520025828934,-0.031799520025828934,-0.031799520025828934,-0.031799520025828934,-0.031799520025828934,-0.031799520025828934,-0.03179952002582893,-0.03179952002582893,-0.03179952002582893,-0.03179952002582893,-0.03179952002582893,-0.03179952002582893,-0.03179952002582893,-0.03179952002582893,-0.03179952002582893,-0.03179952002582893,-0.03179952002582893,-0.03179952002582893,-0.03179952002582893,-0.03179952002582893,-0.03179952002582893,-0.03179952002582893,-0.03179952002582893,-0.03179952002582893,-0.03179952002582893,-0.03179952002582893,-0.03179952002582893,-0.03179952002582893,-0.03179952002582893,-0.03179952002582893,-0.03179952002582893,-0.03179952002582893,-0.03179952002582893,-0.03179952002582892,-0.03179952002582892,-0.03179952002582892,-0.03179952002582892,-0.03179952002582892,-0.03179952002582892,-0.03179952002582892,-0.03179952002582892,-0.03179952002582892,-0.03179952002582892,-0.03179952002582892,-0.03179952002582892,-0.03179952002582892,-0.03179952002582892,-0.03179952002582892,-0.03179952002582892,-0.03179952002582892,-0.03179952002582892,-0.03179952002582892,-0.03179952002582892,-0.03179952002582892,-0.03179952002582892,-0.03179952002582892,-0.03179952002582892,-0.03179952002582892,-0.03179952002582892,-0.03179952002582892,-0.03179952002582891,-0.03179952002582891,-0.03179952002582891,-0.03179952002582891,-0.03179952002582891,-0.03179952002582891,-0.03179952002582891,-0.03179952002582891,-0.03179952002582891,-0.03179952002582891,-0.03179952002582891,-0.03179952002582891,-0.03179952002582891,-0.03179952002582891,-0.03179952002582891,-0.03179952002582891,-0.03179952002582891,-0.03179952002582891,-0.03179952002582891,-0.03179952002582891,-0.03179952002582891,-0.03179952002582891,-0.03179952002582891,-0.03179952002582891,-0.03179952002582891,-0.03179952002582891,-0.03179952002582891,-0.03179952002582891,-0.031799520025828906,-0.031799520025828906,-0.031799520025828906,-0.031799520025828906,-0.031799520025828906,-0.031799520025828906,-0.031799520025828906,-0.031799520025828906,-0.031799520025828906,-0.031799520025828906,-0.031799520025828906,-0.031799520025828906,-0.031799520025828906,-0.031799520025828906,-0.031799520025828906,-0.031799520025828906,-0.031799520025828906,-0.031799520025828906,-0.031799520025828906,-0.031799520025828906,-0.031799520025828906,-0.031799520025828906,-0.031799520025828906,-0.031799520025828906,-0.031799520025828906,-0.031799520025828906,-0.031799520025828906,-0.031799520025828906,-0.0317995200258289,-0.0317995200258289,-0.0317995200258289,-0.0317995200258289,-0.0317995200258289,-0.0317995200258289,-0.0317995200258289,-0.0317995200258289,-0.0317995200258289,-0.0317995200258289,-0.0317995200258289,-0.0317995200258289,-0.0317995200258289,-0.0317995200258289,-0.0317995200258289,-0.0317995200258289,-0.0317995200258289,-0.0317995200258289,-0.0317995200258289,-0.0317995200258289,-0.0317995200258289,-0.0317995200258289,-0.0317995200258289,-0.0317995200258289,-0.0317995200258289,-0.0317995200258289,-0.0317995200258289,-0.0317995200258289,-0.0317995200258289,-0.03179952002582889,-0.03179952002582889,-0.03179952002582889,-0.03179952002582889,-0.03179952002582889,-0.03179952002582889,-0.03179952002582889,-0.03179952002582889,-0.03179952002582889,-0.03179952002582889,-0.03179952002582889,-0.03179952002582889,-0.03179952002582889,-0.03179952002582889,-0.03179952002582889,-0.03179952002582889,-0.03179952002582889,-0.03179952002582889,-0.03179952002582889,-0.03179952002582889,-0.03179952002582889,-0.03179952002582889,-0.03179952002582889,-0.03179952002582889,-0.03179952002582889,-0.03179952002582889,-0.03179952002582889,-0.03179952002582889,-0.03179952002582889,-0.03179952002582889,-0.031799520025828885,-0.031799520025828885,-0.031799520025828885,-0.031799520025828885,-0.031799520025828885,-0.031799520025828885,-0.031799520025828885,-0.031799520025828885,-0.031799520025828885,-0.031799520025828885,-0.031799520025828885,-0.031799520025828885,-0.031799520025828885,-0.031799520025828885,-0.031799520025828885,-0.031799520025828885,-0.031799520025828885,-0.031799520025828885,-0.031799520025828885,-0.031799520025828885,-0.031799520025828885,-0.031799520025828885,-0.031799520025828885,-0.031799520025828885,-0.031799520025828885,-0.031799520025828885,-0.031799520025828885,-0.031799520025828885,-0.031799520025828885,-0.031799520025828885,-0.03179952002582888,-0.03179952002582888,-0.03179952002582888,-0.03179952002582888,-0.03179952002582888,-0.03179952002582888,-0.03179952002582888,-0.03179952002582888,-0.03179952002582888,-0.03179952002582888,-0.03179952002582888,-0.03179952002582888,-0.03179952002582888,-0.03179952002582888,-0.03179952002582888,-0.03179952002582888,-0.03179952002582888,-0.03179952002582888,-0.03179952002582888,-0.03179952002582888,-0.03179952002582888,-0.03179952002582888,-0.03179952002582888,-0.03179952002582888,-0.03179952002582888,-0.03179952002582888,-0.03179952002582888,-0.03179952002582888,-0.03179952002582888,-0.03179952002582888,-0.03179952002582887,-0.03179952002582887,-0.03179952002582887,-0.03179952002582887,-0.03179952002582887,-0.03179952002582887,-0.03179952002582887,-0.03179952002582887,-0.03179952002582887,-0.03179952002582887,-0.03179952002582887,-0.03179952002582887,-0.03179952002582887,-0.03179952002582887,-0.03179952002582887,-0.03179952002582887,-0.03179952002582887,-0.03179952002582887,-0.03179952002582887,-0.03179952002582887,-0.03179952002582887,-0.03179952002582887,-0.03179952002582887,-0.03179952002582887,-0.03179952002582887,-0.03179952002582887,-0.03179952002582887,-0.03179952002582887,-0.03179952002582887,-0.03179952002582887,-0.03179952002582887,-0.031799520025828865,-0.031799520025828865,-0.031799520025828865,-0.031799520025828865,-0.031799520025828865,-0.031799520025828865,-0.031799520025828865,-0.031799520025828865,-0.031799520025828865,-0.031799520025828865,-0.031799520025828865,-0.031799520025828865,-0.031799520025828865,-0.031799520025828865,-0.031799520025828865,-0.031799520025828865,-0.031799520025828865,-0.031799520025828865,-0.031799520025828865,-0.031799520025828865,-0.031799520025828865,-0.031799520025828865,-0.031799520025828865,-0.031799520025828865,-0.031799520025828865,-0.031799520025828865,-0.031799520025828865,-0.031799520025828865,-0.031799520025828865,-0.031799520025828865,-0.031799520025828865,-0.03179952002582886,-0.03179952002582886,-0.03179952002582886,-0.03179952002582886,-0.03179952002582886,-0.03179952002582886,-0.03179952002582886,-0.03179952002582886,-0.03179952002582886,-0.03179952002582886,-0.03179952002582886,-0.03179952002582886,-0.03179952002582886,-0.03179952002582886,-0.03179952002582886,-0.03179952002582886,-0.03179952002582886,-0.03179952002582886,-0.03179952002582886,-0.03179952002582886,-0.03179952002582886,-0.03179952002582886,-0.03179952002582886,-0.03179952002582886,-0.03179952002582886,-0.03179952002582886,-0.03179952002582886,-0.03179952002582886,-0.03179952002582886,-0.03179952002582886,-0.03179952002582886,-0.03179952002582886,-0.03179952002582886,-0.03179952002582885,-0.03179952002582885,-0.03179952002582885,-0.03179952002582885,-0.03179952002582885,-0.03179952002582885,-0.03179952002582885,-0.03179952002582885,-0.03179952002582885,-0.03179952002582885,-0.03179952002582885,-0.03179952002582885,-0.03179952002582885,-0.03179952002582885,-0.03179952002582885,-0.03179952002582885,-0.03179952002582885,-0.03179952002582885,-0.03179952002582885,-0.03179952002582885,-0.03179952002582885,-0.03179952002582885,-0.03179952002582885,-0.03179952002582885,-0.03179952002582885,-0.03179952002582885,-0.03179952002582885,-0.03179952002582885,-0.03179952002582885,-0.03179952002582885,-0.03179952002582885,-0.03179952002582885,-0.031799520025828844,-0.031799520025828844,-0.031799520025828844,-0.031799520025828844,-0.031799520025828844,-0.031799520025828844,-0.031799520025828844,-0.031799520025828844,-0.031799520025828844,-0.031799520025828844,-0.031799520025828844,-0.031799520025828844,-0.031799520025828844,-0.031799520025828844,-0.031799520025828844,-0.031799520025828844,-0.031799520025828844,-0.031799520025828844,-0.031799520025828844,-0.031799520025828844,-0.031799520025828844,-0.031799520025828844,-0.031799520025828844,-0.031799520025828844,-0.031799520025828844,-0.031799520025828844,-0.031799520025828844,-0.031799520025828844,-0.031799520025828844,-0.031799520025828844,-0.031799520025828844,-0.031799520025828844,-0.031799520025828844,-0.03179952002582884,-0.03179952002582884,-0.03179952002582884,-0.03179952002582884,-0.03179952002582884,-0.03179952002582884,-0.03179952002582884,-0.03179952002582884,-0.03179952002582884,-0.03179952002582884,-0.03179952002582884,-0.03179952002582884,-0.03179952002582884,-0.03179952002582884,-0.03179952002582884,-0.03179952002582884,-0.03179952002582884,-0.03179952002582884,-0.03179952002582884,-0.03179952002582884,-0.03179952002582884,-0.03179952002582884,-0.03179952002582884,-0.03179952002582884,-0.03179952002582884,-0.03179952002582884,-0.03179952002582884,-0.03179952002582884,-0.03179952002582884,-0.03179952002582884,-0.03179952002582884,-0.03179952002582884,-0.03179952002582884,-0.03179952002582884,-0.03179952002582883,-0.03179952002582883,-0.03179952002582883,-0.03179952002582883,-0.03179952002582883,-0.03179952002582883,-0.03179952002582883,-0.03179952002582883,-0.03179952002582883,-0.03179952002582883,-0.03179952002582883,-0.03179952002582883,-0.03179952002582883,-0.03179952002582883,-0.03179952002582883,-0.03179952002582883,-0.03179952002582883,-0.03179952002582883,-0.03179952002582883,-0.03179952002582883,-0.03179952002582883,-0.03179952002582883,-0.03179952002582883,-0.03179952002582883,-0.03179952002582883,-0.03179952002582883,-0.03179952002582883,-0.03179952002582883,-0.03179952002582883,-0.03179952002582883,-0.03179952002582883,-0.03179952002582883,-0.03179952002582883,-0.03179952002582883,-0.03179952002582883,-0.03179952002582882,-0.03179952002582882,-0.03179952002582882,-0.03179952002582882,-0.03179952002582882,-0.03179952002582882,-0.03179952002582882,-0.03179952002582882,-0.03179952002582882,-0.03179952002582882,-0.03179952002582882,-0.03179952002582882,-0.03179952002582882,-0.03179952002582882,-0.03179952002582882,-0.03179952002582882,-0.03179952002582882,-0.03179952002582882,-0.03179952002582882,-0.03179952002582882,-0.03179952002582882,-0.03179952002582882,-0.03179952002582882,-0.03179952002582882,-0.03179952002582882,-0.03179952002582882,-0.03179952002582882,-0.03179952002582882,-0.03179952002582882,-0.03179952002582882,-0.03179952002582882,-0.03179952002582882,-0.03179952002582882,-0.03179952002582882,-0.03179952002582882,-0.031799520025828816,-0.031799520025828816,-0.031799520025828816,-0.031799520025828816,-0.031799520025828816,-0.031799520025828816,-0.031799520025828816,-0.031799520025828816,-0.031799520025828816,-0.031799520025828816,-0.031799520025828816,-0.031799520025828816,-0.031799520025828816,-0.031799520025828816,-0.031799520025828816,-0.031799520025828816,-0.031799520025828816,-0.031799520025828816,-0.031799520025828816,-0.031799520025828816,-0.031799520025828816,-0.031799520025828816,-0.031799520025828816,-0.031799520025828816,-0.031799520025828816,-0.031799520025828816,-0.031799520025828816,-0.031799520025828816,-0.031799520025828816,-0.031799520025828816,-0.031799520025828816,-0.031799520025828816,-0.031799520025828816,-0.031799520025828816,-0.031799520025828816,-0.031799520025828816,-0.03179952002582881,-0.03179952002582881,-0.03179952002582881,-0.03179952002582881,-0.03179952002582881,-0.03179952002582881,-0.03179952002582881,-0.03179952002582881,-0.03179952002582881,-0.03179952002582881,-0.03179952002582881,-0.03179952002582881,-0.03179952002582881,-0.03179952002582881,-0.03179952002582881,-0.03179952002582881,-0.03179952002582881,-0.03179952002582881,-0.03179952002582881,-0.03179952002582881,-0.03179952002582881,-0.03179952002582881,-0.03179952002582881,-0.03179952002582881,-0.03179952002582881,-0.03179952002582881,-0.03179952002582881,-0.03179952002582881,-0.03179952002582881,-0.03179952002582881,-0.03179952002582881,-0.03179952002582881,-0.03179952002582881,-0.03179952002582881,-0.03179952002582881,-0.03179952002582881,-0.0317995200258288,-0.0317995200258288,-0.0317995200258288,-0.0317995200258288,-0.0317995200258288,-0.0317995200258288,-0.0317995200258288,-0.0317995200258288,-0.0317995200258288,-0.0317995200258288,-0.0317995200258288,-0.0317995200258288,-0.0317995200258288,-0.0317995200258288,-0.0317995200258288,-0.0317995200258288,-0.0317995200258288,-0.0317995200258288,-0.0317995200258288,-0.0317995200258288,-0.0317995200258288,-0.0317995200258288,-0.0317995200258288,-0.0317995200258288,-0.0317995200258288,-0.0317995200258288,-0.0317995200258288,-0.0317995200258288,-0.0317995200258288,-0.0317995200258288,-0.0317995200258288,-0.0317995200258288,-0.0317995200258288,-0.0317995200258288,-0.0317995200258288,-0.0317995200258288,-0.0317995200258288,-0.0317995200258288,-0.031799520025828795,-0.031799520025828795,-0.031799520025828795,-0.031799520025828795,-0.031799520025828795,-0.031799520025828795,-0.031799520025828795,-0.031799520025828795,-0.031799520025828795,-0.031799520025828795,-0.031799520025828795,-0.031799520025828795,-0.031799520025828795,-0.031799520025828795,-0.031799520025828795,-0.031799520025828795,-0.031799520025828795,-0.031799520025828795,-0.031799520025828795,-0.031799520025828795,-0.031799520025828795,-0.031799520025828795,-0.031799520025828795,-0.031799520025828795,-0.031799520025828795,-0.031799520025828795,-0.031799520025828795,-0.031799520025828795,-0.031799520025828795,-0.031799520025828795,-0.031799520025828795,-0.031799520025828795,-0.031799520025828795,-0.031799520025828795,-0.031799520025828795,-0.031799520025828795,-0.031799520025828795,-0.031799520025828795,-0.03179952002582879,-0.03179952002582879,-0.03179952002582879,-0.03179952002582879,-0.03179952002582879,-0.03179952002582879,-0.03179952002582879,-0.03179952002582879,-0.03179952002582879,-0.03179952002582879,-0.03179952002582879,-0.03179952002582879,-0.03179952002582879,-0.03179952002582879,-0.03179952002582879,-0.03179952002582879,-0.03179952002582879,-0.03179952002582879,-0.03179952002582879,-0.03179952002582879,-0.03179952002582879,-0.03179952002582879,-0.03179952002582879,-0.03179952002582879,-0.03179952002582879,-0.03179952002582879,-0.03179952002582879,-0.03179952002582879,-0.03179952002582879,-0.03179952002582879,-0.03179952002582879,-0.03179952002582879,-0.03179952002582879,-0.03179952002582879,-0.03179952002582879,-0.03179952002582879,-0.03179952002582879,-0.03179952002582879,-0.03179952002582878,-0.03179952002582878,-0.03179952002582878,-0.03179952002582878,-0.03179952002582878,-0.03179952002582878,-0.03179952002582878,-0.03179952002582878,-0.03179952002582878,-0.03179952002582878,-0.03179952002582878,-0.03179952002582878,-0.03179952002582878,-0.03179952002582878,-0.03179952002582878,-0.03179952002582878,-0.03179952002582878,-0.03179952002582878,-0.03179952002582878,-0.03179952002582878,-0.03179952002582878,-0.03179952002582878,-0.03179952002582878,-0.03179952002582878,-0.03179952002582878,-0.03179952002582878,-0.03179952002582878,-0.03179952002582878,-0.03179952002582878,-0.03179952002582878,-0.03179952002582878,-0.03179952002582878,-0.03179952002582878,-0.03179952002582878,-0.03179952002582878,-0.03179952002582878,-0.03179952002582878,-0.03179952002582878,-0.03179952002582878,-0.03179952002582878,-0.031799520025828774,-0.031799520025828774,-0.031799520025828774,-0.031799520025828774,-0.031799520025828774,-0.031799520025828774,-0.031799520025828774,-0.031799520025828774,-0.031799520025828774,-0.031799520025828774,-0.031799520025828774,-0.031799520025828774,-0.031799520025828774,-0.031799520025828774,-0.031799520025828774,-0.031799520025828774,-0.031799520025828774,-0.031799520025828774,-0.031799520025828774,-0.031799520025828774,-0.031799520025828774,-0.031799520025828774,-0.031799520025828774,-0.031799520025828774,-0.031799520025828774,-0.031799520025828774,-0.031799520025828774,-0.031799520025828774,-0.031799520025828774,-0.031799520025828774,-0.031799520025828774,-0.031799520025828774,-0.031799520025828774,-0.031799520025828774,-0.031799520025828774,-0.031799520025828774,-0.031799520025828774,-0.031799520025828774,-0.031799520025828774,-0.031799520025828774,-0.03179952002582877,-0.03179952002582877,-0.03179952002582877,-0.03179952002582877,-0.03179952002582877,-0.03179952002582877,-0.03179952002582877,-0.03179952002582877,-0.03179952002582877,-0.03179952002582877,-0.03179952002582877,-0.03179952002582877,-0.03179952002582877,-0.031799520025828774,-0.031799520025828774,-0.031799520025828774,-0.031799520025828774,-0.031799520025828774,-0.031799520025828774,-0.031799520025828774,-0.031799520025828774,-0.03179952002582877,-0.03179952002582877,-0.03179952002582877,-0.03179952002582877,-0.03179952002582877,-0.03179952002582877,-0.03179952002582877,-0.03179952002582877,-0.03179952002582877,-0.03179952002582877,-0.03179952002582877,-0.03179952002582877,-0.03179952002582877,-0.03179952002582877,-0.03179952002582877,-0.03179952002582877,-0.03179952002582877,-0.03179952002582877,-0.03179952002582877,-0.03179952002582877,-0.03179952002582877,-0.03179952002582877,-0.03179952002582877,-0.03179952002582877,-0.03179952002582877,-0.03179952002582877,-0.03179952002582877,-0.03179952002582877,-0.03179952002582877,-0.03179952002582877,-0.03179952002582877,-0.03179952002582877,-0.03179952002582877,-0.03179952002582877,-0.03179952002582877,-0.03179952002582877,-0.03179952002582877,-0.03179952002582877,-0.03179952002582877,-0.03179952002582877,-0.03179952002582877,-0.03179952002582876,-0.03179952002582876,-0.03179952002582876,-0.03179952002582876,-0.03179952002582876,-0.03179952002582876,-0.03179952002582876,-0.03179952002582876,-0.03179952002582876,-0.03179952002582876,-0.03179952002582876,-0.03179952002582876,-0.03179952002582876,-0.03179952002582876,-0.03179952002582876,-0.03179952002582876,-0.03179952002582876,-0.03179952002582876,-0.03179952002582876,-0.03179952002582876,-0.03179952002582876,-0.03179952002582876,-0.03179952002582876,-0.03179952002582876,-0.03179952002582876,-0.03179952002582876,-0.03179952002582876,-0.03179952002582876,-0.03179952002582876,-0.03179952002582876,-0.03179952002582876,-0.03179952002582876,-0.03179952002582876,-0.03179952002582876,-0.03179952002582876,-0.03179952002582876,-0.03179952002582876,-0.03179952002582876,-0.03179952002582876,-0.03179952002582876,-0.03179952002582876,-0.03179952002582876,-0.03179952002582876,-0.031799520025828754,-0.031799520025828754,-0.031799520025828754,-0.031799520025828754,-0.031799520025828754,-0.031799520025828754,-0.031799520025828754,-0.031799520025828754,-0.031799520025828754,-0.031799520025828754,-0.031799520025828754,-0.031799520025828754,-0.031799520025828754,-0.031799520025828754,-0.031799520025828754,-0.031799520025828754,-0.031799520025828754,-0.031799520025828754,-0.031799520025828754,-0.031799520025828754,-0.031799520025828754,-0.031799520025828754,-0.031799520025828754,-0.031799520025828754,-0.031799520025828754,-0.031799520025828754,-0.031799520025828754,-0.031799520025828754,-0.031799520025828754,-0.031799520025828754,-0.031799520025828754,-0.031799520025828754,-0.031799520025828754,-0.031799520025828754,-0.031799520025828754,-0.031799520025828754,-0.031799520025828754,-0.031799520025828754,-0.031799520025828754,-0.031799520025828754,-0.031799520025828754,-0.031799520025828754,-0.031799520025828754,-0.03179952002582875,-0.03179952002582875,-0.03179952002582875,-0.03179952002582875,-0.03179952002582875,-0.03179952002582875,-0.03179952002582875,-0.03179952002582875,-0.03179952002582875,-0.03179952002582875,-0.03179952002582875,-0.03179952002582875,-0.03179952002582875,-0.03179952002582875,-0.03179952002582875,-0.03179952002582875,-0.03179952002582875,-0.03179952002582875,-0.03179952002582875,-0.03179952002582875,-0.03179952002582875,-0.03179952002582875,-0.03179952002582875,-0.03179952002582875,-0.03179952002582875,-0.03179952002582875,-0.03179952002582875,-0.03179952002582875,-0.03179952002582875,-0.03179952002582875,-0.03179952002582875,-0.03179952002582875,-0.03179952002582875,-0.03179952002582875,-0.03179952002582875,-0.03179952002582875,-0.03179952002582875,-0.03179952002582875,-0.03179952002582875,-0.03179952002582875,-0.03179952002582875,-0.03179952002582875,-0.03179952002582875,-0.03179952002582875,-0.03179952002582874,-0.03179952002582874,-0.03179952002582874,-0.03179952002582874,-0.03179952002582874,-0.03179952002582874,-0.03179952002582874,-0.03179952002582874,-0.03179952002582874,-0.03179952002582874,-0.03179952002582874,-0.03179952002582874,-0.03179952002582874,-0.03179952002582874,-0.03179952002582874,-0.03179952002582874,-0.03179952002582874,-0.03179952002582874,-0.03179952002582874,-0.03179952002582874,-0.03179952002582874,-0.03179952002582874,-0.03179952002582874,-0.03179952002582874,-0.03179952002582874,-0.03179952002582874,-0.03179952002582874,-0.03179952002582874,-0.03179952002582874,-0.03179952002582874,-0.03179952002582874,-0.03179952002582874,-0.03179952002582874,-0.03179952002582874,-0.03179952002582874,-0.03179952002582874,-0.03179952002582874,-0.03179952002582874,-0.03179952002582874,-0.03179952002582874,-0.03179952002582874,-0.03179952002582874,-0.03179952002582874,-0.03179952002582874,-0.03179952002582874,-0.03179952002582873,-0.03179952002582873,-0.03179952002582873,-0.03179952002582873,-0.03179952002582873,-0.03179952002582873,-0.03179952002582873,-0.03179952002582873,-0.03179952002582873,-0.03179952002582873,-0.03179952002582873,-0.03179952002582873,-0.03179952002582873,-0.03179952002582873,-0.03179952002582873,-0.03179952002582873,-0.03179952002582873,-0.03179952002582873,-0.03179952002582873,-0.03179952002582873,-0.03179952002582873,-0.03179952002582873,-0.03179952002582873,-0.03179952002582873,-0.03179952002582873,-0.03179952002582873,-0.03179952002582873,-0.03179952002582873,-0.03179952002582873,-0.03179952002582873,-0.03179952002582873,-0.03179952002582873,-0.03179952002582873,-0.03179952002582873,-0.03179952002582873,-0.03179952002582873,-0.03179952002582873,-0.03179952002582873,-0.03179952002582873,-0.03179952002582873,-0.03179952002582873,-0.03179952002582873,-0.03179952002582873,-0.03179952002582873,-0.03179952002582873,-0.03179952002582873,-0.031799520025828726,-0.031799520025828726,-0.031799520025828726,-0.031799520025828726,-0.031799520025828726,-0.031799520025828726,-0.031799520025828726,-0.031799520025828726,-0.031799520025828726,-0.031799520025828726,-0.031799520025828726,-0.031799520025828726,-0.031799520025828726,-0.031799520025828726,-0.031799520025828726,-0.031799520025828726,-0.031799520025828726,-0.031799520025828726,-0.031799520025828726,-0.031799520025828726,-0.031799520025828726,-0.031799520025828726,-0.031799520025828726,-0.031799520025828726,-0.031799520025828726,-0.031799520025828726,-0.031799520025828726,-0.031799520025828726,-0.031799520025828726,-0.031799520025828726,-0.031799520025828726,-0.031799520025828726,-0.031799520025828726,-0.031799520025828726,-0.031799520025828726,-0.031799520025828726,-0.031799520025828726,-0.031799520025828726,-0.031799520025828726,-0.031799520025828726,-0.031799520025828726,-0.031799520025828726,-0.031799520025828726,-0.031799520025828726,-0.031799520025828726,-0.031799520025828726,-0.031799520025828726,-0.03179952002582872,-0.03179952002582872,-0.03179952002582872,-0.03179952002582872,-0.03179952002582872,-0.03179952002582872,-0.03179952002582872,-0.03179952002582872,-0.03179952002582872,-0.03179952002582872,-0.03179952002582872,-0.03179952002582872,-0.03179952002582872,-0.03179952002582872,-0.03179952002582872,-0.03179952002582872,-0.03179952002582872,-0.03179952002582872,-0.03179952002582872,-0.03179952002582872,-0.03179952002582872,-0.03179952002582872,-0.03179952002582872,-0.03179952002582872,-0.03179952002582872,-0.03179952002582872,-0.03179952002582872,-0.03179952002582872,-0.03179952002582872,-0.03179952002582872,-0.03179952002582872,-0.03179952002582872,-0.03179952002582872,-0.03179952002582872,-0.03179952002582872,-0.03179952002582872,-0.03179952002582872,-0.03179952002582872,-0.03179952002582872,-0.03179952002582872,-0.03179952002582872,-0.03179952002582872,-0.03179952002582872,-0.03179952002582872,-0.03179952002582872,-0.03179952002582872,-0.03179952002582872,-0.03179952002582872,-0.03179952002582871,-0.03179952002582871,-0.03179952002582871,-0.03179952002582871,-0.03179952002582871,-0.03179952002582871,-0.03179952002582871,-0.03179952002582871,-0.03179952002582871,-0.03179952002582871,-0.03179952002582871,-0.03179952002582871,-0.03179952002582871,-0.03179952002582871,-0.03179952002582871,-0.03179952002582871,-0.03179952002582871,-0.03179952002582871,-0.03179952002582871,-0.03179952002582871,-0.03179952002582871,-0.03179952002582871,-0.03179952002582871,-0.03179952002582871,-0.03179952002582871,-0.03179952002582871,-0.03179952002582871,-0.03179952002582871,-0.03179952002582871,-0.03179952002582871,-0.03179952002582871,-0.03179952002582871,-0.03179952002582871,-0.03179952002582871,-0.03179952002582871,-0.03179952002582871,-0.03179952002582871,-0.03179952002582871,-0.03179952002582871,-0.03179952002582871,-0.03179952002582871,-0.03179952002582871,-0.03179952002582871,-0.03179952002582871,-0.03179952002582871,-0.03179952002582871,-0.03179952002582871,-0.03179952002582871,-0.03179952002582871,-0.031799520025828705,-0.031799520025828705,-0.031799520025828705,-0.031799520025828705,-0.031799520025828705,-0.031799520025828705,-0.031799520025828705,-0.031799520025828705,-0.031799520025828705,-0.031799520025828705,-0.031799520025828705,-0.031799520025828705,-0.031799520025828705,-0.031799520025828705,-0.031799520025828705,-0.031799520025828705,-0.031799520025828705,-0.031799520025828705,-0.031799520025828705,-0.031799520025828705,-0.031799520025828705,-0.031799520025828705,-0.031799520025828705,-0.031799520025828705,-0.031799520025828705,-0.031799520025828705,-0.031799520025828705,-0.031799520025828705,-0.031799520025828705,-0.031799520025828705,-0.031799520025828705,-0.031799520025828705,-0.031799520025828705,-0.031799520025828705,-0.031799520025828705,-0.031799520025828705,-0.031799520025828705,-0.031799520025828705,-0.031799520025828705,-0.031799520025828705,-0.031799520025828705,-0.031799520025828705,-0.031799520025828705,-0.031799520025828705,-0.031799520025828705,-0.031799520025828705,-0.031799520025828705,-0.031799520025828705,-0.031799520025828705,-0.031799520025828705,-0.0317995200258287,-0.0317995200258287,-0.0317995200258287,-0.0317995200258287,-0.0317995200258287,-0.0317995200258287,-0.0317995200258287,-0.0317995200258287,-0.0317995200258287,-0.0317995200258287,-0.0317995200258287,-0.0317995200258287,-0.0317995200258287,-0.0317995200258287,-0.0317995200258287,-0.0317995200258287,-0.0317995200258287,-0.0317995200258287,-0.0317995200258287,-0.0317995200258287,-0.0317995200258287,-0.0317995200258287,-0.0317995200258287,-0.0317995200258287,-0.0317995200258287,-0.0317995200258287,-0.0317995200258287,-0.0317995200258287,-0.0317995200258287,-0.0317995200258287,-0.0317995200258287,-0.0317995200258287,-0.0317995200258287,-0.0317995200258287,-0.0317995200258287,-0.0317995200258287,-0.0317995200258287,-0.0317995200258287,-0.0317995200258287,-0.0317995200258287,-0.0317995200258287,-0.0317995200258287,-0.0317995200258287,-0.0317995200258287,-0.0317995200258287,-0.0317995200258287,-0.0317995200258287,-0.0317995200258287,-0.0317995200258287,-0.0317995200258287,-0.0317995200258287,-0.03179952002582869,-0.03179952002582869,-0.03179952002582869,-0.03179952002582869,-0.03179952002582869,-0.03179952002582869,-0.03179952002582869,-0.03179952002582869,-0.03179952002582869,-0.03179952002582869,-0.03179952002582869,-0.03179952002582869,-0.03179952002582869,-0.03179952002582869,-0.03179952002582869,-0.03179952002582869,-0.03179952002582869,-0.03179952002582869,-0.03179952002582869,-0.03179952002582869,-0.03179952002582869,-0.03179952002582869,-0.03179952002582869,-0.03179952002582869,-0.03179952002582869,-0.03179952002582869,-0.03179952002582869,-0.03179952002582869,-0.03179952002582869,-0.03179952002582869,-0.03179952002582869,-0.03179952002582869,-0.03179952002582869,-0.03179952002582869,-0.03179952002582869,-0.03179952002582869,-0.03179952002582869,-0.03179952002582869,-0.03179952002582869,-0.03179952002582869,-0.03179952002582869,-0.03179952002582869,-0.03179952002582869,-0.03179952002582869,-0.03179952002582869,-0.03179952002582869,-0.03179952002582869,-0.03179952002582869,-0.03179952002582869,-0.03179952002582869,-0.03179952002582869,-0.03179952002582869,-0.03179952002582869,-0.031799520025828684,-0.031799520025828684,-0.031799520025828684,-0.031799520025828684,-0.031799520025828684,-0.031799520025828684,-0.031799520025828684,-0.031799520025828684,-0.031799520025828684,-0.031799520025828684,-0.031799520025828684,-0.031799520025828684,-0.031799520025828684,-0.031799520025828684,-0.031799520025828684,-0.031799520025828684,-0.031799520025828684,-0.031799520025828684,-0.031799520025828684,-0.031799520025828684,-0.031799520025828684,-0.031799520025828684,-0.031799520025828684,-0.031799520025828684,-0.031799520025828684,-0.031799520025828684,-0.031799520025828684,-0.031799520025828684,-0.031799520025828684,-0.031799520025828684,-0.031799520025828684,-0.031799520025828684,-0.031799520025828684,-0.031799520025828684,-0.031799520025828684,-0.031799520025828684,-0.031799520025828684,-0.031799520025828684,-0.031799520025828684,-0.031799520025828684,-0.031799520025828684,-0.031799520025828684,-0.031799520025828684,-0.031799520025828684,-0.031799520025828684,-0.031799520025828684,-0.031799520025828684,-0.031799520025828684,-0.031799520025828684,-0.031799520025828684,-0.031799520025828684,-0.031799520025828684,-0.031799520025828684,-0.03179952002582868,-0.03179952002582868,-0.03179952002582868,-0.03179952002582868,-0.03179952002582868,-0.03179952002582868,-0.03179952002582868,-0.03179952002582868,-0.03179952002582868,-0.03179952002582868,-0.03179952002582868,-0.03179952002582868,-0.03179952002582868,-0.03179952002582868,-0.03179952002582868,-0.03179952002582868,-0.03179952002582868,-0.03179952002582868,-0.03179952002582868,-0.03179952002582868,-0.03179952002582868,-0.03179952002582868,-0.03179952002582868,-0.03179952002582868,-0.03179952002582868,-0.03179952002582868,-0.03179952002582868,-0.03179952002582868,-0.03179952002582868,-0.03179952002582868,-0.03179952002582868,-0.03179952002582868,-0.03179952002582868,-0.03179952002582868,-0.03179952002582868,-0.03179952002582868,-0.03179952002582868,-0.03179952002582868,-0.03179952002582868,-0.03179952002582868,-0.03179952002582868,-0.03179952002582868,-0.03179952002582868,-0.03179952002582868,-0.03179952002582868,-0.03179952002582868,-0.03179952002582868,-0.03179952002582868,-0.03179952002582868,-0.03179952002582868,-0.03179952002582868,-0.03179952002582868,-0.03179952002582868,-0.03179952002582868,-0.03179952002582868,-0.03179952002582867,-0.03179952002582867,-0.03179952002582867,-0.03179952002582867,-0.03179952002582867,-0.03179952002582867,-0.03179952002582867,-0.03179952002582867,-0.03179952002582867,-0.03179952002582867,-0.03179952002582867,-0.03179952002582867,-0.03179952002582867,-0.03179952002582867,-0.03179952002582867,-0.03179952002582867,-0.03179952002582867,-0.03179952002582867,-0.03179952002582867,-0.03179952002582867,-0.03179952002582867,-0.03179952002582867,-0.03179952002582867,-0.03179952002582867,-0.03179952002582867,-0.03179952002582867,-0.03179952002582867,-0.03179952002582867,-0.03179952002582867,-0.03179952002582867,-0.03179952002582867,-0.03179952002582867,-0.03179952002582867,-0.03179952002582867,-0.03179952002582867,-0.03179952002582867,-0.03179952002582867,-0.03179952002582867,-0.03179952002582867,-0.03179952002582867,-0.03179952002582867,-0.03179952002582867,-0.03179952002582867,-0.03179952002582867,-0.03179952002582867,-0.03179952002582867,-0.03179952002582867,-0.03179952002582867,-0.03179952002582867,-0.03179952002582867,-0.03179952002582867,-0.03179952002582867,-0.03179952002582867,-0.03179952002582867
