,0,1,2,3,4,5,6,7,8,9,10,11,12,13,14,15,16,17,18,19,20,21,22,23,24,25,26,27,28,29,30,31,32,33,34,35,36,37,38,39,40,41,42,43,44,45,46,47,48,49,50,51,52,53,54,55,56,57,58,59,60,61,62,63,64,65,66,67,68,69,70,71,72,73,74,75,76,77,78,79,80,81,82,83,84,85,86,87,88,89,90,91,92,93,94,95,96,97,98,99,100,101,102,103,104,105,106,107,108,109,110,111,112,113,114,115,116,117,118,119,120,121,122,123,124,125,126,127,128,129,130,131,132,133,134,135,136,137,138,139,140,141,142,143,144,145,146,147,148,149,150,151,152,153,154,155,156,157,158,159,160,161,162,163,164,165,166,167,168,169,170,171,172,173,174,175,176,177,178,179,180,181,182,183,184,185,186,187,188,189,190,191,192,193,194,195,196,197,198,199,200,201,202,203,204,205,206,207,208,209,210,211,212,213,214,215,216,217,218,219,220,221,222,223,224,225,226,227,228,229,230,231,232,233,234,235,236,237,238,239,240,241,242,243,244,245,246,247,248,249,250,251,252,253,254,255,256,257,258,259,260,261,262,263,264,265,266,267,268,269,270,271,272,273,274,275,276,277,278,279,280,281,282,283,284,285,286,287,288,289,290,291,292,293,294,295,296,297,298,299,300,301,302,303,304,305,306,307,308,309,310,311,312,313,314,315,316,317,318,319,320,321,322,323,324,325,326,327,328,329,330,331,332,333,334,335,336,337,338,339,340,341,342,343,344,345,346,347,348,349,350,351,352,353,354,355,356,357,358,359,360,361,362,363,364,365,366,367,368,369,370,371,372,373,374,375,376,377,378,379,380,381,382,383,384,385,386,387,388,389,390,391,392,393,394,395,396,397,398,399,400,401,402,403,404,405,406,407,408,409,410,411,412,413,414,415,416,417,418,419,420,421,422,423,424,425,426,427,428,429,430,431,432,433,434,435,436,437,438,439,440,441,442,443,444,445,446,447,448,449,450,451,452,453,454,455,456,457,458,459,460,461,462,463,464,465,466,467,468,469,470,471,472,473,474,475,476,477,478,479,480,481,482,483,484,485,486,487,488,489,490,491,492,493,494,495,496,497,498,499,500,501,502,503,504,505,506,507,508,509,510,511,512,513,514,515,516,517,518,519,520,521,522,523,524,525,526,527,528,529,530,531,532,533,534,535,536,537,538,539,540,541,542,543,544,545,546,547,548,549,550,551,552,553,554,555,556,557,558,559,560,561,562,563,564,565,566,567,568,569,570,571,572,573,574,575,576,577,578,579,580,581,582,583,584,585,586,587,588,589,590,591,592,593,594,595,596,597,598,599,600,601,602,603,604,605,606,607,608,609,610,611,612,613,614,615,616,617,618,619,620,621,622,623,624,625,626,627,628,629,630,631,632,633,634,635,636,637,638,639,640,641,642,643,644,645,646,647,648,649,650,651,652,653,654,655,656,657,658,659,660,661,662,663,664,665,666,667,668,669,670,671,672,673,674,675,676,677,678,679,680,681,682,683,684,685,686,687,688,689,690,691,692,693,694,695,696,697,698,699,700,701,702,703,704,705,706,707,708,709,710,711,712,713,714,715,716,717,718,719,720,721,722,723,724,725,726,727,728,729,730,731,732,733,734,735,736,737,738,739,740,741,742,743,744,745,746,747,748,749,750,751,752,753,754,755,756,757,758,759,760,761,762,763,764,765,766,767,768,769,770,771,772,773,774,775,776,777,778,779,780,781,782,783,784,785,786,787,788,789,790,791,792,793,794,795,796,797,798,799,800,801,802,803,804,805,806,807,808,809,810,811,812,813,814,815,816,817,818,819,820,821,822,823,824,825,826,827,828,829,830,831,832,833,834,835,836,837,838,839,840,841,842,843,844,845,846,847,848,849,850,851,852,853,854,855,856,857,858,859,860,861,862,863,864,865,866,867,868,869,870,871,872,873,874,875,876,877,878,879,880,881,882,883,884,885,886,887,888,889,890,891,892,893,894,895,896,897,898,899,900,901,902,903,904,905,906,907,908,909,910,911,912,913,914,915,916,917,918,919,920,921,922,923
0,-1442.580184155736,-1285.9948768550812,-980.6506548744194,-1030.2211375373317,-1002.8912185294141,-1014.6366711201489,-1022.9352214020914,-1065.4002766250796,-1344.9357645594498,-999.3154541169833,-1415.5156152005047,-989.2773584516821,-1028.006923023232,-1023.3892244791795,-1016.231770789072,-1582.904240773421,-1013.3147240195441,-1542.4785861032892,-1052.561699398085,-1083.725618227853,-1111.1417038293616,-1551.666123429675,-1037.5344093304254,-1506.661117901999,-1490.976534809689,-1098.835828662005,-1579.7210921121386,-1548.1263737343313,-1033.0236656147586,-999.8316633345369,-1038.0215956187476,-1086.3484116250086,-1107.1673745794014,-1099.533394131434,-1043.2756720272355,-1107.747200022328,-1063.9842416997437,-994.4193513861728,-1123.0440367605422,-1037.253525725011,-1040.1073314502053,-956.4160268441067,-991.4419077024569,-1075.0831269534763,-1022.8974964865554,-1078.3664992676177,-1009.8374869004867,-1467.5519105221358,-1026.0339684669018,-1086.030204913381,-1065.2813973149396,-1631.3289540942653,-1121.9360695808884,-1589.1786744105286,-1026.7502157596757,-1058.3392755290963,-1074.7232338449178,-1006.4876191182749,-1032.8545599245354,-1061.313479612108,-1032.4202939096933,-1767.2339149618213,-1229.1272656720525,-1098.4261920305078,-986.2381799705527,-1000.338510587004,-1413.8524987074086,-1529.4764814184875,-1527.8436545746977,-1069.3145751058491,-1640.0522429834898,-1031.9236795390261,-1117.427706349118,-1036.1837962687825,-1636.36529349867,-1633.8855218495387,-1045.9345288056268,-997.3380584892759,-1046.3079423226154,-1091.61060277665,-1573.1504470038892,-1493.6341321708974,-1342.3091567354268,-1006.8191085271638,-1032.73660656124,-1539.2578056626692,-951.6579814600427,-975.0724024324561,-990.15973514612,-1101.0137111386443,-1456.6622595893018,-1517.571077479715,-943.65783179133,-1513.0668046095557,-1049.9539047717572,-1009.1059677851595,-974.1688081495928,-1089.2052010013263,-1017.9736737404818,-1417.125520685147,-1085.9625964381135,-1014.6013508821723,-1037.3407970333892,-1074.9505147428767,-990.570340493608,-1534.0341969376352,-1440.8020377112412,-997.87814118487,-1481.2429786068833,-1053.4159378662393,-992.8642959637559,-1033.0724973265353,-1083.2898271494341,-1012.9006803097146,-1520.6120665056187,-1059.5250296305423,-1010.6345107565921,-1056.251348752877,-1771.9185503331084,-995.4515200848095,-1019.6522287907447,-1542.3441667967224,-1628.678872066936,-1636.6329478224195,-1661.6452088215967,-1097.5694629273708,-1015.9870922958956,-1055.6478942648137,-1098.7841238442236,-1052.0685388733166,-1601.8680352202332,-1550.1206160379425,-1514.0825327031114,-1098.75769276954,-1096.6398240111523,-1122.175654241612,-1030.7891154306928,-1072.0345772105347,-1861.3988808254105,-1039.5023959289274,-1021.0796620987786,-1070.3454255037407,-1090.1391205314856,-1726.7458017293634,-1048.7322990046002,-986.1608300765411,-1438.9477067765076,-1089.1179054952288,-1044.3131665538328,-1138.1065465750748,-1468.8443295124846,-1014.7027388147994,-1467.844422116333,-1605.584332220201,-1118.6984932357652,-1093.6817157793107,-1005.9453113896423,-1075.319095100969,-1004.371101921802,-1116.5666326970347,-1125.755437719129,-1074.7908917946982,-990.1856821128075,-1046.608072856736,-1694.3193108676526,-1093.6141129039345,-1686.439644299391,-1654.2180096325337,-1046.4609264899816,-1065.5475155764937,-1291.887967204713,-1235.635164753171,-1755.6315925621998,-1366.2620315513907,-1078.0299261818348,-1474.3937138500053,-1745.1034136364274,-1858.3750463264066,-1032.745659158891,-1048.1453474378804,-1066.5967615527725,-1244.876996532132,-1665.1717363539576,-1092.0440647350347,-1088.8409299432726,-1811.678175716521,-1808.4352532053194,-1096.822084983566,-1128.8297056214383,-1219.9663703267813,-1705.8204318313608,-1053.278237618395,-1039.7528450720015,-1697.528603270586,-1355.0808809124433,-1213.879291432416,-1116.8674187153795,-1615.5999655377889,-1099.7897201872438,-1655.8347743098616,-1200.439739616414,-1045.4360201308878,-1069.5404711779872,-1038.2106936476785,-1059.524086872657,-1444.3000117008296,-1016.4152244820489,-1343.7558283441006,-1484.2164668978976,-1464.2484422478362,-981.8578724389741,-963.0003994375087,-1289.8126624017584,-1036.7680657331375,-1238.8810818491736,-1013.2648568427988,-1062.3247691443216,-1074.6886901699452,-1004.4671552601739,-1548.5991106724418,-1048.0080594551575,-1044.1735087246796,-1622.8788966269,-1585.931803686236,-1512.451530335192,-994.399221833218,-1041.884531099921,-1051.881526605159,-1022.5321619302175,-1000.0209518613675,-1592.9701798280175,-1044.4812588276227,-1101.893209937451,-1060.2630749325508,-1026.4547000240032,-1226.0045356610522,-996.6335191622163,-1740.7518301529003,-1741.8520053441428,-1132.0800318734907,-1067.2667189479805,-1723.6312663103943,-1692.8881294118714,-1347.1569977847325,-1501.075999682321,-1580.6563445771503,-1031.486005959466,-1029.881697670835,-1553.8468833786517,-1581.0237912782475,-1571.9165471040503,-1308.574167228133,-1201.4217159178343,-1053.9173936113978,-1062.9602663789497,-1615.2636329756067,-1344.6162041921832,-1030.6661876930757,-1671.4701498067448,-993.4159599215785,-1585.877920243862,-1029.9206330628717,-1022.8279755083175,-1055.478912086135,-1016.6209507763235,-1103.3073730629355,-1052.485783514402,-1223.795334893576,-984.3377464467035,-1083.853223635622,-1785.0427082626034,-1204.2906765115251,-1231.223124902771,-1614.8942978554126,-1078.958408290656,-1230.4851692348705,-1025.7673224200516,-1565.2232989650827,-1628.4891459326527,-1070.7622878784628,-1029.2774042147507,-1058.818650891073,-1062.5104086328222,-1604.2689861070603,-1694.3647302110414,-1038.4439642820091,-1466.019460133072,-1043.7262275209182,-1275.387315309652,-1031.8551096868996,-1629.2260730193266,-1037.5693393341778,-1027.2416775241225,-1091.4505731944073,-1232.9420941885708,-1629.0536428670928,-1046.2978719302907,-1093.5727026069292,-1613.8674630863952,-1105.4588455345095,-1096.796356739087,-1128.4518152973503,-1521.8820408405425,-1124.896571502943,-1080.4668305372545,-1558.2280454505817,-1547.1746362898186,-1024.3533889443336,-1617.6163816927397,-1043.6129581684008,-1020.5161473523158,-1489.835767449852,-1629.3550022435163,-1139.2412101207037,-1711.3123138032574,-1086.47964652781,-1366.1389390729692,-1203.7970594901628,-1051.592728414379,-1233.6826892687197,-1198.5344406162574,-1038.243094733862,-1086.3587079659223,-1173.6100773696412,-1246.7169325827058,-1327.496232030296,-1130.744376981216,-1221.480410059142,-1030.7085405393377,-1640.751816864455,-1731.625632860637,-1655.2968586482132,-1208.734376871812,-1717.4015953867308,-1218.0747821257037,-1269.5685038854979,-1387.4407323123485,-1050.8922059228737,-1097.392212651393,-1310.3352444001741,-1138.194044834942,-1265.9562898225229,-1119.9835813496297,-1166.290828500039,-1228.8751129126356,-1024.7431302769412,-978.8890687648062,-1053.2212685174093,-1125.560739073335,-1169.938302545437,-1020.5711654379501,-1061.4574659227553,-1647.0292914520314,-1055.6106547741335,-1042.9130680535598,-1131.7038623448002,-1220.696968130703,-1031.586131396316,-1081.772886948203,-1529.1086202926135,-1134.761478021461,-1023.1898133617532,-1018.3311271769805,-1498.4253452158712,-1141.640606931895,-1692.940731411245,-1130.3878832123423,-1124.222675395786,-1595.0505994358864,-1079.873776983501,-1084.8964863510341,-1700.4392709124538,-1365.4416560946881,-1083.0057336765037,-1034.6741000160114,-1243.2519503236244,-1168.8924683269918,-1268.525132949991,-1094.290377237909,-1075.904061452136,-1758.2548827920355,-1243.6237810824105,-1145.8427366682824,-1164.0018993369247,-1264.0297114804102,-1380.406299499657,-1270.8798220109966,-1053.2946076647404,-1383.8613665578994,-1263.8856179659085,-1243.3706108149372,-1059.1748931075667,-1236.5437533871918,-1149.8835471456077,-1748.2250730949738,-1246.80428981506,-1121.8270160423363,-1097.0363548438527,-1040.8495699303162,-1709.8603904018162,-1383.0106885082885,-1770.7338546336207,-1387.717364779169,-1860.6498074080014,-1361.6480323701896,-1735.6645842950807,-1637.2679389618559,-1115.4542304791141,-1229.7054228517823,-1721.670268527312,-1391.3885349671812,-1078.0672798559247,-1666.9304414496776,-1606.167502171593,-1031.0631995118324,-1222.5502962615085,-1248.0319889654652,-1227.7982131972458,-1606.2567104535246,-1036.4986611634101,-1052.2474840720529,-1051.2815747540785,-1729.2723206166715,-1095.5835547598697,-1128.8151929042276,-1293.623125376199,-1028.829342446185,-1081.0527958339387,-1132.1992947040155,-999.978591623393,-1054.0805962570655,-1496.684378426682,-1044.194052282831,-1381.443345161648,-1092.212156919056,-1008.4595831239801,-1451.2538517072069,-1005.9591253063429,-1025.7666841719388,-1060.3228829302686,-980.2217982596418,-1050.6059939305082,-1053.9922928968635,-962.2666611746984,-1048.8902482999417,-1080.5357245893424,-1006.696982462881,-1027.4880630002938,-1028.7872246477245,-1327.9697781274567,-1480.092150037331,-1678.5677120391751,-1028.146808532277,-1165.3485200231576,-1180.3974812669414,-1016.3205623727412,-1183.9868659630547,-1098.7877697973465,-1057.8404040119094,-1818.7594491463847,-1053.5006788834746,-1747.2615307009269,-1090.5396345832962,-1624.7429124021953,-1023.7145916922295,-1670.5119602439638,-1647.7394315391991,-1016.8929927684532,-1103.5903146693263,-1053.5209479395478,-1080.1038483754721,-1347.0211494417929,-1161.9694337845604,-1641.7522824087876,-1613.4823814284332,-1126.3814685663524,-1577.6877372770502,-1091.0767667917685,-1030.7459389995702,-1608.5735632610365,-1133.4706680028737,-1366.9478833714927,-1554.0281765074385,-1098.998090571052,-1124.3309701380101,-1083.6045907280914,-1077.4216720569916,-1550.581116922195,-1096.58895779311,-1618.7528000996713,-1545.3189038721296,-1019.9084260282726,-1561.5983527443434,-1693.2361929813685,-1135.4797254722146,-1110.5561339877293,-1050.3930142497356,-1059.3065536659844,-1067.5665017511453,-1034.438099358634,-1128.2416755120369,-1055.0550741150753,-1091.4015165019925,-1050.212537324574,-1043.9126525166498,-1587.7238646078806,-1144.5943478962472,-1583.843912876511,-1091.589451512998,-1035.6751530471217,-1086.1661870173316,-1090.177114526055,-1054.9084458500577,-1646.2889171566092,-1633.8018666200708,-1245.498154669435,-1096.1055319901213,-1132.282611695136,-1083.4886270442103,-1604.0272606903343,-1545.0928899113546,-1639.2334307912809,-1091.2665283942522,-1059.4899423594627,-1134.0334478762788,-1524.5634207147264,-1630.3649313007568,-1079.2029616098762,-1573.8010636507408,-1051.3455400501398,-996.9096532317201,-1123.5265401865754,-1092.3284806322242,-1613.6007831929746,-1107.8166498764322,-1243.5746209060328,-1129.0517766043013,-1081.9345651881777,-1126.7082176486404,-1708.5568178612207,-1126.6039056424,-1131.8536009136485,-1704.7643275431726,-1121.14338737537,-1735.1467479347584,-1117.139471804649,-1274.262058469908,-1177.9988868693274,-1424.0983169920066,-1272.3449524693162,-1867.2960689049366,-1161.5440504893756,-1034.075970049012,-1087.5237088763245,-1237.671261450103,-1412.3051865422954,-1158.077739783203,-1209.043581578218,-1720.695903173417,-1162.4135012971337,-1082.8363529285223,-1077.060253021564,-1049.3868640631567,-1082.6306230283287,-1051.7258918303828,-1461.8982521427363,-1001.7986427173339,-1380.083189527115,-1111.439082153129,-1095.9183830629493,-1051.8431458811538,-1065.6166777541766,-1469.4841177200503,-1479.2520384300212,-1044.416784496371,-1025.7439525791403,-1091.961285609325,-1044.6110821939071,-1337.313155440908,-1050.1195740355363,-1008.453659602063,-999.3123751788436,-1063.9821018487403,-1025.0767122021723,-1476.124172319085,-972.8087012167542,-999.3757573680525,-1068.4231633360225,-1474.59074670386,-1048.8711197777743,-1045.7515532811383,-1509.3638487761896,-1021.8067268777453,-1059.6866446488086,-1628.9015137186416,-1026.0713891987714,-1430.6064415003236,-1123.5378603604925,-1055.2696811399064,-1535.530179194373,-1028.585167682085,-1131.8437139550015,-1571.228719925402,-1580.2083585876205,-1538.1493586336067,-1076.908717085615,-1111.8280101102166,-1044.3679235553493,-1056.4258581432834,-1048.379366721295,-1046.3519474279249,-1162.0987347871674,-1259.7939423677215,-1052.5040259978016,-1606.287809862483,-1727.1286733121492,-1160.54786259623,-1078.4994930983605,-1093.1112779593095,-1057.313451818903,-1538.1623635950975,-1056.8927157975616,-1324.7425911201642,-1372.5946102546586,-1481.1100360799492,-1034.8397983419554,-1128.0847101189804,-1515.7150401689767,-973.9078570095589,-1036.6830696990653,-1050.873399630225,-1061.444900977425,-1004.7717200873705,-1386.638328022414,-1603.979040203554,-1126.6216396754876,-1124.1613957823579,-1028.401909815741,-1503.5273303122424,-1125.3412447853473,-1494.109161587238,-1426.3859057472418,-1558.122908603618,-1198.1639470372495,-1045.5934467776528,-1508.9249160004779,-1531.2560275086364,-1132.6365945985308,-1645.6967433187729,-1017.83438156298,-1495.203544056087,-1086.1908501616538,-1089.8500540286814,-1646.5332024970662,-1077.1048613932312,-1120.2930083224383,-1114.5350367307537,-1773.971411344228,-1140.8667893131928,-1487.9274294912877,-1111.8450087914223,-1154.2733475718335,-1146.2939811004749,-1059.2903305419356,-1044.2094556219577,-1081.7247430687476,-1111.2700481861025,-1070.5781296579887,-1558.254479329263,-1049.051559005467,-1071.5022851809074,-1344.7816157970085,-1585.919989458179,-1078.582892745388,-1560.375646612676,-1076.3097360042514,-1043.45844245192,-1061.3816236459643,-1064.186197853383,-1125.9644187908552,-1086.2847319743728,-1082.66188287606,-1111.2298458321663,-1016.474457009614,-1074.9999966637363,-1454.4204852055168,-1117.4554723558995,-1101.8070966271443,-1125.926495488543,-1143.4045728842918,-1594.7501906586795,-1707.7638396049276,-1065.2742402154518,-1062.2967046652154,-1100.1325360195863,-1663.2232683579327,-1763.3685559637065,-1576.7897390123815,-1506.4274244093278,-1030.6379404545996,-1623.7798732923816,-1159.0207153835472,-1492.8348541959729,-1081.117158678028,-1182.9660442130464,-1060.5418249897891,-1236.0439466264934,-1586.6450249286322,-1048.3457918986733,-1125.9071411889965,-1682.8837528924894,-1108.7546219490737,-1074.4725155491703,-1551.0585441231126,-1596.9933831583517,-1060.9971994887987,-1172.737004854247,-1034.0103529326109,-1062.092469843007,-1057.7321201516168,-1563.9796729574334,-1077.1197347563013,-1062.579897742517,-1058.7652167972647,-1639.9993692192324,-1033.5953899209271,-1558.5298674704036,-1531.272701362017,-1592.811352703136,-1105.5641692289103,-1041.7367883134589,-1075.5034102562347,-1128.6650272949678,-1123.4984394387784,-1125.838281205157,-1074.5102638457076,-1068.636283503079,-1093.4778872165623,-1095.7006330936142,-1052.290277290834,-1118.2538772994458,-1034.8705101086246,-1519.8112313615727,-1104.6887021589446,-1078.854192031518,-1017.1817663993903,-1095.3224593647026,-1147.3367957036687,-1151.239381915466,-1645.8178998836647,-1452.254888930542,-1075.2326483900101,-1091.5329237457104,-1061.4822019492367,-1670.6129000751596,-1487.7699276843887,-1023.5277005701356,-1044.2424744949392,-1063.6658226369034,-1066.8844751029785,-1595.5715831211724,-1088.4873833228178,-1493.1277851367204,-1088.0384166116373,-1016.483258363888,-1099.0606774427665,-1045.7318973840372,-1039.2416831949217,-1415.1514025104527,-1131.3660723050534,-1531.6341032545001,-1589.3277824240135,-1529.4272519566796,-1076.6818765773187,-1625.090291104198,-1073.6853443475848,-1464.1627871398332,-1384.2665669010814,-1010.2639025952927,-1056.040405264971,-1478.50186499017,-1511.9935597792426,-1070.6768637892037,-987.0800170351631,-1049.189781153428,-1004.3062595135617,-1098.8510544989967,-1052.983320555836,-1070.4481200586486,-1814.8941417619014,-1763.6816005939327,-1739.003193178385,-1657.4321039802492,-1759.534604934459,-1612.4579660503923,-2110.107165582505,-1565.5724698387826,-1295.2399270895057,-1358.3321913620373,-1337.8774763357615,-1549.2119042044685,-1409.0826718033447,-1692.9245458662203,-1734.1356457540348,-1578.6304082837166,-1481.3372804973667,-1388.4400903454039,-1547.9711687381682,-1617.7599944671751,-1554.0988231927226,-1563.3401695778089,-1545.0403762036094,-1426.1753744829057,-1620.7654375535371,-1684.4307334440896,-1615.468481003772,-1536.661909326971,-1449.6058793767231,-1512.9791523398387,-1617.5970092447096,-1550.9733109534923,-1723.9555878848814,-1432.4675392998815,-1489.9932125633404,-1515.7719708622915,-1668.4811420918384,-1595.4617930695247,-1375.512588408833,-1596.2409838442877,-1636.932791575764,-1475.9103960056145,-1421.4508684958637,-1650.5050826743247,-1692.76200141148,-1607.9010879310517,-1550.5337164440573,-1453.257159355684,-1651.6758389959198,-1642.5152830317886,-1516.8666021392285,-1473.7892406266972,-1417.115003983965,-1524.600816686751,-1482.971764360362,-1463.7948780404781,-1454.4189338964918,-1436.0974603818038,-1534.077371579821,-1609.8661420265819,-1606.5169133655334,-1530.9281681886075,-1263.002523283218,-1413.869753272424,-1577.183504361942,-1588.676015166312,-1496.2842233217748,-1543.9966119291266,-1447.2371187040653,-1505.8721348629415,-1603.3169626818992,-1498.7013386200774,-1455.5365219495138,-1492.421580185164,-1576.702261469952,-1601.7961294232337,-1517.1698291494963,-1453.2696503816594,-1417.987292248541,-1559.6687484026045,-1469.6854853729774,-1545.604593385601,-1438.8489699823317,-1607.3166190127924,-1638.9612822975716,-1637.3135153438197,-1513.6368338494174,-1519.475291481431,-1704.3669365571516,-1641.0344531753233,-1627.2601585286666,-1492.364930732348,-1424.6290193105976,-1551.9353855677207,-1549.7770721700645,-1486.05418935925,-1455.3710144773086,-1506.6549467142988,-1679.8992484876728,-1591.9929069118768,-1494.968385044723,-1460.2139112408086,-1472.9266228730655,-1609.48376761281,-1609.9283775003728,-1670.1650904665287,-1643.9376661865008,-1646.128087903351,-1671.0321529928754,-1706.0604486179134,-1586.8017016983838,-1480.3303566024429,-1558.4027025548164,-1656.7770622107728,-1573.9675476641694,-1612.061784321944,-1473.9867168541841,-1480.3055933886735,-1622.0543993402862,-1509.0135747473391,-1408.5752885551108,-1417.5968827262832,-1449.5078943498404,-1651.9488239099421,-1566.7304830847659,-1555.0525912390224,-1513.6072910257315,-1459.7141814301483,-1421.015882057573,-1572.5355517640935,-1686.8890953454854,-1583.9335346649607,-1548.7081270587828,-1459.2340814919305,-1578.6100241662716
1,370.4104977597385,367.40818141662,366.4067503046309,368.40907364299153,367.4081599809289,367.40793915739937,367.40794869923917,369.4100540316556,368.4092799444117,367.40788913557464,365.4300088193178,366.4069060880311,368.4091258899179,367.40800869009405,367.40799170135114,370.41148677003787,367.4080720541412,368.409160788826,369.4102485538818,369.4102295425641,371.4124232051327,367.4081559777937,368.4091003458065,368.4086375493095,369.41038634396114,371.412339905287,369.41029375969237,369.3847994955492,368.40903458631954,367.4078730993132,368.4090945219641,370.41126971756603,371.41238684324355,370.4112676153392,368.40904652879027,372.413409079887,369.41006301364234,366.40682261469635,371.4123803109196,368.40904018710063,368.40907940968856,365.40569291578765,366.40680295729965,370.4113909191815,367.4080057409866,370.41129634635263,367.40800139363273,369.4103377235873,368.408930757095,370.4110760015062,369.41020865094794,366.4070415359678,371.4123311070123,368.4092068478529,368.4091276676904,369.4102270144117,370.41128220447206,367.4081462531624,368.409184814259,369.4102174240972,367.4080561846139,369.4104195911194,370.41135916386276,371.4124569164767,366.40671632926006,367.40804896869275,370.411497766151,367.4080189324701,371.412459753722,369.41010822671564,371.41259087746556,368.4089320143627,371.41237146609916,368.4090092971889,371.41257894432357,368.40926969129504,368.40907640438365,366.40682942017804,368.4091764847672,370.4114039249414,368.4092868274333,364.40483306112253,365.40555165172253,367.4078233334781,368.4090559538421,369.4103969371205,364.4046809925898,365.40579968404626,366.40678982042726,371.4124676679092,369.410344561043,367.4081853951329,364.40463347444916,367.4081601983116,369.4101851401003,367.4080222124881,365.40584923383244,370.41096855308376,367.40766579197276,367.4080717346407,370.41123543816,367.4079861384133,368.40911438915583,370.41131587076046,366.4069051150024,368.40926236372906,367.40802297030706,367.4080364566664,364.4047840951241,369.4102314393301,366.40653008816474,368.4090747198687,370.41135246887023,367.40806058140186,366.4070741123042,369.4102377202711,367.4077675493506,368.40898015363837,369.4102785463182,366.40686815645375,368.40877339842893,368.4090027228443,369.4095929466988,369.410399487945,371.4124388903003,368.40915698928796,367.40796547628395,369.4101511386903,371.41242952656063,368.4091743043817,370.41145857702537,370.40940107755887,370.4114890104471,370.41123483252846,369.4102121295582,371.41244973882607,368.40911068137063,369.41009041966373,368.4092991712229,368.4090276505217,367.4077971075929,369.4101290012953,370.4110983209417,369.4103622894139,368.4090575654565,366.4068036886138,368.40915038904456,370.4112847142305,368.4091764775951,371.41242721011565,367.40787591003937,367.40797494776547,368.4078747111216,366.40678805383004,371.41227484818694,370.4114938988164,366.40695735136916,370.41126332992366,367.40803422181875,371.4120747495772,371.412460656012,369.4102166307274,366.4069558260028,368.4088974739993,368.4091358134476,370.41132268420273,369.3907425599787,371.409035354199,368.4088506826292,369.41007360208937,368.4090907204662,371.4124256325916,375.41705171908086,371.41239698285784,369.4101970550638,365.4057532033048,376.41815537277887,365.405921170754,367.40794180757075,368.40906486750566,368.4090741936745,371.4124241584046,375.4170437936047,370.4110880746885,369.40991691162117,363.4037317481716,375.4170637298158,370.4112258250031,371.4123972335903,370.4109774572584,367.4081312844877,368.40893042296705,367.4080544690084,367.408155528768,370.4113319061782,364.4047376364746,373.4145059098385,368.4091119795662,370.41121694556443,367.408128729982,369.409863954127,368.40901203106586,369.4103541046393,368.4091947364964,368.4088303612363,367.40816812195345,367.408033731454,368.40908325684165,368.4090743183281,366.40706868809065,366.40683378862707,365.40581756644036,367.4064832501034,368.40895169444735,365.40594749042873,368.40913042867527,368.40915614216095,369.4102600131387,366.4069182413613,368.4092771391919,368.4089906143974,368.40891102528343,370.41135719575027,370.4115070752638,368.40927560298286,366.4067576720733,368.40908434295716,368.4091060654017,367.40795793524524,366.40686696035624,368.40926308785754,368.40912373085206,370.4112135843144,368.40918511880085,367.40797183550995,370.41129286414883,366.406875284483,367.40806840496504,366.40704042611753,371.41248574903415,368.40899617849436,368.4087312087857,368.40582004983173,370.4113013212082,368.3917096132924,368.40928250428436,367.4079618949836,367.40794914670624,367.40790284939794,368.4084547992996,368.40929520848954,368.4086981608268,370.4113742095383,368.40910933596115,368.4090949540545,371.41223760179724,370.4111332491259,367.40801934166285,367.4081572057058,366.4066960073687,369.4091752777505,367.40801910293897,367.4079482311269,368.408917466011,367.4079987318892,370.4110325927608,368.4089221015451,371.41243492293034,365.4057912919394,369.4101056786535,372.4136521088187,376.41801544472935,365.4058390567164,368.40924582530687,369.41025004112464,364.40470249465255,367.40809245301085,368.4091337222841,367.4032504204712,368.4089892928484,367.408018272228,368.40907006270805,368.4090514782756,368.40895518257634,368.40925357701633,367.40805201399473,366.40705304039705,368.4090524542177,366.40691230417815,367.40796518615286,369.4102959659811,367.4078965860761,367.4080171674853,370.4112445623193,366.40657303266823,369.4055580146718,368.4088371244418,370.4112670288641,370.41147293909194,370.411301577121,370.41114008426166,371.4123209559326,367.40587220356934,371.4121791069419,369.4102946793639,368.4091899998579,368.40910080944775,367.40803154217434,371.4122012286216,368.40912006101536,367.40800886914514,368.40925696325286,371.41259027223765,371.41225797699116,368.40927804711436,369.4101697323445,371.41245355207167,363.40353494600447,368.40914905934045,371.4122427284732,370.4111183331105,368.4089507993197,370.41138168792213,372.41370388532073,364.4044597978712,369.41024661206586,372.4133425091379,376.41798772650753,367.4080547308392,369.4103656529616,366.4070684170386,367.4081944696694,371.4124360861412,371.4070112055909,376.4178233155601,379.4214102289648,371.41247082902566,368.40902268733333,370.41130714883485,367.40796629580075,371.4124547679928,368.40908864873336,371.41242690398286,372.41348102535534,378.42027042494675,367.40794360750806,365.40583998528433,368.4090255319986,371.41228638819746,363.4035335022011,367.40793932812045,368.409126607127,369.41038735171406,368.4090442352085,368.40909227737376,371.412377296492,365.4057689918451,367.407846155926,369.4102460691086,367.4081681400313,371.4121107766489,367.4080683671409,367.40796509299804,367.4081801265984,370.41133432077163,371.4126115642292,371.41245519940765,371.412384619678,369.41039961131304,369.4100318912332,369.4101719602905,369.41036525701253,371.41206072565456,369.4101856553951,367.40808760619007,364.4044581681205,374.415798838576,371.4124142822555,369.4100051295238,369.4100828498456,376.4181705250078,371.4122245483143,372.4130042222269,372.4133208974596,364.4045990335011,371.41226756138997,368.409218038871,368.40918405695686,371.4123573784605,379.4213170401769,364.4045290267614,368.4091672295481,378.42029865087306,370.4113148201405,372.412563938736,371.41243098207843,370.41134358537516,369.4102237516502,368.40894570192137,372.41351249337373,370.4113604598245,369.4102543339913,372.4134589525541,367.4081458747996,370.4113490460796,368.4092892592047,379.42140577646666,370.41124748998556,364.404615630825,372.4134809932795,368.4089470913598,369.4102511797352,373.41484044258857,368.4092988723313,367.40797132200504,370.4113118610413,378.4203044302954,377.4191132939594,366.4068828031886,368.40911021455486,368.40912275719694,368.40911719338243,372.4131193291529,369.41016818953864,371.4122842908463,368.40926419824126,367.407946392311,369.41025299724794,371.4124454739418,366.40682516670853,368.40913248709046,367.4081112304866,368.40909704891016,367.4080979527901,370.41109666825366,367.4079819804528,367.4048350546875,366.4069037844367,367.4079829060659,369.40991595853376,365.4057248639487,368.40905985978617,368.40910402251234,364.4046960455875,368.4090238339207,369.4102457224748,366.4068896992864,367.40797831854917,369.4101111020205,370.41071096170305,367.4079860974136,371.41247636022564,367.40790640218694,372.41356416728195,372.4132418903214,366.40689967169527,370.41122747356025,370.41114266294846,368.4090477570921,370.4114735712026,368.4091040451869,373.4144620216255,369.4103032483404,369.4103930286148,367.40796833667315,371.4126010026412,369.4103603919642,366.40685378517463,369.4100399614028,368.4091246540753,369.41023128063523,369.4100694144682,370.41128757215716,368.4092886909996,370.41113889302596,371.4123483689148,369.4103949087668,370.4112034605355,367.40804963825536,368.40922324298197,371.41243024748866,371.41218007541244,371.4125205608562,369.4102103903404,371.41221922828385,369.410170096837,369.41007769294885,371.4126128798242,369.41030413699633,369.41042027484855,370.41132667114056,367.4080133449466,368.4092784634698,372.4136839347051,371.4124381751228,370.4114087352511,368.4091151488445,368.40896080245716,369.4100812917157,367.4079932230653,371.4125186870698,368.40885159723723,370.4111380415662,368.40914265246914,368.40911322890065,369.41037761473194,371.4123654899371,368.4093024498731,370.4114190460705,367.4080014317776,369.41006051948705,369.4101940205091,368.40909808777633,371.41258888734,368.4092672384357,371.4124690300329,370.41143378709495,371.4124010591891,369.4102349625336,368.4090989461566,367.4081503634857,367.40815358281225,369.410240184257,368.4089219895507,372.41348671268076,368.40916680185603,370.41150066461836,369.41018511846016,368.4092817879502,368.40903323279946,366.4069128504186,371.41206959359664,369.4101725947765,370.4113571638703,370.41140815162436,365.40558734202676,370.41129444602933,369.4102836319772,371.4124684419164,372.4136892387391,371.4123454853529,371.4124382425503,372.4137152018151,370.4113322531849,368.4090605773962,370.4113196147743,372.4134746209614,372.4136074720077,372.4133261982517,372.4131847288203,372.413712206973,372.41338880945966,367.40796390430376,369.4101782066042,372.41352111337955,372.413560552265,372.41352244434506,371.4123145917976,370.4114208178857,372.4135003422296,369.40994951765634,369.41016976776467,368.4091326338418,369.41024569062336,368.4089176269174,365.40576835377374,366.4068351821583,369.41038061448234,371.41238334572324,371.4122102879697,368.4091468915659,369.41015136002693,368.40928864705586,367.40814826207094,368.4090300327816,367.40806315118596,370.41087904837025,368.40916494183057,365.40595799746274,368.40921098028883,366.4068458928774,366.40675144607803,369.4103038310541,367.4079640523132,368.4092844539993,365.40579853191076,366.4066619357532,369.41023461598473,370.41136397219634,368.4088752227968,368.4090529323356,370.41151429187073,367.40792047020363,369.41003071638033,368.40929250029797,367.4080051848574,367.40804118962075,371.41247055016566,368.4089913518612,366.4067618944379,367.40793360103515,371.4119264584808,368.4092809597939,371.41260156110826,368.40928684853935,369.4103378981403,370.4113780770938,368.4090717540249,369.41003015596556,369.41026488658406,368.40909292182846,372.4135651755704,372.41336671341753,368.40911224051507,364.4048296303074,368.4089978897949,372.4134434653159,369.41018176128415,370.41103150707136,368.4091173838613,369.40829732122114,368.4089713798897,369.41040373516176,368.40922579874484,366.4069456899135,367.40802393976867,371.41238709597746,368.409195513789,365.4057691142492,368.4089500235445,368.40911558133746,369.4101659623422,366.40679780305516,368.40914919357533,368.409259818241,371.41241379684334,371.4124685496701,367.40786080717425,367.4081726208191,371.4124669521637,369.41025792524346,369.4086289121572,366.4059307827784,371.41238288020145,368.4091754127557,368.4091250609742,369.4103828430629,371.4123471291325,371.4125939770386,367.4079996316256,367.4081611575874,369.41026245446466,369.41039168396424,372.4137109882447,369.4101399411168,371.4120508796628,370.41139372058257,369.4103546569868,372.41350882429583,372.41372507836473,371.41244380835764,372.41346172444275,370.41136869654207,368.40885513684856,368.40910184024534,369.4100487039376,371.4124011176643,369.4101663358775,368.4091459450148,368.4090923998878,369.4101933659828,369.4103010265245,368.4091269514423,369.4102099486526,369.41040441712823,369.41011367990603,368.4089879717338,369.41027843399644,369.4102654287405,371.41215234320237,369.41024287741124,370.4109758434199,370.4112518617169,366.4069579032138,368.4092954401522,367.4080229509352,371.41226928710944,370.41131812950346,371.4120984658179,372.41345077430276,367.4066480054054,368.4091719168332,368.4091841208045,368.4092005239006,370.4113208063148,371.4107294187589,370.4114902996097,367.40816968812277,368.40905500185306,367.4080991302752,372.4136104461079,372.4135744355749,367.4077866719631,369.4100262971628,373.4146774543666,368.4090582154152,372.41346132164284,368.4092673931016,368.40901194133266,371.4123370422036,372.41358580523604,370.411127568604,369.41016400816324,367.40764277021276,371.41257690385453,368.40910795197385,372.41343779069723,367.40788220482017,368.40900536906645,368.40900121847716,367.408164413449,369.4102112043156,368.40908341385637,368.40917123328893,371.4121787173679,367.4080080150774,368.86599089267384,367.4081700636589,368.40929793346237,370.41104669522275,367.40804678680473,369.4103040548627,371.4122708297448,371.41246240723274,371.4118894404153,369.410259473576,369.4100882802972,370.41124996608534,370.4112827442847,368.40899528571316,370.41151113064075,367.40801541164143,368.40907353788674,370.41125734008864,369.40987431992505,366.4068764467596,370.4112755409862,372.41327539895514,372.4133490935931,371.41263053738385,369.4088927700955,369.4102260422849,369.4102359672338,368.40909785080225,371.4124520608871,367.40733021891816,367.40804548119115,368.40900417117973,368.4090622265227,369.4102165844882,367.4081706300873,369.4100556995734,370.4114910305584,370.4112858045631,367.4080310707102,370.41121963295404,368.40898812957,368.40906114459113,371.4120976431086,371.41234502932804,368.40864459023607,369.4103631035389,368.4092884835868,369.4102459106459,368.40926584229646,369.41014867930363,367.4301322185659,369.4103817761454,366.4068804003499,368.409112931985,370.4115047181926,368.4092927946844,369.41003728997026,365.40571187404976,368.4091169997443,366.40686410443595,370.4113645219252,368.40911553418965,369.41028783377664,359.39911835262154,359.3992893912302,359.3990865982739,359.3992704175755,359.39927558503126,359.3992336677878,358.39866791374294,359.39931458617957,359.3992977341196,359.399367018543,359.3992984573189,359.39939674538016,359.3992985721145,359.39930401917957,359.39930852858646,359.39931282040203,359.3993133043808,359.39953431975107,359.39932668676227,359.3993050369572,359.3992914201087,359.3993266214685,359.3992769232877,359.39931391619484,359.39931276400495,359.3993027792994,359.39929864618534,359.3992918861078,359.39932019342535,359.3992977706717,359.39930575438586,359.39929096586,359.39929792288797,359.3993001513069,359.39958158157447,359.39927172871427,359.39932542701047,359.3992970262465,359.3993167693055,359.3993043967275,359.399290037847,359.3992848187021,359.3993931518215,359.3992873599073,359.3993104174245,359.3992929064308,359.3993164404126,359.39931259543243,359.3992947809201,359.39929500721445,359.3993801396283,359.39944222593596,359.39932897924047,359.39931847875226,359.3993057508137,359.3993048933499,359.3993001804645,359.3993102654201,359.39932485208016,359.39929616412854,359.3992804940897,359.39930150947237,359.3993164351285,359.3993192099015,359.3993283056219,359.3993181101642,359.3993108621071,359.39929069128755,359.3993011520719,359.3993156096016,359.39929736088163,359.3993199457639,359.3993094513211,359.3993258355173,359.3992969232121,359.39925704070737,359.39930911120786,359.3993042250263,359.399304212337,359.39929932898366,359.39931288857014,359.39930541772105,359.3993297547401,359.39930261157053,359.39929394896666,359.3994154231367,359.399439023611,359.39930746691715,359.39930988976806,359.399292558085,359.3992894715908,359.399314602374,359.39930637597973,359.39928481748143,359.3993034176665,359.3993069096226,359.39932470988174,359.39929516712175,359.39928621339567,359.39930046090603,359.3992875476841,359.39931066570455,359.39947416543055,359.3992991338985,359.39930760307067,359.3992956348793,359.3993982843399,359.39930176079037,359.3993040664666,359.39930688907293,359.39929061877655,359.39930756951566,359.39928452172325,359.39931272404135,359.3993019175121,359.3993233954446,359.3995411464902,359.3993187733784,359.3993287107956,359.3992691473898,359.39929690986764,359.3993092746148,359.3993098260696,359.3993087457612,359.3993055713802,359.3993155084704,359.3992994471994,359.3992962242226,359.39931938156343,359.39949538110284,359.39931874688955,359.39930302908243,359.399309441378,359.3994410840095,359.39930731077004
2,-0.0003826859174892766,-0.00041445128965165296,-0.0005022600531709067,-0.0005007468708694351,-0.0004631035674961186,-0.00042048641938641207,-0.0004220300502037616,-0.00034258002700368975,-0.0003822449047383131,-0.00045214636903673396,-0.00033739558213936757,-0.0004260146480972584,-0.0004024429140486766,-0.0003164527009680198,-0.00037244963921025147,-0.00031840362086733046,-0.0003355115526390914,-0.00032105968060585656,-0.0004323733247248886,-0.0004232861024987269,-0.00035873501177998687,-0.00031542290845936567,-0.000345559741758979,-0.00032779161199288136,-0.0003362313940507461,-0.00038300400940263107,-0.00032966569042429855,-0.0003064319049900323,-0.0002789425271180176,-0.00039029872952622824,-0.00043063369630507136,-0.0003467197748741034,-0.0003345512208270335,-0.0002784685561345681,-0.0004162756505376141,-0.0003592026004958467,-0.0003486632146780126,-0.00033406021196006783,-0.0002586617191595375,-0.00041504205405936225,-0.0004252591609680405,-0.0004917121467435359,-0.0004953113199684202,-0.0003990512961214198,-0.000319747746921147,-0.00036520422486795216,-0.0004020828606056329,-0.0003308500700011323,-0.0003837491505179083,-0.0002699206604122219,-0.0003155568076475336,-0.0002832392286683208,-0.00026943280558134605,-0.00030586441913754063,-0.00036149861284948343,-0.00037798415981204895,-0.0003888800266730034,-0.0004023892625650854,-0.00040765474771775097,-0.0004149252249731492,-0.0003104059425697258,-0.00030134516677209365,-0.00024741769388681134,-0.0003333724067584225,-0.00023571563281902873,-0.000333493647448324,-0.00039376250832190397,-0.0003166987350144207,-0.0003338216475723547,-0.00025273094221215796,-0.00029635004818293986,-0.0003249762722123563,-0.0002620684477620128,-0.00023976688713064567,-0.00027955284416037574,-0.0002816587200798774,-0.00030336483264801903,-0.00029380799793087925,-0.00027310163421389786,-0.00027954512614533216,-0.0002979528551654729,-0.0003182041276638625,-0.00035678588672883834,-0.00047178932499582427,-0.00042452205811546897,-0.00034294395117835457,-0.0005581198378962057,-0.0005312146697643505,-0.00040191204584991966,-0.000384080778976169,-0.00032820607820895406,-0.0003227991765408565,-0.0005219957970813535,-0.00030660969312975645,-0.0004438101119193738,-0.0005098358867804844,-0.0004497905855887609,-0.00030619439649866103,-0.00027143347074571776,-0.0003551322976993072,-0.0004298384200008549,-0.0004323492251982683,-0.0004201591858029,-0.0004076909644008039,-0.0005272663025553618,-0.00034167927848371965,-0.0003101946747846666,-0.00045467305007340885,-0.000311733512775536,-0.0004554767119183676,-0.0005275583532415366,-0.0004147120335897188,-0.00040386149343974906,-0.00042469023795349483,-0.0003195870899139359,-0.00041161679713815866,-0.00026643280465797777,-0.0003190911019849252,-0.00030167664160580073,-0.0004425143171438658,-0.0004607529899543924,-0.0003506664792999486,-0.00031680407466767814,-0.0002886284284640911,-0.0003055796577633848,-0.00022884948824883081,-0.00039759976545256586,-0.00040092401193834163,-0.0003377914534147125,-0.00030091217031074676,-0.00030622814172755956,-0.00033788283733933444,-0.00036010316581691995,-0.000299100185878277,-0.0001936468787051974,-0.00022678478773813793,-0.0003682902893454379,-0.0002451918573580285,-0.00028420772216221547,-0.00025999794646627643,-0.00040197521803272816,-0.0003517053506809676,-0.00027122851744042724,-0.00026575443778555004,-0.00029716355370476967,-0.0004079527917008487,-0.00031069180888118164,-0.0003140094538764758,-0.00027765714561736246,-0.00023547116475633985,-0.000310358446744866,-0.0003513905303544735,-0.000320356610796861,-0.00029300248160156386,-0.00027983115292164813,-0.00028950251250151976,-0.00030067035848888577,-0.00036222820041143937,-0.00036394879628624127,-0.00026432211778352685,-0.00027005319743898787,-0.0002533797752913481,-0.0004372696922425525,-0.0002963942353874558,-0.00026191772798998185,-0.00028030590292452026,-0.0002762083576617606,-0.00029601134614540937,-0.00027930542067981014,-0.00033326912296721077,-0.000298424231920438,-0.00022968009269319398,-0.0002785659256595554,-0.00030335613137747245,-0.0002751916173155318,-0.00021777398349999183,-0.0002785854857158825,-0.00024504534148848424,-0.00022001802750320275,-0.00036453879021239197,-0.00028582077035815584,-0.0002446054255712099,-0.00029927295410245525,-0.00025991618223734014,-0.000220573887832629,-0.00023125071961109677,-0.00028396212860722,-0.0002612847559092062,-0.00024088681537968166,-0.0002549376222708159,-0.00027679471374384524,-0.00025591552794497285,-0.00022358452876577488,-0.00028676491128547217,-0.0002880153399527425,-0.0002674813581028447,-0.00035181227019998637,-0.0002815504247837994,-0.00030036575751970395,-0.0002938622301917902,-0.00026153669535752214,-0.0003967631778838854,-0.0004346435950092981,-0.00042680061099207244,-0.0002823968581617956,-0.00029406269373083335,-0.0004853545608871834,-0.00034446737290741983,-0.00034668182147227534,-0.00033797189652583936,-0.0005568033861614137,-0.0005916099200743788,-0.00038261107871273136,-0.0003710127727021543,-0.0004239021460802944,-0.00043177572340679315,-0.0004732309080714805,-0.0003594162964486306,-0.00033578295791714433,-0.0002897179576987935,-0.00031616745391354863,-0.0004330334158855311,-0.0003214507065594746,-0.0003083520774643256,-0.00031723286228469,-0.00042993128080448187,-0.00043903671742232523,-0.0004523402176564686,-0.00037267612010438895,-0.0004483440706942466,-0.000284672663219057,-0.0003420732370778915,-0.00027578294469119877,-0.00020991066215877044,-0.0002257891554491262,-0.0002592117026492834,-0.0003445820894354827,-0.0002661711014477222,-0.0002795630047798159,-0.00025193586503610254,-0.0002530638161921148,-0.0002803226668910635,-0.0002750487034545998,-0.0003017920632946026,-0.0003061351433869149,-0.00029171934499420873,-0.000391755118122089,-0.00036640209575312504,-0.0002753782375028358,-0.0002954541519008845,-0.00030887541715603694,-0.0002153350791942916,-0.00023456748965960389,-0.0002597555401385821,-0.00024739291583127814,-0.00031013322123603967,-0.0003333599649888027,-0.00021257488858865555,-0.00026540504490996146,-0.00030994301488191604,-0.0003006745261301139,-0.00024388317140685426,-0.00023144167803814363,-0.00031499544123478253,-0.00040015245610745706,-0.00030150041497952184,-0.00027013621822329564,-0.00023862628873417107,-0.00048210092315557494,-0.0002576903638254125,-0.0002758518912110823,-0.00036312048173616504,-0.00023742535505668963,-0.0002935319608085165,-0.0002837325235429509,-0.00026207092906454984,-0.0002290651499458762,-0.00029982454700933395,-0.0003080503459178601,-0.00021110351539432086,-0.000228464197488279,-0.00026616101471365575,-0.00027910324632858253,-0.0003189134643685135,-0.00027186902130644564,-0.000254159575253732,-0.00032095731002999123,-0.00044563178444624867,-0.00026429266050061217,-0.0002526467106670756,-0.0002809998141863515,-0.00026909146950165636,-0.0003586868668742903,-0.0002924117229908668,-0.00022136327183341757,-0.0003172513769305155,-0.0002563943543871887,-0.0003066552044700776,-0.000327347033827368,-0.0003419716256749323,-0.0002866995578374731,-0.0002857538675473024,-0.0003057479156828198,-0.0002785087954207737,-0.00026870748268960804,-0.000277208975027831,-0.0003109504886371451,-0.00043260000559146235,-0.00034679434218470645,-0.0003630823904036337,-0.0002446630533766245,-0.0003166562134936275,-0.0002987374090775869,-0.00024112419775751092,-0.0002595936651415245,-0.00026316329569055897,-0.00029946308189397937,-0.0002125067380024647,-0.00021319326528648115,-0.00024232005489103678,-0.00024311685350228836,-0.0004617482724270875,-0.0003741107856680327,-0.00024754487350208884,-0.00022956975176459952,-0.0002707724775271257,-0.00027712670477755255,-0.0003032028047813412,-0.00025220989454517327,-0.00028930525874652324,-0.0002619101736796662,-0.0002716413257336441,-0.00023842798995520672,-0.00027330197017778695,-0.00024916740957628414,-0.0003363058815389659,-0.000275663077726783,-0.00032192297437452755,-0.00028395282483082893,-0.000191351749091368,-0.00022149614677371678,-0.00029839410694303164,-0.00024349776060993332,-0.00024173504449214941,-0.00032898273473124954,-0.0002164833082546553,-0.0005540188536507788,-0.0002637142511718008,-0.00023916127731896098,-0.0001732036196907454,-0.0003601236281812152,-0.0002493670984079734,-0.0002914398428342803,-0.0002561468620574177,-0.00028840273301357616,-0.0002716845163657656,-0.000249723764893641,-0.0002501979542960488,-0.00039015816508719173,-0.00028990050091004256,-0.0002712068557620261,-0.0003774343012225643,-0.000414494233256386,-0.00028741949408602813,-0.0002159924305684777,-0.0002791426894846597,-0.0002558065925738109,-0.0002600909015715946,-0.0002847878871556628,-0.000257550539095026,-0.00024488439177525884,-0.00025706532972830993,-0.00027182256432110315,-0.0002955151796181934,-0.00025588252239460894,-0.00023179040786376447,-0.0003207727920576921,-0.00022159892081536286,-0.00023391416825573283,-0.0002628166116378519,-0.0002885975423357881,-0.0002249431686842011,-0.0002563953515863636,-0.00026799857333859457,-0.00016348779264329006,-0.0002918620131645606,-0.0003070358131276478,-0.0003284648512762944,-0.0002811379196236203,-0.00020224701816444457,-0.0002476606223008011,-0.00024678515742803373,-0.00034262650740950006,-0.00017910783243814044,-0.00025168514087443606,-0.0002284110144062928,-0.0002214829172784565,-0.00023524700237751307,-0.00032685640220917416,-0.0002971724318946525,-0.0002581423016810288,-0.00025321317637711784,-0.0002964613631958648,-0.00023126830261099206,-0.000261251174408607,-0.0002563341734865342,-0.0003087902463581877,-0.00022419069194541915,-0.00017427693939013722,-0.00026240736605236706,-0.000271728267600352,-0.0002711529732398488,-0.00029143609270902064,-0.0002913282441300294,-0.00023937808136603337,-0.0002470033881341237,-0.00034948185652703133,-0.00036261655453397165,-0.00025597258221439755,-0.00042396468037108107,-0.0002634098915251248,-0.00032232123687715307,-0.00027021675854761826,-0.0002076746086893877,-0.0002432535814932288,-0.00033210097449338713,-0.00041030073186858857,-0.00026668995725867973,-0.00029190734688023606,-0.0004601537984773525,-0.0003392626571273167,-0.0002875887222756956,-0.0004612326084657367,-0.00034231731499890383,-0.00031702321520571283,-0.0004711796430048449,-0.0002956933617921066,-0.0003541729016013442,-0.00036993870397705503,-0.00043985694092134716,-0.0004877178711164318,-0.0003251816363460609,-0.0003935370349117496,-0.0006087823334817412,-0.00039724409562609503,-0.0003012388549154571,-0.0004628902809817499,-0.0005086807072100852,-0.00037455957571556626,-0.0003641845003353242,-0.0002549935046359568,-0.0002379028006686427,-0.00024103168477679625,-0.00022892805966865938,-0.0002249252205964074,-0.00039438727964876785,-0.00024085277970271478,-0.00037642757500250414,-0.000257104486907304,-0.0002502067047939092,-0.00017253648398769995,-0.0002617250845373667,-0.0002674129489506411,-0.00030514744287392164,-0.0003810170510696682,-0.0003162072825904401,-0.0002999697694009723,-0.00039432519945104146,-0.00022126327065644365,-0.00034766727637562206,-0.0003253484262457092,-0.00027728154695971167,-0.00020545701787836416,-0.00025735409265366035,-0.00029046054839423305,-0.0002353332870340151,-0.0003042318971622338,-0.0003182582383810906,-0.00025738797544916934,-0.0002821412893495023,-0.00025258125427549653,-0.00031091757660598536,-0.0003009751807872224,-0.0002657007056669413,-0.00028913723594388115,-0.00025933127910159715,-0.00024925199423753885,-0.0002965674178123632,-0.00022492445013949828,-0.0002850330525996493,-0.00031143358132228893,-0.00038506841430820316,-0.0002981962221472949,-0.0003091925608067449,-0.00024736975604498513,-0.00029074830545290203,-0.00035230108320253526,-0.0003405779339449988,-0.0003873014476886623,-0.0004103292818506342,-0.00030492728446711396,-0.0003483945678292883,-0.00028288028523514605,-0.0003615158379829778,-0.0004468959457463695,-0.00030366849602058864,-0.00026867853268223817,-0.0003117337322468208,-0.0002988090027130966,-0.0003868814423323768,-0.00027621487484327833,-0.00022195317510625932,-0.00043197340314379617,-0.0003063868288763921,-0.00026921228677089507,-0.00024184158639615436,-0.0003413189499361784,-0.00024309984632616286,-0.0002865169312959006,-0.000280574008559301,-0.0002803028283242783,-0.00029061950906496313,-0.0002290932061849335,-0.0002918691097715198,-0.0003677520986795435,-0.0002895179255976312,-0.00028447038266102715,-0.0003196873607249219,-0.00028845510556986813,-0.00033677620221280835,-0.00035338866124626613,-0.0002951739968260124,-0.00022520712015828884,-0.00029564354750630223,-0.00028139549008882714,-0.00022978134427127314,-0.00020158939780777377,-0.0002730190392890529,-0.0002624962340578278,-0.00029523353451619617,-0.00025596092379830696,-0.0002732639583940733,-0.00026992880454808826,-0.00023118064511474474,-0.00024446054239025337,-0.0002302359618227253,-0.00022299991183189112,-0.0002115554220574678,-0.00027526491929808964,-0.0002060288341007624,-0.0002580660812011331,-0.00023043438303817256,-0.00040562786829524976,-0.00031008270467723886,-0.00021451015070132642,-0.0002693714075144919,-0.0002470237176190846,-0.0002277172194900721,-0.00027616362209255,-0.00025786475082518296,-0.000262283998661926,-0.00030736248471134446,-0.00040000768603371976,-0.00031590074670865,-0.0003168851895994989,-0.0002888615158976457,-0.0004791869415229414,-0.0003340661542688286,-0.0003980639601600366,-0.00039468418762947247,-0.0005015678894499894,-0.000381116777856662,-0.00032870189188824195,-0.00030197303229393855,-0.0004588950029861817,-0.00039895356163140345,-0.0002895075700200255,-0.00036265636020592774,-0.00032150015704499204,-0.00046941154076243123,-0.0004845990839269375,-0.0004653054393235282,-0.0004353872693653902,-0.00038144983827226965,-0.0003276203095506074,-0.0004537861999502334,-0.0005296722709233798,-0.000440397424267768,-0.00032425808616084887,-0.0004726993489480786,-0.0003882784258531725,-0.00030430710792813667,-0.00038864096375885565,-0.0003677953419477413,-0.0002816169457474242,-0.000358620615203843,-0.0003081452930184769,-0.0002772300599617539,-0.0003356153434594092,-0.0002862061051380852,-0.00029461235563162943,-0.0002817072078865515,-0.0002793557711356836,-0.00030950756905424507,-0.00031899019334974903,-0.0002857560089267246,-0.00029477861659925694,-0.000373579517400086,-0.00045103942412303105,-0.0004179782078965235,-0.00033507378816612375,-0.0002248107515722908,-0.00021477182611934296,-0.0003786440022472705,-0.0002450743205733122,-0.0002522455081821285,-0.00022898073376376654,-0.0002589248976692581,-0.0003017447922806003,-0.0004172143128898863,-0.00026763288085859165,-0.00021037702477339228,-0.00033010380376764906,-0.00033489886181673915,-0.000309267130100993,-0.00038089697137032573,-0.00025939192198666376,-0.00028659677074393663,-0.00047608863429448407,-0.00043137494528721216,-0.0003450862012856701,-0.00037369574682331934,-0.0004755200619197429,-0.0003266363541593126,-0.00030135752583092165,-0.00024082121183173193,-0.000257085204041555,-0.00047452360049282725,-0.0002831340109624908,-0.0002721077100555494,-0.00028921862289986385,-0.0003066041670702841,-0.0002724273877546559,-0.0002366434100665561,-0.000309694045325132,-0.0002931991883561877,-0.00029019831217968334,-0.0002477225062496271,-0.0003087734608191716,-0.00037579896190771244,-0.00029146248498443833,-0.00028139331044910876,-0.0002465314150279287,-0.00029363005504206077,-0.000324424788651106,-0.00026609238435869163,-0.0002307630906778626,-0.0002480643649371602,-0.0003217333076252057,-0.00035508439385158777,-0.00036831502517943636,-0.00024127582579297997,-0.00019470035232131317,-0.00021906629495376968,-0.0004397353678817244,-0.00047424127189662075,-0.0003975892649708486,-0.0004040278226461439,-0.0003194355841187599,-0.0003625120627461202,-0.00039202144662397076,-0.00027804995055678497,-0.00027858843481093023,-0.00040524025310345,-0.0003012011466741205,-0.0004080036849281992,-0.00038719371277727446,-0.00042291963494054747,-0.0004506095214534397,-0.00026947170542810034,-0.0003491542104225035,-0.0004172992097693265,-0.00034498361189751886,-0.00044052989590499916,-0.0003507088989493314,-0.0002987317162710026,-0.0003670105209907929,-0.00036179353833611143,-0.00025994831155301556,-0.00039230872463339096,-0.0002804756391599557,-0.0002590521958511598,-0.0002831397535478416,-0.00042472796892013847,-0.0004247997485084489,-0.00028845573358788923,-0.00026379856947713405,-0.0002860331219333366,-0.0003206487812073131,-0.00040487097099277104,-0.00030226226022388256,-0.00024906024954427864,-0.00028880765160907055,-0.0003188693237103676,-0.00029446118163997166,-0.0003370730729024495,-0.0002297628318222544,-0.00032719206811648654,-0.00031522706243433977,-0.0003355927900477348,-0.00029084785887375803,-0.00030044074315434407,-0.00034193263590017505,-0.00030464568959748955,-0.00029619426489994573,-0.00024332843658697326,-0.00023881852518578713,-0.00042647788025408087,-0.0003498475946275177,-0.00034076738452513587,-0.00031361006920280183,-0.00040550571066142984,-0.0003868939269992093,-0.0003523843663786509,-0.0002865339357713752,-0.0002823066703044025,-0.00031625829611255736,-0.00029138092773178543,-0.00030172931598884206,-0.000271159455164528,-0.00040236417352634786,-0.00040248731460124527,-0.0002527410653723821,-0.00028857846664520897,-0.00029456486530879254,-0.0003678667259858184,-0.0003450016470559721,-0.0003213777876211881,-0.000290542054069724,-0.0004102100321240718,-0.0004126623060519412,-0.0004014995938737519,-0.0002833008032100659,-0.0003382285793530189,-0.0003374842652056796,-0.0004371035684971508,-0.0003913723538476003,-0.0003745318440235963,-0.0002552370714880813,-0.00029110334342130726,-0.0002995915947411809,-0.0004442484828817073,-0.0004183819100214936,-0.00048784362649501863,-0.00029667473931645807,-0.0002923790037756986,-0.0002954151685553923,-0.00041021047821206136,-0.0004841597278643208,-0.00035981622133749277,-0.00028496596664727035,-0.00031941444303726444,-0.00034843822324245774,-0.00044919477941097633,-0.0004579877067912745,-0.00039759379157520503,-0.00046347535508312076,-0.0004608131098769352,-0.00039139430833940006,-0.0002807046397626373,-0.00030398024710429116,-0.000283675639525606,-0.0003162092192983609,-0.00045338721102075613,-0.00032703171447994383,-0.00033329185293462185,-0.00030071863838808453,-0.00033862822007741115,-0.0005498918557489403,-0.0003797198468132917,-0.0003133767886096375,-0.00028637567978413063,-0.00039583710688892193,-0.0005320076381293729,-0.0003976096303314519,-0.0004866818643260759,-0.0002980155005590934,-0.0003808352369757961,-0.00037107117728163463,-0.00022501861042861229,-0.00021658458881701983,-0.00022469590173621268,-0.0002426616266227031,-0.00022172246888184951,-0.0002244111082655128,-0.0016134603772652687,-0.0002705386223387401,-0.0003072542707087806,-0.00037021031092222205,-0.0003681795084396881,-0.0003357496394350373,-0.00027847721384094686,-0.00023344585262427255,-0.00023976737242455506,-0.00023941940032581156,-0.00025844797812518363,-0.0003077263330005654,-0.0002715803356168781,-0.000263759089794741,-0.00026277843664309323,-0.0002555471397684163,-0.0002875750109332407,-0.0002647715894660305,-0.0002541768746873576,-0.0002348358845133605,-0.00023383936694454442,-0.0002491261815922895,-0.0002810313231086772,-0.000273718885448329,-0.00024433659004466515,-0.00024274864091473476,-0.0002486284897871899,-0.0002641945834128934,-0.00026865144350719024,-0.0002599970341470829,-0.00022126793104715022,-0.00024916252938124943,-0.0002948824125367273,-0.00025078594866297376,-0.0002596969657398313,-0.00025646165251274656,-0.0002841655169486243,-0.0002437125579251338,-0.00023587526331576245,-0.0002480404575936318,-0.0002722657084465354,-0.000289889706111663,-0.0002581759483914995,-0.00023502509399186803,-0.00025976639168930955,-0.0002748452082970161,-0.0002932513952288373,-0.0002664592676961021,-0.00025580738996979543,-0.00026355527569386824,-0.00026915134741855456,-0.00028597275806521916,-0.0002686896167987016,-0.00025184862980979426,-0.0002409351648054273,-0.0002789837420576692,-0.000309476205474485,-0.0002911630139248627,-0.0002459993030707735,-0.0002486669887161896,-0.00023532327579076784,-0.000265857212746521,-0.0002757176318094345,-0.0002600335000008133,-0.00024729431689666506,-0.0002695451271820829,-0.00026332131541870576,-0.0002693938533683366,-0.0002560553695810582,-0.00024187397060278974,-0.0002530169992035257,-0.0002777423478724082,-0.00028879059905672114,-0.00024512252122775005,-0.00027617436513103393,-0.00025976700061309144,-0.0002652645896841655,-0.00024158727702263446,-0.0002566348788355598,-0.0002521256361012043,-0.0002727965889807357,-0.0002675472890550247,-0.0002514370223514758,-0.00024636855923981164,-0.0002470685985426712,-0.0002939444376065362,-0.00030243689069629347,-0.00027993391673553417,-0.00026393519154230537,-0.00027773746595227005,-0.0002750018586442595,-0.00025369554663913615,-0.00024592516776052046,-0.0002346282672510661,-0.00025707093185195907,-0.000271470273309189,-0.00029450026573714356,-0.0002375473444339639,-0.0002453901261584168,-0.0002403613706820588,-0.0002708099395593004,-0.0002429644910308801,-0.0002303710627544137,-0.00022790315730986924,-0.00023776411080358748,-0.0002606989380331091,-0.00026481291708647914,-0.00025749395140406173,-0.00024705494537853725,-0.00024072755789908868,-0.000266259921457465,-0.00027100665053910686,-0.0002745411328723114,-0.0002622384250480188,-0.00025426636952654343,-0.0002619907296704979,-0.0002583614692250543,-0.00024250469175916074,-0.00023013343184302557,-0.0002468476067353931,-0.0002601202392043768,-0.0002871348975278267,-0.00029617858566231625,-0.00026248207855934964,-0.00023359847721284672,-0.0002505540541791559,-0.0002515413797602876,-0.00028491833446827615,-0.0002790807974253854
3,22837.573778131653,22834.906430122322,21371.56658891062,21371.56658891062,21371.58980468307,21371.566592793504,21371.566592793504,21371.566592793508,21448.50488208093,21371.579452276925,21371.502063302774,21371.57943934671,21371.579439346588,21371.579439346824,21371.579439346468,21370.81597766411,21371.579314362112,23348.086757339323,21371.90916961212,21371.90916960882,21371.90916960868,24076.774051760734,21372.3602811634,20471.531541720586,21535.796402029955,21372.237361907097,22169.494724056636,21426.367593430343,21372.379212555825,21372.37921255583,21372.379212555843,21372.37921255583,21372.37921255583,21372.37921255583,21372.37921255583,21372.37921255583,21372.37921255583,21372.37921255583,21372.379212555832,21372.379212555832,21372.379212555832,21372.379212555832,21372.379212555832,21372.37921298065,21372.379212556054,21372.3792125559,21372.379212555916,21457.350518893738,21372.393322703087,21372.393322703087,21372.393322703116,21520.169407070473,21372.4178457838,23354.096791949047,21372.746591462015,21372.746591461673,21372.746591461666,21372.750377317516,21372.746597386657,21372.746592090236,21372.746592090687,29897.21783574494,21374.15886366954,21374.15886366821,21374.158863667977,21374.158863670047,25241.465253733528,21378.932329497664,21397.057995779283,21374.803407601124,26959.583410723193,21375.727275260862,21375.727275260862,21375.727275260862,21375.62867731842,21374.88073176572,21375.72711903914,21375.72711903914,21375.727119927265,21375.727122114647,27038.150284157833,22845.700555086023,21376.903055891667,21376.904859264,21376.904859264,21373.254115046442,21376.90425683137,21376.90425683149,21376.90425683096,21376.904256834147,24055.187905464052,24159.98816762754,21377.804581189594,21744.67360131703,21377.865040817163,21377.86504081741,21377.865046596482,21377.865040818117,21377.86504081812,21377.908755591638,21377.865048015152,21377.865048015152,21377.865048015214,21377.865048015166,21377.865048015894,21379.82438714288,21377.962807526616,21377.865386299745,21416.626521289654,21377.871758340716,21377.871758340683,21377.871758340683,21377.87175834219,21377.871759058573,27890.665394057803,21378.94135821564,21378.94135821528,21378.94135821528,29169.245473250758,21380.2199244577,21380.219924457695,21534.54978259221,26906.038688910787,27863.145092325412,23614.956315143812,21382.580608208194,21382.58060820604,21382.58060820604,21382.580608206037,21382.580608699882,24379.00878909515,21405.36109056882,21382.344818722628,21383.07495450934,21383.074954509408,21383.074954509455,21383.07495450936,21383.07495450934,25400.04268840034,21383.732073392686,21383.732073392686,21383.732073392686,21383.732073392686,21626.27438384372,21383.77171744474,21383.77171744474,21383.846176235933,21383.77172960922,21383.77173298635,21383.771729609773,21448.514203316685,21383.78229980956,21383.838673796083,21412.332538048304,21383.786967990407,21383.81206012675,21383.78697572733,21383.786972084337,21383.78697208478,21383.786972084337,21383.786972085014,21383.786972084432,21383.786972409245,21383.786972084392,21384.761169053992,21383.787130774257,25751.852498770262,21382.602086668812,21384.498117476276,21384.498117476276,21384.498117476287,21384.498117476283,27158.951761526132,21385.43751126903,21385.437511269036,21385.43751126903,21615.735249018562,21516.73280711955,21385.496287769936,21385.496287769933,21385.496287769936,21385.496287769936,21430.910341888106,21385.50366377352,21385.503663773525,21298.69703601759,27447.719657954967,21386.47354031409,21386.47354031409,21386.47354031409,21455.143980974022,21386.484679071702,21386.484679598576,21856.242192264694,21386.56083949881,21386.560841626608,21386.560839499045,21386.62748622538,21386.560850297286,21388.144467559276,21386.56110679506,21386.56110679506,21386.565157864425,21386.561114851473,21386.56110745209,22997.79893739389,21386.821825549003,21386.834271110656,22209.617773884296,24832.789129672485,21387.512119159783,21387.512119161933,21388.400175035185,21387.512262695564,24430.022002305395,21388.003862265723,21388.003862266938,21388.00386228177,21388.003862266054,22453.83591838523,21388.17593718597,21388.17593718597,21388.315710938863,23307.007456800075,21507.952666995425,21388.504820557995,21388.504820558002,21388.504820558057,21388.50482055799,21388.504820557995,19111.032913289633,21388.137782378028,21388.137782377933,21388.137793292823,21388.137782379697,21388.13778237969,21388.137782379727,21388.719914859106,21540.044549325015,21388.162325906047,21388.162325901245,21369.712175819386,27676.36793380944,21389.170811578875,21389.072356853776,22080.664100459053,21389.281968304622,21389.281968304622,21389.33972485102,21387.988021587164,25980.970357756025,21390.01939034467,21390.019390344787,21390.01939034474,21390.01939034468,21397.23128938001,21390.020547952863,21390.020547957698,21590.875873061774,21390.05277245553,27953.609718472766,21391.105468039004,21391.105468036287,21391.105468036287,21391.105468036298,21391.105468036283,21391.105468036283,21391.105468036316,21391.10546803667,21391.105468036283,27707.297060691602,21392.11686781107,21392.116870271242,26180.49179762999,21392.88325304475,21392.88325304414,21392.88333718955,21392.88439438261,21392.88530147682,21392.88325356694,21392.883253567892,21392.883253566943,21392.883253566943,26720.41536753349,21419.357589390373,21393.738663377935,26466.795816715472,21394.548925891293,21394.548925891388,21394.548925891293,25993.791158960536,21395.28304276808,21395.283042769326,21395.283042768082,21395.283042768082,21395.287217437795,21395.283043433898,21395.283043433898,21536.08212529664,21395.305488688457,21395.30548868846,21395.305488688457,21459.446000030403,21395.315707027046,21395.315709109473,21395.333219964166,21420.424698463674,21395.319707429768,21395.342814715656,21395.319711103977,21395.319711104003,21450.614791179007,21577.272339068197,21395.357447338625,22958.79830843424,21395.606046616904,21395.60604661694,21395.60604661693,21395.606046617995,21395.606046616904,21395.606046616904,21395.606046616904,21395.606046618264,21395.62846344464,21395.60605017626,21395.60605017661,21395.606050176255,21395.606050176262,21395.606050899936,25536.263154215467,22220.46737989421,33893.70591790426,21398.375415590534,27451.459760239257,21399.335004104232,21399.335005052955,21399.335004104567,21399.335004104378,21399.335004104378,21399.335004104374,21399.335004104785,21399.335004104367,21399.335004104367,21399.335004104363,21399.33500410616,21399.33500410436,21399.335004768116,21399.335004104465,21399.33500410446,21399.335004104465,21399.335004104458,21399.3350041065,24825.958163492436,21399.876591453816,21399.876591453816,21399.876591453816,21399.876591453823,21399.876591453813,21399.876591454373,21971.650330696943,21399.966862015735,21399.96686423878,21399.966862016085,22886.75680544173,21400.201445471983,21733.99407074651,21400.25409415148,21400.254094151038,25524.81372139118,21400.904347915384,21400.904347915384,21400.85243549906,21400.90433973505,21400.90433973505,21400.904356136267,21400.90433973763,21400.904339738267,21400.90433973763,21400.904339737626,21400.904339737626,21398.98374581055,21400.904037519857,21400.904037519853,21400.904037519853,21400.90403751985,21400.904037519846,21400.90412252239,21400.90403933481,21400.90403753349,21400.9040375335,21400.90403753349,21400.904038085122,21400.90403810618,21400.90403753368,21400.96646796223,21400.904047335905,21400.904047336393,21400.904047335953,21400.904047335902,21400.927291515796,21400.904050988014,21651.5917056656,21400.943368368866,21738.094472024684,21400.996229940465,30231.91922224548,21402.46114412087,21402.380399805137,21402.380399805137,21402.497279731007,24110.197395461815,21402.804508494715,22722.923764030173,27473.936388973132,21403.961560941276,21403.961560941287,21403.96156154465,21403.961560941385,21406.45425081979,21403.96195085069,21403.961950851033,21403.961950850633,21408.736545642074,21403.96269723092,21403.96269723092,23574.283517849606,21404.301809859142,21404.30180986106,21404.301809859237,21404.301809859135,21404.301809859728,21404.2923157774,21404.301808377088,22419.735127196,21404.46027175392,21404.460271753924,21404.4627718531,21404.460272144337,21404.46027214389,21404.460272143886,21404.460272143882,21404.460272143882,21404.460272143933,21404.460272144934,21404.46027214388,21404.460272143948,21404.460272143886,21404.460272143875,21404.46027214387,21404.480764021675,21404.462421227432,21405.51347989863,21404.460439565082,21404.460439565257,21404.460439565082,21404.46043956553,21404.460439565082,21404.460439565082,21404.460439565082,21446.279118589788,21404.466939204445,21404.66604309179,21404.466980790894,22127.968299166725,21404.579349969412,21527.264563672383,21531.68252210596,21404.61813096395,21404.61813096395,21404.618130964227,21404.618130964256,21404.618130963943,21404.618130963947,22012.47675120231,21404.71631239624,21404.712402448153,21832.459040490514,21404.77870947622,21404.778709773822,21419.256203721234,21404.780952657893,21404.780952657893,25809.59309934018,21405.463128923486,21405.463128923446,21405.463128923446,21405.463128923446,23721.447741830445,21405.821555044335,38447.00028850849,21408.50367540533,21408.45785757757,21523.151205655024,24008.847689417566,21408.877629249873,21408.877638960872,21408.87762925146,21408.877629251325,21408.877629251325,21408.877629251332,21408.87763460958,21408.87762925215,21408.87762925215,21408.877629256127,21408.87762925217,21660.739726948035,21408.916496859823,25072.819693879483,21409.48174181081,21409.481739562678,21409.481739562583,21409.48173956258,21409.48173956259,21538.12249294461,22030.009834150598,21409.597191689125,21409.59742655994,21409.597191725123,21409.59719172543,28110.098913271777,21837.25371689453,22222.64848305911,21410.819668564138,21410.819668562875,21410.819668562875,26075.8235932094,24294.302888651968,21411.980795642514,26592.66814841134,21412.777456776264,21412.777456777498,21412.777456776268,21412.777456776268,21412.83318882083,21412.777467842763,21412.77746534028,21412.77746534028,21412.777467053344,21412.777465341886,21429.47366213429,21412.780028465626,21412.780028465662,21411.393952120008,21412.779815779493,21412.844807927864,21412.77982574905,21412.77982574902,21412.77982618914,21412.779825749087,21412.779825749087,25767.52010280058,21413.447218894995,21413.447218894995,21413.447218894995,21413.447218894995,21413.447218894995,21413.447218894995,21413.447218894995,22937.57847034275,21413.680516193548,21413.680516193548,21413.680516193544,21413.680516196007,21413.680516199274,21413.680516193544,21413.73383617485,21413.680524346448,22070.858755721474,21413.780979594285,21413.78097959429,21413.780979595,21413.78097959429,28362.74856885101,22511.295360994376,21415.009825344237,21415.009825902656,21415.00982534433,21415.009825682966,22529.119159447804,21415.17992627998,21415.179840516037,21415.179840516033,21415.179857667412,21415.17984051865,31115.776468079966,21416.65881545831,21416.65881545805,21416.65881545805,21416.70028862999,21416.658821777284,21416.658821777284,21410.35691135228,21416.657861998057,21416.65786199806,22870.61797295347,21416.879198595925,21417.89033999652,21416.87935247586,21416.879352475244,21416.960981499826,21416.879364892193,21416.87936489219,21507.76294403916,21923.84943703044,24735.878634456218,21417.47498660397,21417.47472181624,21417.474721813553,21417.474721813553,21417.474721813727,21417.474721813564,21417.474721813946,21417.474721813556,21417.474721813593,19016.517314647226,21380.24365488962,21417.10473873706,21417.104738737064,21417.104738737064,21417.104738737264,21417.105939837238,21417.104738919188,23389.375882530036,24370.096386991452,21417.91255218076,21417.851226357692,21417.85122635743,21417.86521355997,21417.85122847609,21417.85122847606,21417.85122847615,21417.85122847606,21417.85122847606,21454.87369245567,21579.7098363428,21417.88132093662,21417.881320940098,21417.881320936624,24144.89711286404,21418.29369290597,21419.292547944417,21418.53610886533,21436.076412652154,21418.29656791721,21418.296568817597,21418.44717096233,22590.409270477772,21418.473620221466,25830.122178677695,21419.13973052775,21604.458214040224,21419.167703129846,21419.24849298553,21731.893449351923,21419.214897838756,21419.214897838756,21419.2148990773,21453.593690795493,21419.220081613512,21649.946881708547,21419.254861052803,21419.25486105278,21419.2548610562,21419.25486105278,21419.254861052792,21419.25486105278,21419.25486105279,21419.254861052785,21419.315495348663,21419.254870180335,21419.25487018033,21419.254898652573,21419.382302187267,21419.254889355983,25871.871451532315,21419.92455645812,21419.92455645812,21419.924556460723,21419.924556459617,21419.924556458125,21419.924556458474,21419.924556458125,21419.92455645813,21419.924559700306,21419.98445731835,21419.9702368768,21419.92457231166,21419.924572311676,21419.924572311662,21419.924572311662,21859.797196968906,29056.528189879155,21421.13617133635,21421.13622055649,21421.13616491657,21437.102197987162,21717.76970554233,21712.410923342202,21441.615436984182,21421.229771816914,21452.609765206016,21421.234430207493,21421.391322757394,21421.23445370411,21421.234453704423,21421.23445370411,21421.23445370411,22054.025256159774,21421.32915451262,21421.32915451262,21421.441221013843,21421.3291712765,21421.3291712765,21421.324800588314,26133.20061351311,21422.033591529387,21422.03359152938,21422.03359152938,21422.033591529384,21422.033591529384,22929.26613482026,21422.258719616533,21422.258719616515,21422.25872059919,21422.317098964482,21422.258728331326,21422.259047077903,21424.616118053964,27596.925451665553,21423.180259650377,21423.18025982368,21423.180277367235,21423.180259653047,21423.180259653735,21423.180259653043,21423.180259653513,21423.180259653043,21423.18025965304,21423.18025965304,21423.18025965304,21423.290805909142,21423.1802761164,21410.670957980015,21423.178413778547,21423.178413778547,21423.178413778573,21423.178413778547,21423.178413778547,21423.178413778547,28925.679631210754,21424.29708506233,21424.29419368775,21424.29419368766,21424.294193687656,26181.476148478643,21425.00302531891,21425.00116111731,21425.00116111506,21425.00116111506,21425.00116111509,24908.690792728652,21425.518412730748,26253.464809875826,21426.235044228022,21426.2350442301,21426.235044228026,21426.235044228026,21426.23504422803,21426.379625658505,21426.235065669734,22673.39473520643,26988.07970002994,22760.35255194594,21427.441990494284,21491.56731624563,21427.451491950007,21427.16924041951,21768.00313924701,21427.501887298957,21427.50188729903,21423.95912372026,22431.282653383732,21427.649939105082,21427.649939105086,21427.649939105235,21427.64993910509,21427.6499391051,21427.64993910521,21427.649940693973,5943.3863067285065,30635.742798548097,5320.572661075712,17264.49102058539,18608.296676151764,9030.3524323504,-234651.43791585884,53400.17125743995,36358.70310964677,303083.93697363674,46642.06648346706,228313.48213172864,31380.471790934083,25164.547587926678,55187.10864067798,71993.94229048851,53985.797159820155,301997.78803276963,96825.784704826,35458.70416254224,36345.8434079325,284033.94771866035,45139.1409556042,34092.194049729704,248734.83423692881,43475.80446358582,30544.882235680292,37541.17729208239,58626.64530161747,94248.64782849234,44009.392027396585,27017.73783786322,55041.989626914874,33541.86078180719,284484.24478610035,33202.535649180776,75550.49258357758,34512.127743199824,40928.212848367904,24723.8258545606,28921.551930599522,27987.229895484255,330394.01570528274,18699.036876690516,63793.68539823132,35240.02371426118,33178.86484392444,32438.636825027315,28939.986949412483,27794.62574665791,356293.24997322937,341807.2769088343,199276.9886947214,43236.09513441579,27908.282255586917,27660.083463817595,29178.181742255365,25805.687902299953,79748.3945085243,33301.764027620884,17696.99846727252,51953.51378317666,47184.85858618192,57559.085012720636,212350.9454623778,41130.06650554457,36483.26622779836,27864.33876891699,35121.76867295829,33526.686643831505,28816.124544228365,73618.28352153965,43361.95666599001,180943.2883697894,32183.43909903369,50531.126272811816,40534.39608159468,27935.379859745673,30454.204181603734,29034.736389445512,57230.26682176518,48078.4899682539,308247.86951539095,26396.519309743566,27291.80355334178,357388.5950636255,340262.97360954125,32966.55348488691,34753.1393032277,30332.56662912586,21232.22576731577,62222.55693612881,43899.92891728385,19953.321973954728,26478.25762781201,37260.0451822264,200672.07231757932,53242.68076667174,27402.85227546038,31437.805501541447,23203.795553435033,82048.70711219075,257865.54537547595,31418.784556015926,28673.471126261335,20663.684897871528,170425.13182604226,33652.35108691765,41602.15806653463,48521.82649234665,23342.770682883427,28479.128229395115,18918.894896972033,41468.03310174912,25420.02074316274,176537.92106087774,208734.54130668042,98983.81597270285,184864.50758059404,42335.15611698017,25411.643346238397,38139.902486902894,40398.633366467504,26395.403600560214,50681.60384637619,53640.99794768993,27189.43748650387,26350.967766101396,37800.09590996103,302073.3903920074,67126.1205232992,28882.524845023698,52782.069554875015,339318.2441990228,31786.178626796147
