,0,1,2,3,4,5,6,7,8,9,10,11,12,13,14,15,16,17,18,19,20,21,22,23,24,25,26,27,28,29,30,31,32,33,34,35,36,37,38,39,40,41,42,43,44,45,46,47,48,49,50,51,52,53,54,55,56,57,58,59,60,61,62,63,64,65,66,67,68,69,70,71,72,73,74,75,76,77,78,79,80,81,82,83,84,85,86,87,88,89,90,91,92,93,94,95,96,97,98,99,100,101,102,103,104,105,106,107,108,109,110,111,112,113,114,115,116,117,118,119,120,121,122,123,124,125,126,127,128,129,130,131,132,133,134,135,136,137,138,139,140,141,142,143,144,145,146,147,148,149,150,151,152,153,154,155,156,157,158,159,160,161,162,163,164,165,166,167,168,169,170,171,172,173,174,175,176,177,178,179,180,181,182,183,184,185,186,187,188,189,190,191,192,193,194,195,196,197,198,199,200,201,202,203,204,205,206,207,208,209,210,211,212,213,214,215,216,217,218,219,220,221,222,223,224,225,226,227,228,229,230,231,232,233,234,235,236,237,238,239,240,241,242,243,244,245,246,247,248,249,250,251,252,253,254,255,256,257,258,259,260,261,262,263,264,265,266,267,268,269,270,271,272,273,274,275,276,277,278,279,280,281,282,283,284,285,286,287,288,289,290,291,292,293,294,295,296,297,298,299,300,301,302,303,304,305,306,307,308,309,310,311,312,313,314,315,316,317,318,319,320,321,322,323,324,325,326,327,328,329,330,331,332,333,334,335,336,337,338,339,340,341,342,343,344,345,346,347,348,349,350,351,352,353,354,355,356,357,358,359,360,361,362,363,364,365,366,367,368,369,370,371,372,373,374,375,376,377,378,379,380,381,382,383,384,385,386,387,388,389,390,391,392,393,394,395,396,397,398,399,400,401,402,403,404,405,406,407,408,409,410,411,412,413,414,415,416,417,418,419,420,421,422,423,424,425,426,427,428,429,430,431,432,433,434,435,436,437,438,439,440,441,442,443,444,445,446,447,448,449,450,451,452,453,454,455,456,457,458,459,460,461,462,463,464,465,466,467,468,469,470,471,472,473,474,475,476,477,478,479,480,481,482,483,484,485,486,487,488,489,490,491,492,493,494,495,496,497,498,499,500,501,502,503,504,505,506,507,508,509,510,511,512,513,514,515,516,517,518,519,520,521,522,523,524,525,526,527,528,529,530,531,532,533,534,535,536,537,538,539,540,541,542,543,544,545,546,547,548,549,550,551,552,553,554,555,556,557,558,559,560,561,562,563,564,565,566,567,568,569,570,571,572,573,574,575,576,577,578,579,580,581,582,583,584,585,586,587,588,589,590,591,592,593,594,595,596,597,598,599,600,601,602,603,604,605,606,607,608,609,610,611,612,613,614,615,616,617,618,619,620,621,622,623,624,625,626,627,628,629,630,631,632,633,634,635,636,637,638,639,640,641,642,643,644,645,646,647,648,649,650,651,652,653,654,655,656,657,658,659,660,661,662,663,664,665,666,667,668,669,670,671,672,673,674,675,676,677,678,679,680,681,682,683,684,685,686,687,688,689,690,691,692,693,694,695,696,697,698,699,700,701,702,703,704,705,706,707,708,709,710,711,712,713,714,715,716,717,718,719,720,721,722,723,724,725,726,727,728,729,730,731,732,733,734,735,736,737,738,739,740,741,742,743,744,745,746,747,748,749,750,751,752,753,754,755,756,757,758,759,760,761,762,763,764,765,766,767,768,769,770,771,772,773,774,775,776,777,778,779,780,781,782,783,784,785,786,787,788,789,790,791,792,793,794,795,796,797,798,799,800,801,802,803,804,805,806,807,808,809,810,811,812,813,814,815,816,817,818,819,820,821,822,823,824,825,826,827,828,829,830,831,832,833,834,835,836,837,838,839,840,841,842,843,844,845,846,847,848,849,850,851,852,853,854,855,856,857,858,859,860,861,862,863,864,865,866,867,868,869,870,871,872,873,874,875,876,877,878,879,880,881,882,883,884,885,886,887,888,889,890,891,892,893,894,895,896,897,898,899,900,901,902,903,904,905,906,907,908,909,910,911,912,913,914,915,916,917,918,919,920,921,922,923,924,925,926,927,928,929,930,931,932,933,934,935,936,937,938,939,940,941,942,943,944,945,946,947,948,949,950,951,952,953,954,955,956,957,958,959,960,961,962,963,964,965,966,967,968,969,970,971,972,973,974,975,976,977,978,979,980,981,982,983,984,985,986,987,988,989,990,991,992,993,994,995,996,997,998,999,1000,1001,1002,1003,1004,1005,1006,1007,1008,1009,1010,1011,1012,1013,1014,1015,1016,1017,1018,1019,1020,1021,1022,1023,1024,1025,1026,1027,1028,1029,1030,1031,1032,1033
0,4594.887120636477,-1579.3769324990028,-2878.7954232828833,-2758.5425945880465,8533.407356217102,-2660.9110928376035,-2391.2608336154317,-2913.0598467281325,-2657.5840904238667,-2529.791461695204,-1858.4685418414542,-2999.003886952107,-2201.3795382933845,-2224.0071216541223,-2306.3110121781747,-2821.918494682266,-3035.4994487741706,-2892.534247243277,-1894.5963459270715,-2231.975826119336,-3022.5613181544654,-2541.5839842815412,-2716.4030409816314,-2543.8450160522666,-2711.8243775926117,-2935.3585695355796,-2939.598490780683,-2202.938017858903,-2759.3929323490456,-2734.8910780456454,-2988.6823336319794,-1991.8274560099646,-2124.575237243528,-2501.947816372826,-2800.1869911968593,-2205.144408378707,-3030.916954156195,-2172.166862172848,-2947.2339451610846,-2229.7759733115363,-2006.8712231626535,-1918.2053781823317,-2185.5802765647422,-2198.7354911979323,-2473.348605652208,-2736.0939450052615,-2927.289743982625,-2216.709345655104,-2191.1809268400443,-2872.9758955931497,-2431.8315970686153,-2283.038101620747,-3016.9845458383393,-2112.5686225193454,-2434.296921017924,-2882.6447191769457,-2243.794685372041,-2655.942679142613,-1794.4743346435685,-2495.293603206045,-2814.08473886561,-2685.0393737754484,-2668.1028240804867,-2607.1090389999545,-2079.1691762870173,-2705.407501362161,-2782.79504316639,-2752.57900387038,-2347.953585673941,-2650.746441280754,-2853.6112018932754,-2804.883953176195,-2113.086495860349,-2714.947861516539,-2627.229567422048,-2463.85773594624,-2128.643294561997,-2789.3187391774977,-1809.5013982227317,-2531.1347711528065,-2775.676759015982,-2073.2298054644275,-2904.1668405721316,-2714.2776724730456,-2581.3851409096924,-2115.2760229119053,-2903.8341405673896,-2787.1041236283113,-2069.0401957966114,-2479.138714254281,-2931.1396060650104,-2884.7784768454812,-2192.217149233341,-2514.13666522841,-2701.182520577603,-2315.8793554873837,-2600.2243833867897,-2844.2733222903344,-2797.092509222145,-2843.2981859331444,-2663.3247395468493,-2337.3822999512267,-2363.5108190611245,-2768.173290618098,-2800.518400473165,-2635.592288616008,-2393.5925724503354,-2371.348478715075,-2852.02395021587,-2628.96899506599,-2884.5115139609384,-2698.1732426015274,-2502.9003870442357,-2685.9413670278946,-2783.7250888995723,-2037.2696309889698,-2016.1381754526064,-2410.0713540746847,-2605.6159611701414,-1793.6186634582898,-1949.6484325090635,-2782.619802459285,-2485.1337455164908,-2596.8297976701942,-1915.5352171854126,-2498.968667059475,-1993.0577963240378,-2520.3715638672647,-1925.0693235691504,-2028.3594539578935,-1980.5897165991216,-1986.3770024088362,-2406.6999870769787,-2381.658594673141,-1802.925054073544,-2744.492024645645,-2598.5459573625753,-2276.501275126671,-2349.9189869935362,-2526.423635617521,-2120.5340197840956,-2659.9156897657444,-2391.295942145313,-2007.5628417720905,-2326.319998295617,-2477.188487560894,-2439.3163169667255,-2133.6219258945157,-2750.3626092468267,-2688.965259940374,-2633.071948690802,-2493.9593431502017,-2102.245709248335,-2475.812730220117,-2429.59455048453,-2024.291274411379,-2556.2720841947153,-2719.1916774837096,-2446.456682882141,-1843.8374876036296,-2414.7258634827253,-2560.484502814669,-1863.523399706763,-2630.4138184952963,-2388.5913155574535,-2341.534848655897,-2033.444731820145,-1853.2673650064671,-2337.627976660943,-2501.1259290299713,-1921.4323201034188,-1960.6942282725056,-1976.5127082697497,-2045.939381300227,-2488.2589647637733,-2335.0275970705247,-2288.940256656556,-2219.1044851785496,-2445.9966693675474,-2570.163373963251,-1934.2527393089545,-1940.2437480236317,-2405.709314462026,-2699.3496191517247,-2747.7601953604385,-1787.887226036083,-2145.0238929948837,-2417.93870303107,-1816.9100900314468,-2001.7216619919604,-2568.821328161726,-2015.5336729638257,-2326.813894333333,-2175.970914682043,-2647.0337433027003,-2439.704222796142,-2403.2890142236993,-2214.1757265569577,-2418.7779752690094,-2498.7568671181766,-2346.2990701830313,-2126.322239466516,-2515.6930641014274,-2339.289342931513,-2307.196918650358,-2494.892979855403,-2346.487438794477,-2147.307539664148,-2757.5738046554184,-2633.936736781407,-2705.0509150801195,-2516.8052656115856,-2432.912636497082,-2509.4671446038806,-2086.3996533166696,-2622.2945000525287,-2352.9580203667906,-2413.5052461141554,-2439.631991761458,-2687.424249439136,-2632.6403642933087,-2639.355061464727,-2743.178045494432,-2615.97086816328,-2586.846446588203,-2801.3202520638147,-2672.5404260913688,-2544.4840759201466,-2669.0636863739014,-2739.4259356175517,-1825.725593114246,-2341.142000641732,-2576.7750955161705,-2069.948790920654,-2330.652520313802,-1882.648054836085,-2400.7245636933962,-1974.3254383744406,-2278.1971388118413,-1935.9954401750572,-2318.2027994481305,-1946.6781686144698,-1857.6478793092656,-2037.7239362905639,-2026.3209637177338,-2427.334442069858,-2505.1566371798217,-2286.777400456506,-2085.088241823479,-2019.7840900648205,-1979.7140896278322,-2004.7352967442766,-2104.5661597422722,-2299.14363400948,-2372.915506258972,-1991.6758094567167,-1890.1629234194731,-2290.331895722321,-1959.0987300327831,-2523.8543676756576,-2584.1659428510384,-2203.748643719138,-1876.6131699522364,-2700.5049501682174,-2623.982846766392,-2734.4775092169584,-1953.0980584490478,-2576.8953699800413,-2589.5427950046505,-2285.3599373470793,-2653.065027481281,-1897.8483339730549,-2374.029709197138,-2603.148872556316,-2428.8464043355048,-2289.4392040187377,-2657.355640564825,-1932.063442985256,-2257.661597851443,-2581.889929655936,-2521.443672756606,-2171.026032719684,-2510.9525635317236,-2529.8076344336523,-2556.082295656741,-2389.202135515111,-2198.440320715444,-2525.2981072236453,-2331.225062816148,-2159.363588710922,-2490.794976191967,-2499.231372927869,-2400.4888178529495,-2372.104968992333,-2597.0174190896,-2443.7459613799956,-2437.457592522845,-1756.6778056452374,-2482.198964253071,-2368.446193000528,-2218.208393038583,-2327.2845343137014,-2355.149670677444,-2629.5769811309465,-2608.471034290944,-2363.6914337104536,-1826.1205006356563,-1714.681620893258,-1851.4078073537194,-2477.103761839671,-2590.7884192258975,-2571.5368807272744,-2509.607223528729,-2648.698725923993,-2314.8608729943294,-2592.3862724815476,-1811.041731070698,-1739.5133242955897,-2271.2662164643225,-1853.8644506591077,-1804.4950103859994,-2613.118376087131,-2111.0332696010387,-1811.787390993018,-1785.8555886870618,-2376.8038805499914,-1817.8565777918031,-1726.7174598972313,-2353.833752661933,-1813.2897821406673,-1738.6089929522238,-1705.714738581175,-1615.653772199749,-1627.6424908825459,-1731.3800433259407,-1724.5022890199273,-1768.3235044602643,-1684.8116848095674,-1641.3614971911952,-1806.2333402478373,-1856.9408401202304,-1780.6075953428337,-1785.246793230197,-2280.435439592021,-1775.108783921783,-1723.414447592516,-1985.3055355028232,-2047.0597440199717,-2062.064709953185,-1789.3557010813822,-1616.878358323193,-1796.6301586159204,-1734.4632508094999,-1822.3984995367503,-1817.147410926082,-2137.735796973523,-1707.4260058461616,-1600.0809837756542,-1719.9096620800126,-1674.3140425769907,-1763.1690230964784,-2422.273293522618,-1732.0745421066492,-1658.5263235349998,-1685.1084453814922,-2401.0353527245275,-1621.7037147757112,-1746.7842084933477,-1751.791547051798,-2324.8638684092575,-1632.3853205068876,-1740.4231434959997,-1749.1489784830587,-2293.2056144470707,-1753.1150809387545,-1747.8847728072112,-1718.1947216324797,-2012.960871241932,-2035.11687068755,-1785.0771285474293,-1706.267265085028,-1743.372316900185,-2552.2711445252485,-2088.836812219209,-1820.7747184144887,-1695.1319684989173,-1782.2691869173998,-1612.8863276454995,-1578.3202677734064,-1688.0735935034652,-2019.6228831145543,-1653.5260173252525,-1607.6791175111573,-2029.1848582939213,-1658.2942545258772,-1664.6378163428062,-1751.9885965051428,-1579.449231090483,-1713.6235127093053,-1777.2217846929057,-1825.5184885772453,-1757.1795781285591,-1619.755961413191,-1672.1700465452232,-1585.3191952037637,-1635.8597719651289,-1781.2069482874592,-1696.3141160978892,-1731.208540196777,-1763.8865620881568,-2125.4159019146814,-1731.0180068942157,-1732.6152762686454,-1685.0763410411487,-2082.7624101256197,-1553.1682066414216,-1957.702528961179,-1833.6396824675546,-1760.6694579011046,-1687.9284088488598,-1844.7742153532095,-2093.14631873187,-1612.1027624504707,-1736.6784567266088,-1698.527402773529,-1853.259996727901,-2076.1230928983546,-1733.1541496169255,-1704.7654207987057,-1666.1068776188697,-1698.443611179587,-1701.4499554867239,-1868.6821646601147,-1675.582182083164,-1591.9412117897887,-1686.85605838474,-1959.5375849287059,-1929.4935376913359,-2025.958340825629,-2104.4002305600147,-1751.8978032760758,-1666.1339728556345,-1954.2731963023725,-1706.4749337521753,-1715.008898989751,-2032.6113369537954,-1594.4862445454612,-1980.30614696244,-1899.003493404233,-1659.1761124266714,-1843.6431847520641,-1652.403449488215,-1680.35524801639,-1862.0299011548982,-1663.2263032168178,-2003.601885659719,-1613.6001693056767,-1679.1768425089406,-1960.756449722521,-1691.2349493506965,-1580.1493148032944,-1825.1311537217596,-1969.5816009659206,-1815.7889196181031,-1950.3029653138042,-1615.357799172196,-1843.75466935706,-1932.3399622212842,-1549.7745898864491,-1808.5064133102296,-1946.013878420481,-1993.7494781589876,-1773.390756328056,-2084.7770950505997,-1795.7864718451651,-1839.3243020251869,-1830.6868782802603,-1912.7533850511663,-2413.123632781565,-2006.2409571942487,-2120.7096150171747,-2113.219130946997,-1708.06820488597,-1677.494530322926,-2054.9472684796306,-1862.8812453627756,-1593.45393594935,-1902.6037340138546,-1689.3252886019764,-1690.3727557204718,-1724.6663351030793,-1672.7535428401698,-2186.2690157400198,-1675.002216003917,-1657.7225981114045,-1663.1786923590826,-1879.383902705944,-1695.391917419144,-1781.444078370712,-1805.39004089018,-1867.6118456790978,-1707.685073825705,-1975.8053525084435,-1594.0143864210493,-1879.4955018738244,-1819.8835531789975,-1910.3550976698116,-2036.0814545135772,-1727.0920102585173,-2303.111724236726,-2092.0716209809193,-1859.1685431323626,-1862.4368577975501,-1762.279947903731,-1590.0488181980127,-1865.1525253433692,-1917.5889455912284,-1679.7139591135024,-1675.8438935648196,-1588.1818402294136,-2341.844750252285,-1693.4763455778073,-2010.8514101521741,-1741.420301172122,-1754.9751553784538,-1907.7759951776877,-1805.7048782743645,-1720.0764493821282,-2392.1068213536787,-1798.9327203805972,-1839.9808191841478,-1655.1890860373135,-1753.0770295887285,-2049.7431774402444,-1648.0749860267354,-1667.4555859669172,-1883.1359696462948,-1726.7624445158926,-2007.1463375216076,-1732.3307548493724,-1684.156951390054,-1865.9121816294166,-1678.7173598100806,-1832.6839789432468,-2128.8260167218746,-1969.24366877969,-1826.0581216802598,-1778.7652265688391,-1722.1187868671611,-1715.5291510428012,-1959.452048103249,-1686.7758382355703,-1871.4416256824275,-1729.855852328241,-1733.018892414091,-1704.0664190266764,-1653.7297375755252,-1712.865759795706,-1722.6893967639126,-1792.8019462518926,-1753.254799433945,-2411.5949669218785,-1657.4279737456325,-1719.5523490370065,-1664.5273793215968,-1726.1455766348809,-1772.5965165978494,-1930.0579887527647,-1708.7738121711818,-1821.7415186656056,-1603.625412514377,-1715.2710999368949,-2184.782299495755,-1743.564186078622,-1841.8781594376326,-1763.1201815462819,-1795.233331619014,-1784.2388806507277,-1846.7420189490704,-1644.9130467882378,-1858.2682924161559,-1616.327240995638,-1722.8110339281668,-1752.9759403786597,-1660.8457246104977,-1704.3711230135527,-1637.8315496092966,-1854.0368197277064,-1907.5737333493678,-1687.4042331573683,-1627.1015796365468,-1876.7716512899663,-1592.9618864903152,-1665.0013243947756,-2347.6330279064464,-1912.8298918557923,-1712.565353605076,-1528.0227709031833,-1533.4542299183174,-1665.541199800676,-1897.4666099338533,-1614.5777923776127,-1765.5427520715973,-1841.2576143248261,-1538.6284473285386,-1665.05557296413,-1638.57604450328,-1871.44406901932,-1653.349487667741,-1700.9770295404212,-1537.8508012158677,-1792.0341104050221,-1859.9666703373575,-1664.3417205540743,-1514.2390759041207,-1692.6907323409318,-1759.079483204802,-1885.5346145352082,-1602.6206144406742,-1568.120815422613,-1608.461930597223,-1822.0907516317684,-1771.7685887874698,-1652.9279124015393,-1668.5738812073143,-1892.007673992968,-1585.0240654437089,-1754.3454048996678,-1673.9947702265024,-1768.7973193887105,-1638.5139655964251,-1666.5422084400404,-1711.394448425135,-1759.3977169343839,-1511.4413449212195,-1772.7043465868026,-1668.6989866008425,-1641.2139589380924,-1715.6212374889371,-1659.1708840123263,-1490.4232042024546,-1895.6129367709923,-1546.9766441537624,-1619.0107077150635,-1646.9625792801721,-1684.969284096597,-1670.9866634331029,-1655.7410734859793,-1603.089407104108,-1686.6277727090196,-1749.7511465745486,-1678.696367650521,-1928.129476889078,-1633.2160104607306,-1710.5383295240392,-1617.1437863980955,-1614.14234449771,-1775.7408847864601,-1616.150156009685,-1578.2214938441675,-1590.5752283061263,-1520.0472524197567,-1719.4817020502608,-1488.2144757066558,-1622.0144428477183,-1725.9660503537757,-1782.773477042769,-1876.7149011842343,-1576.085442656188,-1656.9507920192098,-1624.3235256784285,-1644.222607073915,-1619.0190711948203,-1542.207881905184,-1621.073735086539,-1639.8785512060829,-1700.814181411544,-1713.5426555218023,-1793.7311660977532,-1655.431828605564,-1572.6100983436772,-1780.801325344395,-1664.8342985220004,-1787.604825150479,-1798.0237194679073,-1620.9158662255159,-1853.2278898386135,-1533.3044842824097,-1493.4522371425976,-1684.9755421690747,-1782.2762356634832,-1615.1467555269157,-1487.08489700798,-1578.6518173485042,-1576.9414027003224,-1566.2553214149978,-1601.7952534795304,-1573.728861042978,-1612.703481984252,-1549.834894595377,-1652.0383896665737,-1615.3869062577314,-1618.952010585259,-1631.4218676624735,-1592.6274406423809,-1695.9653531888305,-1573.7041585815152,-1624.1330552563118,-1616.073567058426,-1554.8475410886515,-1615.3937993672832,-1637.2046920407693,-1727.4043142354867,-1715.146839362411,-1663.3417482313052,-1663.3337635819942,-1789.4408594955935,-1677.4329894349594,-1557.694767366697,-1562.1906543263055,-1675.4801861874178,-1500.8667618182103,-1697.6406497015478,-1511.3185874472065,-1601.7034364058404,-1560.4815748992478,-1553.7290628366907,-1687.4789380799723,-1568.2865081038283,-1519.6502055617855,-1563.3391950527957,-1562.6900023610679,-1760.9035940399979,-1744.989271815285,-1547.479328322496,-1677.3910360248271,-1662.8789477064327,-1638.066114469522,-1668.423619753776,-1555.079396929052,-1603.3160825462733,-1544.4437871760347,-1545.7249542199252,-1711.0870446215072,-1600.1263487964882,-1762.8255470019885,-1570.4457643082783,-1539.2894105656114,-1534.1210524968817,-1545.2809705099867,-1581.366247582298,-1676.9170331720984,-1560.088780911281,-1801.7521438977847,-1586.2034403646662,-1562.578989631188,-1553.8061101274777,-1631.019830454946,-1686.564573994301,-1599.5939194556322,-1602.2871691353403,-1580.9475771137006,-1617.0639108901419,-1737.7963839889408,-1529.530017917749,-1554.7333144901347,-1696.8698488264138,-1569.2736397572749,-1602.8303645905394,-1608.4764200689515,-1560.8892200641012,-1516.8367332188552,-1540.9152484492777,-1626.2053402784463,-1596.2927955449188,-1531.5876923356482,-1585.8340558016964,-1592.7988152755881,-1627.4000518657158,-1615.8890591884667,-1655.1251994536083,-1448.2067191097317,-1604.6643556968054,-1582.6520422773651,-1613.6098692878395,-1478.5163483751678,-1609.3469873584222,-1598.942417501663,-1510.3765350234823,-1573.412253712642,-1651.7782891444972,-1512.1429293816336,-1493.126112569262,-1635.3837225870625,-1537.5000266716002,-1579.013486999636,-1552.0715191294448,-1544.7257931459694,-1513.5487572827158,-1570.9029998073202,-1567.8416330866614,-1575.305893404953,-1616.8390897811892,-1532.785045065148,-1506.9525457702102,-1586.403119863572,-1466.138241598435,-1611.89614649574,-1624.4905939168616,-1569.28090766704,-1606.057995667908,-1562.193000883497,-1593.9788646010488,-1586.5011339386422,-1564.9119151019624,-1510.6259060478978,-1559.9735153239642,-1654.5519538254387,-1565.4737102890342,-1608.9925946769708,-1552.1553932603715,-1612.5392685747465,-1627.493965904228,-1543.7034438857552,-1614.5591692966987,-1657.0980794977972,-1570.7493755547473,-1629.6218719593082,-1589.0998328063347,-1614.7302569181302,-1599.4922369260566,-1610.4449017980992,-1609.6167486232728,-1609.6092101993772,-1605.5179186970158,-1522.3003906594593,-1633.1895423461474,-1566.5159438774751,-1509.165465992451,-1593.4069180965323,-1712.063747112147,-1567.4933346766027,-1542.26537326305,-1626.0556606696628,-1433.7343756663433,-1595.8759825832535,-1547.521322519578,-1496.5160780729539,-1568.0804432493048,-1604.3295434217541,-1518.6513947145088,-1502.1701446443801,-1505.2635788858327,-1619.23076160887,-1495.3630574607498,-1549.2243798533157,-1502.8856807492123,-1495.389421300444,-1531.9806975779093,-1603.069085460237,-1501.070323995314,-1615.8102311872276,-1631.53906322325,-1566.6444847748949,-1532.068811706606,-1619.9643848464398,-1585.4324942560431,-1599.4572761409936,-1606.5234269230875,-1547.3758243133368,-1622.4306182870155,-1549.6495824460678,-1665.023872988279,-1524.0906084744345,-1578.5778206864736,-1666.6835385961847,-1567.8160975773549,-1586.65980658105,-1597.326455386574,-1598.0867085601187,-1473.3640799234158,-1436.3124031782868,-1503.4649903485843,-1482.0730709323934,-1608.5615955314643,-1497.8003433998997,-1600.993837914255,-1600.0625735893316,-1665.9579586033044,-1608.7031799268366,-1481.9016980174524,-1496.421031511214,-1509.828370019023,-1573.9390414018555,-1594.6358075389005,-1515.7557260401925,-1466.5956760966426,-1512.5837894976494,-1623.5151418442233,-1576.5060517917527,-1489.1776661148003,-1534.2827970213646,-1651.9010855047686,-1582.5708486889075,-1570.0453677925566,-1567.3399496725904,-1493.7483334221918,-1579.853154355066,-1625.8969897765155,-1652.9691126614005,-1492.2215092531821,-1625.7917393740988,-1534.749536549233,-1585.1408214285643,-1497.1281122392393,-1521.8647935361525,-1559.5541089990897,-1674.7285932273578,-1556.480207125745,-1504.2011131023444,-1556.80905251034,-1586.0120368981775,-1503.9962864450638,-1464.402639175945,-1603.3859314709123,-1530.313677359611,-1565.4433129154286,-1554.9197915361349,-1510.469593850706,-1608.2193198671985,-1503.006964089191,-1595.2515751453109,-1605.344892661982,-1551.7896912308454,-1542.6794227950577,-1493.1377125001832,-1582.5278247473816,-1576.9492092399767,-1629.7918508562288,-1573.5181880276837,-1495.6673766326135,-1605.0431690980424,-1590.534215157509,-1585.138533372753,-1468.5952625054788,-1592.5079449277598,-1498.3734028108606,-1602.3225052988723,-1628.180073545029,-1652.9194472912272,-1593.2547261460966,-1495.8372937818863,-1540.847592299263,-1598.370061797847,-1619.0895309028563,-1560.8068610950595,-1594.7694082136263,-1571.7858283478058,-1608.390021969176,-1585.43960844646,-1456.3732601864147,-1613.3402549302912,-1732.6160778282303,-1499.1493961606197,-1611.6321574570986,-1594.900958080425,-1607.473326342072,-1569.1353810357664,-1568.2892416219722,-1516.4904433785496,-1668.8291349104338,-1604.8630233928588,-1623.3156382090087,-1527.7930787051387,-1502.0045540111698,-1609.793641308662,-1593.9988230826464,-1506.706711890422,-1597.1311940085873,-1475.3672721477903,-1493.39604417986,-1635.2555107165454,-1605.0558778393695,-1582.0051754994438,-1616.5942988249576,-1580.3119304686647,-1604.3098202021315,-1461.2867628422557,-1600.4346840131398,-1620.9400007122133,-1524.6984897490122,-1566.9404224005991,-1483.6120192592723,-1506.1351871847428,-1506.8440033810082,-1544.4467019239219,-1621.7952150768153,-1708.6195528199419,-1606.5909027400517,-1586.8584872930899,-1571.7772320877077,-1587.6916001280224,-1524.819017702565,-1610.0519105909036,-1654.2763434683263,-1605.5457067831328,-1570.5200386345575,-1622.2703421412436,-1571.267716738044,-1639.061024967356,-1597.5085571887944,-1531.397816957773,-1569.7826343678555,-1567.2036237845873,-1604.9461520006244,-1467.925249099672,-1538.6937989976707,-1548.8333759781606,-1591.815946707048,-1625.5821777859671,-1536.471339930532,-1595.053567680091,-1630.4976888643832,-1607.7684610071453,-1558.6116473758275,-1641.858110569167,-1599.1620175975813,-1621.0290920337015,-1602.0004487721394,-1556.4551527557333,-1627.6803662083203,-1586.429873392205,-1573.5527649451687,-1591.3231795610848
1,-239.74241199888684,185.20614975444636,190.21158088143406,190.21150757901222,-703.3725829168286,192.214119908108,198.22062537528748,195.21700577658038,195.21729397938546,197.21984328439072,194.21612570314178,202.2251861294382,197.2196542328477,193.21472850246457,192.2137590646379,202.2248271994736,205.22809474168378,204.22733170769192,190.21142935523267,203.22608117776267,207.23030784820003,206.22924160082488,208.23179164126438,209.2326460365096,204.22693871729402,215.23929701841786,215.23929325604468,356.3966172943701,216.2402998385711,212.2359749759312,217.24144021103658,362.4027545139906,357.39795233980095,212.23581903803338,214.23808069864074,197.21935375748896,217.24189706078764,355.3960685716296,217.2413983824152,192.21365316238123,360.4005258108527,364.4050710653297,355.3951316770267,354.3941668862081,223.2481429374142,214.23846524064217,224.24948848225552,195.21728392769208,194.21618606942474,227.25253050269686,214.2384893672075,202.2270403732122,225.25057417105694,202.22527823637753,219.2436771941959,226.251458504443,356.396193845725,201.2240178805409,189.21034971707013,201.22361734715273,207.23055881828103,203.22590593766085,201.22360793380648,204.22693491639262,191.21250951028296,209.23272808166288,206.2292517075255,210.23375023456586,208.2314488990051,209.23264699482962,214.23813147576155,212.23591247106535,356.39639174955454,209.232633284744,212.23595205940182,211.23513802357627,357.39757649251754,218.24268596296517,195.2170550749659,210.23424334648692,220.24523252399695,359.3996074284221,219.24382673744432,218.2426605595462,220.24531178957355,356.3961708175576,222.24727422760157,229.2547685230711,355.3957993309517,215.23967122399188,228.25364937729313,227.25285348440588,196.21847677763608,219.24370309422406,191.21250828201127,215.2397084464339,231.257400688849,236.26259338876892,233.25924836099995,235.26165958105503,231.25709045656797,225.2506138486154,230.2560715320708,237.26382141122588,234.2604826833762,238.26475039568447,230.25604710653067,204.22752678909697,238.26528312933263,238.26478054844517,236.26253898959175,240.26713575065673,239.26594385335255,237.2637407168775,242.26928885816795,354.3943466432562,355.39515373828146,237.26386345233433,237.26369857504667,361.4020731427647,357.397664444827,240.26700177313106,237.26372305802914,238.26501340590707,356.3967717842642,240.26715119831437,355.39551426096887,238.26538594781118,356.3965442874472,356.3961757013184,356.39682746063,355.3954241050164,241.26867838459606,239.26606771840147,359.3994124711807,245.27264200767652,237.26378140686572,238.26509862685367,219.2438593577616,225.25034674205068,199.2218456300392,228.25423214513077,224.24927071347784,219.2436766764109,217.24157306593065,185.20846047932645,232.2587544199046,353.3938456288307,228.25379265531458,230.2559859849994,230.2562097184404,229.25474932959287,229.25478003390793,209.23255144528065,236.263320618885,354.3942725319987,234.26101977501855,235.26155672745946,236.26270116970113,358.3987582590728,231.25742936269208,239.26610594102013,358.398483102923,241.26809204790024,234.26071549737028,237.2640117176066,354.39392411810724,358.3988665594292,234.26040399021392,237.26462966901002,358.3983710108022,355.3951763546982,355.3965857086675,354.3940122812638,239.26613715367958,234.26058345048492,239.2659627071819,238.26508512217868,235.26255789233326,226.25195016039046,355.39542458919755,354.39493550886937,237.26386833930422,223.2480963484122,257.28660118893345,358.39966617491325,240.26721967722273,238.26482711038884,359.3997590930376,353.3927928580525,227.25383830280606,353.39303788832893,237.2638558901082,238.2649308459138,239.26588031279897,237.26378771677605,233.25919360469348,236.26263147423495,229.25529316104704,252.28065055179707,222.24696294794515,280.3113666053679,259.2881676178556,229.254810644674,245.27351500529224,236.26289503373948,232.25806592401696,281.31254817428305,258.2870257366639,258.28701870647063,261.2904435017397,228.25425207012756,253.28151945709484,259.2881410188421,240.26696649161465,265.29506901169935,252.28064410786078,216.24042381543404,261.2908212601243,262.29232613383056,260.28934952680027,263.29282227812826,257.28642668967177,261.29051112080754,267.2979691259841,260.28946742028495,260.2892370547662,261.29064916915365,270.30090013025705,264.2938796998829,356.3963228556731,238.26503964993097,239.2661431902426,353.39315946545287,237.26373115587663,357.3975124237626,240.267333094489,354.3943278903049,239.26591445281917,356.3964068384717,236.26259448942668,354.393784267363,357.3972654066373,354.39413726163724,353.3928070099901,238.2652003832077,232.2581733226234,237.26430825393265,240.26740708983993,353.3938424483843,354.3941505364151,353.3927178143027,238.2649699078296,240.26771698936366,236.26304088575804,354.3944839703225,355.3949352948354,249.2771808081243,355.3949168454501,261.2905959330119,262.2920117097446,226.25165963780083,356.3960390635909,259.28834343612664,261.29109966125947,234.26038982154435,354.39397799814697,259.2881119578904,238.26475749444617,238.2650716463182,257.28657137996316,355.39638983402847,263.2926748718716,258.2871332956094,232.25829146794842,259.2882579145411,259.28825126552334,354.39423985387606,261.2905211993272,265.2949462767611,259.2883853179417,258.28710863265144,263.29347745329625,258.28759873249174,260.28931214139493,262.2915623406961,262.29214422027377,258.28736333380425,260.2893466767425,261.29076741264686,265.2949464059082,261.29054139253816,258.2873896446836,269.2992248343294,265.2949577937743,263.29319902858697,266.2959240616052,355.39681738897576,269.2999073136359,269.2992949512505,267.29760725066836,261.2905821609098,268.2987772552631,272.3026600145867,270.30047096722654,271.30145209488626,353.3929913548285,356.39671125181394,353.39270854901605,268.29850281692234,269.299378565955,271.3014524912896,269.29929294735814,268.2981500607255,265.29554238875454,268.2985186390113,353.39284183092826,356.3965074835606,269.29955242009146,353.39292184081893,352.39187044293504,270.30068912074665,265.2948192429231,354.39440678259814,354.39384850184734,268.29839512916436,353.39282927293516,354.3945447628797,269.2994236323428,354.39421478735517,354.39391944239304,354.39506425652775,356.3970400553931,355.3950091521014,354.3940150330304,353.39343118625794,353.393841235301,355.39616180568015,357.3974346867716,354.39436123828466,353.3927341125656,354.39429703277506,353.39293091990646,267.2972139303718,353.3931488807784,356.39694992099845,269.2993530187103,268.2989730206701,350.3897494770324,354.3943985650311,356.3972290653748,354.3939567975364,356.3964697559348,354.3939388761325,353.39282827405,267.2974808805541,354.3939746568951,356.39685316880116,354.39431311016546,354.39406441974523,354.3952019269381,263.2933376293489,354.3943020907339,355.3953076524581,355.39500999476985,350.98620471184836,356.39678010123333,354.3941128877316,354.39434413891763,350.39795839669864,355.3953087637003,353.3932754048608,354.3949008841775,350.9210672446224,354.3940678404018,354.3938074540491,355.3950374018867,351.3905493769237,351.39127038331424,354.39455330137383,354.3947547523464,353.3928759410362,352.3927802848663,350.38970659223116,354.39377935375103,354.3939546212333,354.39429288713524,356.3962934233116,355.39526834220203,353.3928288087424,351.3904728458948,355.3950827343756,355.394953163415,351.39144705216756,355.39564520618643,355.3952834211162,354.3938530399555,356.3968714399605,354.39437829304,354.3947843062632,354.3940914308525,354.393956421467,356.3967634307831,355.39556602161014,357.39830783472456,356.39615623424214,354.39447331022615,355.3953569003631,353.3927380845688,354.3939076689274,350.3900801322384,354.39390869231664,355.3962294626096,353.393152820857,351.3906591559209,355.39676013592344,352.39201118822893,353.3941940543305,353.3927750890821,355.395173209872,353.39323861211875,350.3895322172433,356.39625342422374,354.3939039462347,354.39394820922985,353.3936962079794,351.3907442333523,353.393596270911,354.3943682889336,355.39516637308924,355.3955349182445,355.39578635026317,352.3916285223728,355.3950940950246,356.3969486040544,354.3938149902669,352.39156038869214,352.39156811705794,351.3908169183038,350.389754641868,354.3944938216463,355.3954157118507,352.3916457379399,354.3938367369997,354.39536571015003,351.39063098157294,356.3965727483325,351.3906228835401,353.39332169085947,354.3940777151067,353.39282065659023,355.39528113005633,354.3938815054426,353.39294615942185,355.3956271908598,352.3921736097765,355.39499083525465,355.39552664688995,352.3919453494719,354.3938860926847,357.39739846908446,353.3929004837628,351.39107506742846,354.3941259810894,352.3924349849649,355.3953988913265,353.3929629613632,352.39163520655893,355.39517114525563,353.3928839426679,351.3915154003265,351.39050167000875,352.3916225999827,350.3893793126901,354.39415205525887,352.39212180026954,354.3942288808923,352.3920622782848,353.39477280709286,351.3907013021278,350.389589220558,350.3894761763186,354.3942536324975,354.39421686475106,351.39096514925916,353.3928151065245,357.39744782292127,353.3933319938363,355.3951474332663,355.3967612559713,354.3943321883964,355.395152842813,354.39527084203604,354.3939702186378,353.3927686490284,355.3958250021411,352.39176856572647,355.396039471844,354.3941790837715,353.3930058666026,353.3928807066459,354.3938878864166,351.3907660384917,356.3962130925349,352.3917759898001,353.3927168443983,353.393455139239,351.3906200177383,354.39404220027956,354.3970878826701,350.38989023505127,352.3922806421233,352.39174099098284,353.393759480472,357.398020826415,354.3937746053046,351.39138265179486,354.3948460371441,355.3962281985205,356.3966102924742,355.3963807684329,354.3938013505577,351.3905346218067,353.3930423483888,352.39231607949637,352.3929131655084,354.39389292945555,353.39289505313195,352.3922161347347,352.3922026288684,352.39165215944377,355.39505753232794,354.3942036243387,351.3910608296545,355.3953002928532,354.39417726232705,352.3928956909137,354.39384810053576,352.3919973597623,354.39378732280437,354.3943286445333,353.3927805454357,354.39384515245234,352.3915503872154,350.3898707178119,351.3907355851218,352.3915816222706,352.3916055186732,354.3947962270049,354.3944916563315,351.3917987086883,354.3938842201751,352.39212465329234,354.39443761379414,354.39384531289903,353.3928316360607,355.39509622662945,354.3938421901464,354.3943215588927,352.3918385048242,354.3941080715027,351.5977435766986,355.39510452418176,353.3930142007655,355.3949247229253,354.3949139125677,354.3941858304537,352.3916603967555,355.39654116026463,352.39205273671854,355.39516502163866,354.39401167620264,354.39439928694264,354.3939551764227,354.3941868382193,354.39389035990973,354.39459149546497,355.39520105138126,352.3918477096839,355.3952600392113,353.39314055563995,355.39650336958033,354.39468383396473,353.39281669212335,354.39436592514375,353.3927676988845,354.3939653777037,353.3931499943018,352.3916999668147,354.3938681578018,353.39275272669397,352.39167711030206,355.3960639523347,353.3937911934053,356.3967886986601,351.3908550782749,353.3927295641922,355.39521005555116,355.39560714171876,354.39441943802024,352.3926646303548,353.39320984611396,354.3950056683184,354.39389457151685,355.3950690904645,353.3928191932986,353.3930141030423,352.39167737804075,354.39426054663755,353.3938191058972,355.39488468035404,354.39423127613685,353.39279339139483,355.39587840697294,355.3949504373604,355.39511417566547,354.3942159705796,353.3936320532646,354.39390247379936,355.39527602129675,355.3951399623718,354.39385665494456,354.3946590547003,354.39450803377684,355.3953746861461,353.39343412905544,355.3950342272539,353.3930570719569,355.3963794645766,354.3950025308083,354.39454886366303,353.3927404343557,355.39529916845584,354.3940426333289,355.3958815456046,354.39460152322295,355.3951856188819,355.3959944819368,355.3952416298018,355.39502544275786,355.3952198670311,353.39269978313325,356.39613903935964,355.3955420293569,354.3951936667225,353.39270466988984,354.3939835629412,353.3933026741963,354.3941584059178,353.3931972917492,354.3945587355414,355.39510070863696,352.39247161781134,353.3936679485122,353.3928467267127,355.3949043929235,353.3928335905062,354.39386708322223,355.39530680171464,353.39309008636565,355.39505592296234,355.395721448922,353.39290108853817,355.39517161346595,355.3955718126861,353.3930604022664,354.3941271695898,353.39277181787793,354.3948745955352,354.39519521239123,353.39343207534375,353.392805034915,353.39306708173933,355.39628242154714,355.3951502593094,355.3954141717335,355.3950238995589,355.39535718963833,352.3916207466623,355.3952428827824,353.3931133678396,354.3939547458619,354.39404753093504,354.3939768417222,353.3929129259963,354.39449578532,353.39301874894704,355.3953362704742,355.39494216840444,353.39347905731,353.3942828018019,353.39291332662856,354.39484171959134,355.3970998364674,354.39379595145476,353.3936599259477,355.3951513842167,353.39273970067137,353.3932147541853,355.3956008360431,355.395014167494,353.39287089986004,353.39318626589824,354.39385158267817,353.3929274570871,353.39278743609907,355.3959471515954,353.3930764757029,353.39310360589394,355.3951049733119,353.3933290530452,355.39493996515336,354.39442140088954,355.39541491172594,355.3961171514157,354.3937860812478,354.39398292990074,355.3950489414971,354.3938704106327,355.3953290652718,354.3941418645889,355.3950921561386,353.39323274759863,355.39498053050687,355.3957329005662,355.39525507825294,355.39498760507826,354.3940913510706,354.393816968991,355.3971242685439,355.3950342804717,355.39519395334236,354.3940516092735,355.3949931849436,354.3938174765292,352.392176824317,354.39447900892264,353.3929719645591,355.3954498583688,355.395700892122,353.39275819993844,355.3955493766484,355.39545075272497,355.3952403452974,354.39385366762605,353.3929462804561,353.39282494421303,355.3950353776283,355.3955059181228,354.393926246853,354.3945745111748,355.3957967431835,355.39546802644446,353.39402230713915,353.39305837222093,354.39511556698875,355.3957698974068,353.3931929443446,354.3945364280709,354.39377601393596,355.39574710489967,353.39267801683894,353.39276573373286,355.39522634716144,356.3970868085027,355.39571328046037,354.39393324546,355.39646062224693,355.3949485620948,353.39354746670455,355.39534199219094,356.39667980724795,354.394688299715,353.3930570670662,354.3943152724584,353.3934151152876,353.3926968429377,353.392767555919,355.39538712226533,356.39664308823427,356.39722177519127,356.3981629420213,353.3933620487958,354.39429002778434,353.3931518676029,355.39553305769357,353.39394370482586,353.3928550375475,355.39540566093814,355.3953365591707,353.39313428012764,355.39579488285176,355.3949976341207,355.3966995484089,356.3960702181143,353.39269154158615,355.3959452542563,356.3962072482204,355.3954222204162,355.3952963058284,354.39393879571963,354.39493638885756,354.3942864826103,354.3941908773749,354.39461912577286,353.392955138503,356.3961363767901,353.3927850167958,354.39393196148075,354.39446156384423,353.3932575619377,355.39502552275457,353.39282235468767,355.3967186564029,356.3960946021235,355.394958030576,353.3936081345009,353.39286450222676,355.395589439257,354.39396153723885,354.39516965637813,353.3929355938918,353.393565290305,354.39465096599827,353.3927247400203,354.3949001639233,354.39382116935803,353.39314709381915,353.3939636088238,353.39314639604993,353.39284322363386,353.3927461326681,353.3942862692984,355.3950378494669,353.3933160137832,355.3949012518589,353.3930021140599,355.3958743257474,355.3953093050371,355.3954902213141,353.39300030309596,354.3947309289496,356.39615380375835,356.39634668430244,357.39783086698867,353.39345476302975,356.39639792539543,354.3939473582173,353.3934472770516,353.39345588077407,354.3945714590421,354.39412175774373,355.39505100340784,353.3931553009482,355.3955441891145,353.39345508053907,354.39466543600383,354.3943754396934,354.39384922843516,353.3928119501427,354.3944501756805,353.3934762078583,352.39174951910854,353.39321422933097,354.39389779256857,353.39354429439936,353.39384606756346,353.3931811827038,353.3931829398943,355.39529110202284,353.39345978769245,355.39532528322565,355.3963444416713,355.3951911357442,354.3938888514162,355.3950061785894,354.3941549441427,353.3930832268749,355.3959388721408,353.3938067040507,355.3949304074667,356.39740644415417,354.39426219224697,355.3956000201145,353.3927836472149,354.39414421912534,353.39277304036614,353.39312102149626,353.3937879502766,353.3933420028609,355.395059221811,356.3965484968257,355.39543335279,353.39285896164176,353.392891482871,355.39546595575905,356.3962548778388,355.39517956311283,355.3955313448803,354.39464434966095,355.39503407003747,355.39563727245263,356.3970534702717,353.39288802339667,353.39382531629457,354.3938780681727,355.395273129534,355.39500030661065,353.3928548170601,353.39310937907936,355.3954899557813,353.3938272182442,355.3953093095148,354.3940421200426,355.39505927186167,356.397145634498,354.3939309409844,354.3953602363512,356.39644186875796,355.3951794710963,354.39397637265637,354.39415968762245,355.39532847060497,356.396071692631,353.3931394884799,355.3951847594537,355.39598780811883,354.3939524244655,354.393873637445,353.3939850858179,354.39429890848237,354.3944395803785,353.39378363468256,355.39545313967204,354.39413240680386,355.395337185258,353.3928106366996,354.3938539208871,353.394321771515,354.3938064597693,355.3951240683519,353.3927314291618,354.3945784492607,354.3942920961203,356.39669147632696,353.3936299883812,354.3944697099769,353.3938654002092,353.3927454881583,354.3952250507937,353.3927890468397,355.39551639331404,356.3964999794245,353.3930781254804,353.39345186417034,354.3939309545487,353.39266959318314,354.3939122418269,353.39325794329955,354.39422333416013,357.39725384011905,353.3926993979706,353.39300847481155,355.3951729181039,354.3938165938315,353.3931647821733,353.3939275316154,355.3950353960125,354.3939049397613,355.39566406112635,354.3938118089955,353.3927956963482,353.39310205121836,355.3951142691375,355.3953844869349,353.3937579245705,354.3943051322574,355.3949623425874,354.3944060371992,356.3969956234442,355.39525344930195,354.3942407514903,353.39291060473823,354.3950108450546,353.39284740561015,354.3939007761019,353.39351787943957,356.3961341845025,353.39306493645864,354.39446814348867,357.397141210259,353.39360664413607,355.39493190233424,355.39507887046653,354.39401490022243,354.3943001095093,353.3927320385066,353.3944365411995,353.39390094663554,353.39314200595857,353.3927659629309,353.39279482964207,355.3957781342313,353.39425213621456,353.39287836669854,353.39332637207303,353.3933708311463,353.3928405785318,355.3949634722047,353.3938421434258,353.3933319324331,354.3938699298091,354.39508918570937,354.39399786578224,353.39285982392306,356.3962208763895,354.39507229474765,354.3953922820654,353.3933689995019,353.39335353882825,355.3965148025308,354.3940983018496,353.39268987154867,354.3947451996432,354.3949789751764,353.3928614902773,353.3930188721088,353.39286782259785,353.39349583786515,355.39578786456104,353.39313304761225,353.3926598892876,355.39503792213543,353.39279539735077
2,-0.04770969685608984,-0.011120342386727643,-0.02301053588536537,-0.022487212764951386,-0.06830851728421244,-0.02370306463837695,-0.021952740230337383,-0.023166955778939194,-0.023391668663463983,-0.023746360662245516,-0.010301823333470718,-0.02271873343555754,-0.023538497696517703,-0.023907188609249543,-0.023513345754067796,-0.02297035281428567,-0.02293835387949783,-0.02313214777962062,-0.00980739851790124,-0.02271533298012524,-0.02281442140150007,-0.02227885460378325,-0.022577706346671854,-0.022005527000537557,-0.0226632937564321,-0.02165523307532473,-0.02160101524062411,-0.0055891667018007005,-0.022582753594279362,-0.02244723450770667,-0.021720420407708534,-0.005989631011061174,-0.005571563420013334,-0.022313290184056738,-0.022771725000376736,-0.005163959314238766,-0.02291466643429204,-0.005613619507730174,-0.022508303379881987,-0.0035283331839122693,-0.005672788718771931,-0.006084458599297641,-0.005571107325769139,-0.005474085176327003,-0.021205949437408476,-0.022719729434067724,-0.020948945202344752,-0.0015065221976478251,-0.0016976367390419181,-0.02195047805275877,-0.02248596847712776,-0.0010983030602599716,-0.02264706476836265,-0.0012012896601790036,-0.021948603316157438,-0.02205392980542531,-0.006305521002658015,-0.023645755621323757,-0.01012946893996543,-0.023979190133829625,-0.02341413650029491,-0.0243372482757504,-0.024639249917620922,-0.024003163036132633,-0.009764006511635585,-0.023151791967512658,-0.02420660122449848,-0.023115422651463755,-0.022754141280024783,-0.02308798396120978,-0.023539950686280738,-0.023938902046797796,-0.0060503088545657835,-0.024410370780313446,-0.023799380475575366,-0.02304534197695779,-0.0062472583031206105,-0.022936893973773007,-0.005219375336151438,-0.02365147231395334,-0.022724775151349404,-0.006393165453074257,-0.02346266143491238,-0.024192633018337076,-0.02358954807117617,-0.005990376602323646,-0.023747753575008256,-0.021644629045464617,-0.006199938423184143,-0.022929460321956485,-0.02221500731550321,-0.0227367143511363,-0.0017112319086810158,-0.023403999976992048,-0.0020504967504820833,-0.022927989885898312,-0.021464436465876577,-0.020943032036709483,-0.02213387500207388,-0.021617589261755693,-0.022982976756791583,-0.0235352073920328,-0.021630223917629428,-0.021207454566131528,-0.022687174966984802,-0.02175366789356131,-0.023603555938950253,-0.0006521080694709986,-0.02196238695544269,-0.021266129329688212,-0.02164017786213916,-0.02261980147787745,-0.02205588184363022,-0.02196132633910568,-0.021855212429835423,-0.005429435611767932,-0.005621000711793384,-0.021161861144986627,-0.023039663752692188,-0.0061014948014749245,-0.005832587182521568,-0.022258161057663275,-0.022574020385083122,-0.022760172493593533,-0.00565515967360904,-0.02177438907841117,-0.005523611935538208,-0.02159049409082414,-0.005879479358358791,-0.0057958006208065765,-0.005860628891595666,-0.005791682538930782,-0.021784989589798635,-0.022901592620614628,-0.005715092711013554,-0.021455776797102484,-0.020873690457775394,-0.022019323668859177,-0.024931579243990525,-0.023653981299235072,-0.0012426300880811097,-0.023749154686927686,-0.023623357801237498,-0.024665569583627093,-0.02543751457790388,-0.0017838202197319713,-0.0222488221535244,-0.005854297922734142,-0.02373612993483289,-0.023745541719482406,-0.02409598395269793,-0.024241472564187332,-0.022481069009408362,-0.0005981251163191416,-0.02213162195420292,-0.005737688442018279,-0.022907821051939076,-0.02343135194790322,-0.021891450753175834,-0.006261327262211844,-0.024516643429638118,-0.023065999417404146,-0.006126731975534139,-0.023071711974879436,-0.024171571491489255,-0.02386431190673728,-0.005718801777026339,-0.006077666871299918,-0.02446343106936507,-0.02331578729751004,-0.006433606685263062,-0.0059568169336496665,-0.00612385186476301,-0.005669400553624087,-0.02267909973095629,-0.02119987222702497,-0.021849701388096134,-0.02241747704414079,-0.02181357014297901,-0.0003392102915058195,-0.005609666898109109,-0.006078311542629449,-0.022205373657087232,-0.00023998098317862395,-0.020543105039136245,-0.00615126206398513,-0.022376732186855378,-0.02153705415674437,-0.006370339117696684,-0.005573348561465459,-0.0004362212555819531,-0.005660325377509553,-0.021288647427549764,-0.021563394781424258,-0.0079331864234307,-0.00025499859114353163,-0.0003566448642240606,-0.022187888393241376,-0.00044325137644341905,-0.021943064055296942,-0.000699632618239061,-1.1350963624124192e-05,-0.02123451685732356,-0.0003764249975861251,-0.0002096821667853625,-0.0002940198409150409,-0.00042843708067442704,-1.856212228681074e-05,-0.02146208773321038,-0.02109353939959724,-0.020393463916066123,-0.0004892214479074668,-0.022478623149905244,-0.01985624068472636,-0.02364544915037213,-0.02033968422555112,-0.022883779194344027,-0.0004004595975253179,-0.021135047700860214,-0.02108361498408062,-0.021093613836116624,-0.021411508058461995,-0.022173094426226673,-0.020639600019373455,-0.02031314824974465,-0.021825314757419695,-0.02237738046823066,-0.021340466257824316,-0.02032111885970569,-0.021424968150783413,-0.00613665984068946,-0.024717712297127815,-0.024683695967560017,-0.006438197095340787,-0.024060209503576922,-0.006699217522551683,-0.024281888082746554,-0.006456493995493173,-0.02489065045837419,-0.006748929585132747,-0.02389298159070262,-0.006275352171853854,-0.006569022398659959,-0.006446634245779129,-0.006474902887810659,-0.025229857726632294,-0.00033012145715410586,-0.023714813771082983,-0.024988315431948675,-0.0061317838673632975,-0.00639354491545148,-0.006078074341560714,-0.023884216025215215,-0.023838598971879742,-0.023092883763330428,-0.006387797146401975,-0.006515302667318411,-0.00946216875136472,-0.00642759481621147,-0.020478673357138544,-0.020264431773618877,-0.0003717173578997238,-0.006408822680159997,-0.02155278201888113,-0.020844818832806457,-0.0003818068503312146,-0.006492602115519302,-0.020868421526265314,-0.00026139636280464066,-0.02411266201279879,-0.022458443608476843,-0.006392843368825779,-0.021245855374471285,-0.02303658009028367,-0.00035068727306132304,-0.022472751763367445,-0.0211306949698093,-0.006349532180323897,-0.02188887980467986,-0.021376102192705058,-0.022313726131444906,-0.023288373037232805,-0.02094852310947897,-0.022835210501373687,-0.02142502518814845,-0.022904396995531668,-0.022718703017521224,-0.02314052772091946,-0.022653785376685248,-0.02295612009119229,-0.022419015622753308,-0.02231546838087944,-0.022722517763926843,-0.020173914036177666,-0.021138924822447856,-0.02182599468498014,-0.02095423521014793,-0.005389059390042844,-0.021420589690568335,-0.02018533103738128,-0.01949762224271312,-0.022729407351469468,-0.021094668327157354,-0.020636032914724687,-0.021094572151047406,-0.022060093344580874,-0.005318720082568487,-0.005726289210785205,-0.005271810723815418,-0.021490781573781474,-0.021397319591231125,-0.021153008429840966,-0.02144374343694889,-0.02094256240114442,-0.020193793180259045,-0.021138172768856506,-0.004917305449435894,-0.005600634507290874,-0.019885079562910454,-0.005529737185543767,-0.004455077633780895,-0.021279743830439783,-0.020137971458330788,-0.005588282942683267,-0.005792333004607792,-0.02281696592389327,-0.004961797649163661,-0.005298441142413894,-0.021986184815768518,-0.0054789894421745115,-0.005174988151464407,-0.005518536961398674,-0.005103185534039145,-0.0044968220303955005,-0.005165630235699301,-0.004444962833741792,-0.004916528220138365,-0.00506355826303521,-0.005797521505433281,-0.00546005953404742,-0.005638769149063309,-0.005649846109625041,-0.00491264814351519,-0.021330942116899454,-0.004711906596735211,-0.005968449801419753,-0.020675707913804426,-0.021020265248359385,-0.0076647190707648865,-0.005383321805264859,-0.005055319993690224,-0.005543959878567762,-0.0061395757287081845,-0.0058079461623725,-0.005121767768753011,-0.02060685320890908,-0.004921417364681448,-0.005022436538495577,-0.0054133991736825,-0.004489162902548749,-0.005723460067498184,-0.02017284619087174,-0.005295064497665231,-0.004907463841154433,-0.005393220342185324,-0.003997489795522501,-0.005130587336259994,-0.005126278744103274,-0.005215590100273752,-0.004014533518653152,-0.004822721161178027,-0.004564911191844234,-0.00516008251032485,-0.004114136518705409,-0.005209199833345126,-0.005170258360935973,-0.005903445990129403,-0.006824261242870496,-0.0068995110866795165,-0.005504244180164614,-0.004855561576746262,-0.004489907224925203,-0.0037518999981658203,-0.007359074314746965,-0.006036487522489305,-0.005202249110684589,-0.005986871863926598,-0.004809280572370946,-0.0043261958534790675,-0.004273828742168664,-0.006878689330041618,-0.004962771307869625,-0.0046052525407799675,-0.006974151857943436,-0.004740354324995523,-0.005026429303776687,-0.005158878241071649,-0.004763587421259686,-0.004736586168476341,-0.005233769852158801,-0.005745409527151168,-0.0051899525748194,-0.005047827319040517,-0.00486602302479985,-0.0055250337153824845,-0.0051992093978723685,-0.005493730813556833,-0.0055752661321477074,-0.00446665865276835,-0.005147470162970797,-0.007854295895875328,-0.005000687067011272,-0.006159892495348739,-0.004506680666482609,-0.00753134255099979,-0.004309561427529598,-0.006816689569411603,-0.005641707163230444,-0.0049158954864288295,-0.005456953601018276,-0.0058186868645390116,-0.00721638996702802,-0.0050965950512408265,-0.0054354602062345455,-0.0048222440814142285,-0.00650344598688738,-0.007622547823752085,-0.004828125353137061,-0.005347565269288181,-0.004895230314728229,-0.00529030008598342,-0.005711068696255519,-0.0053279989527194194,-0.004915905338356864,-0.004927825307853319,-0.00483740717022753,-0.006944002139578139,-0.006764110117357758,-0.007286259217557463,-0.007993620448583467,-0.005118998378206508,-0.005235908664797138,-0.006859226174661065,-0.004849838615105278,-0.005342155080284668,-0.007525247986587036,-0.004966416701872043,-0.006597471029655285,-0.0066010624991874765,-0.004798843296141305,-0.006272217773093675,-0.00492717590836092,-0.004806654817480608,-0.006546097153200791,-0.005499904875467092,-0.007109520436005761,-0.00460804649747178,-0.005463156376761304,-0.007047731302188833,-0.005182223667621437,-0.0053807367456631975,-0.005515644797241464,-0.006877486503554504,-0.0069306682410420544,-0.006570826574665763,-0.004680580314265945,-0.00606159509522921,-0.006414434235671002,-0.0042602828639319275,-0.00530261249314641,-0.006618743684525075,-0.006960622769062968,-0.004563270683612508,-0.008268409937424791,-0.005587776273113054,-0.005325398409438563,-0.006387667431955608,-0.006429942974722152,-0.0038519848715616177,-0.007413031919059033,-0.008441890344087783,-0.008369200402832452,-0.004921255796437074,-0.005029056774557617,-0.007744634196017286,-0.006110478570519328,-0.005751633186672537,-0.006739589825593349,-0.00559016892478118,-0.005680245798088184,-0.005331598850715202,-0.005255915873140537,-0.0034930348369181714,-0.004636304028226313,-0.005037617086530882,-0.0049842195692876125,-0.0060896880904607225,-0.005531394556005622,-0.006051841057752813,-0.0058309788669798504,-0.005925376863834316,-0.005343746322179461,-0.007066119925937612,-0.004954342713190033,-0.005669447969674237,-0.005742986883432663,-0.006800470208336986,-0.007858931191309763,-0.005088316898615926,-0.0036834691693026327,-0.008636176258799616,-0.0055997822506481595,-0.00528927800249403,-0.005137952235517597,-0.005793259532336874,-0.007348268834709717,-0.0056686673359463485,-0.004919064649323452,-0.005304748525791412,-0.005256362965881495,-0.003380247304696759,-0.004763191721056815,-0.006709335034089259,-0.004970966901700345,-0.004120424868897621,-0.005737533150713256,-0.005863220792235358,-0.0047310654680047075,-0.0037494910795003644,-0.004493599296394409,-0.005259896970128617,-0.004944107859213468,-0.00525750006793286,-0.006953910562711856,-0.00504268625747732,-0.004497939715250209,-0.005576205789314576,-0.005110681714003626,-0.0067517142081566376,-0.0054441925456478486,-0.004742202241398488,-0.00638803184206276,-0.004718760750995287,-0.004846336459554825,-0.008134302247929687,-0.007615046884033936,-0.004828377502228751,-0.004491884788295166,-0.005136657867725293,-0.005092903291481667,-0.006533694088789988,-0.004793935751108602,-0.0053508782266527884,-0.005153461601659023,-0.005243019398426859,-0.004376900800107986,-0.005115097024382899,-0.00512370954749839,-0.005206719730627065,-0.0045129374560034215,-0.005563031622395389,-0.004055536867758013,-0.005105359607920705,-0.0045265308841589665,-0.005295896285472039,-0.005242890489200735,-0.00626002598702889,-0.0077704246405937765,-0.005674103539335706,-0.004679186974830006,-0.004525440246474171,-0.005283264343534472,-0.0036730285275998866,-0.005409866156921059,-0.006673824959113133,-0.006334018608957864,-0.005938403753378633,-0.006478655143523233,-0.005868445428201078,-0.005178613819323454,-0.00679695740834152,-0.004922427382151382,-0.005319374275870408,-0.00504769746282875,-0.0050160873232956565,-0.00421541260580796,-0.004378084348700435,-0.0062866511320590355,-0.00724373670706391,-0.0049511974032293874,-0.0037325350992875638,-0.005344871303256655,-0.004619683302438679,-0.004138057242259203,-0.0036912104106262018,-0.008059658855609627,-0.00559286491537627,-0.0042219232879793156,-0.004014961600763788,-0.00565949391890256,-0.008741768122884032,-0.003804280290423758,-0.005871575717151906,-0.007778345777782002,-0.004087878946162654,-0.004046361162482856,-0.003932721056104163,-0.0068096420323030225,-0.005090853019587906,-0.004218775597421465,-0.004166100481124759,-0.006759460551121978,-0.007205231288158328,-0.005281740130672087,-0.003938744806136136,-0.005808134551607625,-0.006162762896420845,-0.007738994356800293,-0.004171305011219835,-0.004577786568687029,-0.004644358942152231,-0.007615918381655307,-0.006356023873257091,-0.004517675769166586,-0.005444803114689406,-0.006621215497391279,-0.004429137409685706,-0.004804257578764431,-0.005371897188964268,-0.006150627495589866,-0.004668042096290066,-0.004004849550217011,-0.006448834757207616,-0.0061264651219915135,-0.0038787156015205283,-0.006229749906368064,-0.005856102373263612,-0.004994810489703416,-0.006461191393947881,-0.005534958608670132,-0.003836778926675573,-0.00814453861963119,-0.005212801199417973,-0.004663130381156291,-0.004781352104091889,-0.004239081069733579,-0.004780195397875481,-0.003910246696375035,-0.004223418599389932,-0.004201431523504954,-0.0053898398530679344,-0.005530767680106233,-0.008625714174512661,-0.0037957882822812665,-0.004859542419123738,-0.005046322901151464,-0.0036561932737181712,-0.0058507109746819205,-0.005040609195007304,-0.0034363380978666347,-0.004794696093356167,-0.0041179379831543005,-0.0047828132676798205,-0.0037992801859414583,-0.004843287987155918,-0.004799788822412132,-0.00680545352614039,-0.007487053514567385,-0.003839392179381867,-0.004609899404964902,-0.00363061062544057,-0.003749855015902922,-0.0036686698550817574,-0.004197114074659285,-0.00508484676344456,-0.005151234751280428,-0.005678881714851222,-0.005958769799939085,-0.00460733901926742,-0.005486721637254359,-0.0033519031862534188,-0.006368607866277208,-0.004601967622530741,-0.006274798254806211,-0.006357977523659425,-0.004217927984983061,-0.008011280196273554,-0.004437508080655178,-0.0037622768363732486,-0.004343932725279321,-0.006527830239774949,-0.003595877581013352,-0.0032921771224329872,-0.0045634575908852885,-0.0037757040163817522,-0.003351309195821819,-0.00475280757269614,-0.0033078309183878526,-0.003614840156631785,-0.0044364441480845,-0.005631475958486251,-0.003637941070520867,-0.0036654766364123317,-0.004416331250100824,-0.00343461045810928,-0.004242594009445272,-0.004531850585757272,-0.0037997235932875797,-0.0036275457289939917,-0.004305414527063392,-0.0036365896039192535,-0.0050052502515086335,-0.0052059014886884514,-0.00634562738987208,-0.005678405339623771,-0.004546771638352498,-0.006647485518623248,-0.006034170688510821,-0.0037109349455028994,-0.004469957399755607,-0.005257038742232655,-0.003860860417886125,-0.004372943471036606,-0.004024322614309598,-0.004839005283182037,-0.004413673731290207,-0.004350497627686678,-0.005146061625506981,-0.004010878518011393,-0.004109228055719204,-0.004427755779444017,-0.004387802956943592,-0.005540301423548405,-0.006479805466965726,-0.003659080032304959,-0.00384572569502172,-0.004785631832762583,-0.003824354432410465,-0.005715133101410444,-0.004238965397549682,-0.0037038091535326447,-0.004167535220016322,-0.0041337681565871524,-0.006236916391638985,-0.003975485479288022,-0.005177944824493049,-0.003322390274557531,-0.004386004892512323,-0.0042946114206024065,-0.003703906800819931,-0.00423230620593977,-0.005995245555956516,-0.004342944145651059,-0.005275963937748828,-0.003496279071168062,-0.0037617477687475966,-0.004396543817810772,-0.003715453877805766,-0.004839599595744506,-0.004122978602060436,-0.004638096416464526,-0.003473065796771031,-0.0037100645505589035,-0.006078352376465618,-0.0046667418524079995,-0.004368237711408367,-0.005169386876203423,-0.004334414068173915,-0.004860601524844678,-0.003584138299715724,-0.004457638743522377,-0.004823201235879804,-0.0038753093432509185,-0.0035790442969851205,-0.004248073685729375,-0.003151019516399486,-0.0033835221590420286,-0.0035223320412024793,-0.004891865186165891,-0.005908999196374412,-0.006269997813753669,-0.00417849435214979,-0.0035293054649072585,-0.0038719138829277026,-0.0036421920972574107,-0.0037166315854145066,-0.0035792208590705124,-0.0035287938600494523,-0.0039022750903154146,-0.004410142547728604,-0.004092804353480142,-0.003961170492124064,-0.0038148753842974894,-0.0050174852458845275,-0.005104696300066908,-0.0033384890466318703,-0.004376577996887618,-0.005085950465925485,-0.003972620289998365,-0.005684275667206812,-0.003950856024395759,-0.0037415886818075285,-0.0040185182957006805,-0.0038801808041460774,-0.00340324166275692,-0.003464040036354718,-0.004409496517759461,-0.0035313626913037388,-0.004440129668877656,-0.003797642525480768,-0.0035233526804873193,-0.00437281890570203,-0.003488429571265674,-0.004835997124043071,-0.005260290211533022,-0.0039456983079708225,-0.003321844508631674,-0.00395756948705337,-0.004471625264179274,-0.004100271117429829,-0.0038499141995072504,-0.003541283382896201,-0.00368831919145711,-0.0037627973071973205,-0.003543163174398509,-0.005165579063482882,-0.0040230882621986545,-0.003626390010299912,-0.0034373962891863833,-0.0035398107457998676,-0.0035284655313113267,-0.0036709591715566162,-0.0035838030288438214,-0.00475451888900668,-0.0035203376765370964,-0.004128706698330702,-0.003698381801856723,-0.004377649689316231,-0.003934163461671898,-0.004617089569403412,-0.004436965193486488,-0.0038089123326039962,-0.004729341955099087,-0.005976897064648399,-0.004692122418366608,-0.0035613695397496334,-0.005237827744026238,-0.0034044172554059116,-0.0033635919401357856,-0.003563596057041536,-0.0034501734854915037,-0.003479562020593233,-0.003815113145328958,-0.0037595122999649743,-0.003917024273902249,-0.003381397734935823,-0.0034390425075683773,-0.0034276828950262394,-0.0035673411035178205,-0.0036211458194570245,-0.0034535617660144896,-0.0036153470987929405,-0.0033784305991059562,-0.003391953284979857,-0.0037306930249514083,-0.0036505309726541026,-0.0034250468295072985,-0.0035345153400291123,-0.003614734013421004,-0.004330334746642201,-0.003643042026300399,-0.004370839894756749,-0.005861128807807582,-0.003976829095886208,-0.0038186725854249494,-0.005759486696716641,-0.003844636655713284,-0.0036146803801415804,-0.004975111053007667,-0.0034953995999539096,-0.0037828780332725452,-0.004188109340584351,-0.0034893459527028815,-0.003753674295302916,-0.003512022075979295,-0.003387587216650707,-0.003613802709902519,-0.00358340838833619,-0.0039096933350322985,-0.00359584486223314,-0.004001751084556606,-0.0044395454922755385,-0.003915443783544003,-0.0034030981934278456,-0.0035149201947784962,-0.004038819327599974,-0.004203072756298902,-0.003973464211481414,-0.005211081567195423,-0.004021524996231125,-0.0038534792677023494,-0.004207862744483957,-0.006279501824848288,-0.0033700784907061813,-0.0036070767881911142,-0.004049254551058369,-0.0038542892976328323,-0.004597020047507534,-0.0037264807364404784,-0.0038620986455257388,-0.003831713298852301,-0.003662887777771799,-0.004173655114519961,-0.003940425871020658,-0.0038975346724297514,-0.004825769657805119,-0.0038143402777674894,-0.005009044146715244,-0.005299435489122295,-0.003891129223594295,-0.0039318114322471395,-0.0040530994214830725,-0.003943458605591531,-0.004309665292036276,-0.003593805150650902,-0.003997086331133996,-0.0047387113446992896,-0.0038265513470464555,-0.0034473773213593247,-0.003598311936084519,-0.0033960761522451853,-0.004033385281307477,-0.0035852070046842204,-0.004551796998758089,-0.003951959605582917,-0.003840613003067397,-0.0035610583650465366,-0.0038436538288998735,-0.003827175471420211,-0.003874920214101593,-0.004012556333464923,-0.0035850808880833946,-0.003979122468457282,-0.004086666820745157,-0.004414624029299908,-0.0035294427493967008,-0.003427452005637353,-0.0035217196295121637,-0.0037458449720833373,-0.004835282390530219,-0.0035336147735116363,-0.003925319355512459,-0.005076510772775564,-0.0035524940837373875,-0.00365336414701527,-0.003829401348556505,-0.0035211463802365004,-0.004113782857610993,-0.0036162932445534287,-0.0041086162170093105,-0.004751477856790941,-0.003652688219858106,-0.00489101615287496,-0.0038807474770873153,-0.004271903179156527,-0.0035392162777288507,-0.0036599510720711575,-0.004555747430790076,-0.003901657887034699,-0.00401111836644087,-0.005098188659748014,-0.0036507922141077085,-0.003724009830857323,-0.004145958655090537,-0.003923327818800167,-0.0036661404284491564,-0.004094353029286293,-0.0039013427809333873,-0.004128567047817811,-0.004413375408255619,-0.0038837348017610887,-0.004344021505831813,-0.0035536867973963216,-0.003943752119664419,-0.0037279685151760723,-0.003960765642264344,-0.003625529975290461,-0.004393481290610876,-0.003578303358571831,-0.004433560204492291,-0.005374478182050078,-0.00341265981114259,-0.003986047164894804,-0.003920146634340593,-0.003490877826469715,-0.00391537327546484,-0.0037433083087959813,-0.004822816289797156,-0.003652969402929799,-0.00343959786276939,-0.0034146891412699535,-0.003490199746288828,-0.004172980982865997,-0.0036595546333327614,-0.004070929588844971,-0.0036632561556219478,-0.0033818825901608825,-0.003778113187310992,-0.004833344975098575,-0.0037710041196270462,-0.003529004942740827,-0.003628827965269387,-0.004019769311881866,-0.0039562796357607375,-0.0036785620769413893,-0.0044250754008188144,-0.003989942263275161,-0.003770409727062606,-0.003576695196285446,-0.003738210806285094,-0.004220084056473406,-0.004178014966950798,-0.003779205461463743,-0.00427849052619044,-0.0038180935857584633,-0.003732011937133502,-0.003554252549175416,-0.0037556267045035633,-0.0036266282603638644,-0.004647373246232255,-0.003661946375348559,-0.0035060709011867142,-0.0047069323741794405,-0.003549603834406218
3,-13164169.376177276,-13164169.376177276,-13164169.376177276,-13164169.376177276,-13164169.376177274,-13164169.376177274,-13164169.376177274,-13164169.376177274,-13164169.376177274,-13164169.376177274,-13164169.376177274,-13164169.376177272,-13164169.376177272,-13164169.376177272,-13164169.376177272,-13164169.376177272,-13164169.376177272,-13164169.376177272,-13164169.37617727,-13164169.37617727,-13164169.37617727,-13164169.37617727,-13164169.37617727,-13164169.37617727,-13164169.376177268,-13164169.376177268,-13164169.376177268,-13164169.376177268,-13164169.376177268,-13164169.376177268,-13164169.376177268,-13164169.376177266,-13164169.376177266,-13164169.376177266,-13164169.376177266,-13164169.376177266,-13164169.376177266,-13164169.376177266,-13164169.376177264,-13164169.376177264,-13164169.376177264,-13164169.376177264,-13164169.376177264,-13164169.376177264,-13164169.376177264,-13164169.376177263,-13164169.376177263,-13164169.376177263,-13164169.376177263,-13164169.376177263,-13164169.376177263,-13164169.376177263,-13164169.37617726,-13164169.37617726,-13164169.37617726,-13164169.37617726,-13164169.37617726,-13164169.37617726,-13164169.37617726,-13164169.376177259,-13164169.376177259,-13164169.376177259,-13164169.376177259,-13164169.376177259,-13164169.376177259,-13164169.376177259,-13164169.376177257,-13164169.376177257,-13164169.376177257,-13164169.376177257,-13164169.376177257,-13164169.376177257,-13164169.376177257,-13164169.376177255,-13164169.376177255,-13164169.376177255,-13164169.376177255,-13164169.376177255,-13164169.376177255,-13164169.376177255,-13164169.376177255,-13164169.376177253,-13164169.376177253,-13164169.376177253,-13164169.376177253,-13164169.376177253,-13164169.376177253,-13164169.376177253,-13164169.376177251,-13164169.376177251,-13164169.376177251,-13164169.376177251,-13164169.376177251,-13164169.376177251,-13164169.376177251,-13164169.37617725,-13164169.37617725,-13164169.37617725,-13164169.37617725,-13164169.37617725,-13164169.37617725,-13164169.37617725,-13164169.376177248,-13164169.376177248,-13164169.376177248,-13164169.376177248,-13164169.376177248,-13164169.376177248,-13164169.376177248,-13164169.376177246,-13164169.376177246,-13164169.376177246,-13164169.376177246,-13164169.376177246,-13164169.376177246,-13164169.376177246,-13164169.376177244,-13164169.376177244,-13164169.376177244,-13164169.376177244,-13164169.376177244,-13164169.376177244,-13164169.376177244,-13164169.376177242,-13164169.376177242,-13164169.376177242,-13164169.376177242,-13164169.376177242,-13164169.376177242,-13164169.376177242,-13164169.37617724,-13164169.37617724,-13164169.37617724,-13164169.37617724,-13164169.37617724,-13164169.37617724,-13164169.37617724,-13164169.376177238,-13164169.376177238,-13164169.376177238,-13164169.376177238,-13164169.376177238,-13164169.376177238,-13164169.376177238,-13164169.376177236,-13164169.376177236,-13164169.376177236,-13164169.376177236,-13164169.376177236,-13164169.376177236,-13164169.376177236,-13164169.376177236,-13164169.376177235,-13164169.376177235,-13164169.376177235,-13164169.376177235,-13164169.376177235,-13164169.376177235,-13164169.376177235,-13164169.376177233,-13164169.376177233,-13164169.376177233,-13164169.376177233,-13164169.376177233,-13164169.376177233,-13164169.376177233,-13164169.37617723,-13164169.37617723,-13164169.37617723,-13164169.37617723,-13164169.37617723,-13164169.37617723,-13164169.37617723,-13164169.376177229,-13164169.376177229,-13164169.376177229,-13164169.376177229,-13164169.376177229,-13164169.376177229,-13164169.376177229,-13164169.376177227,-13164169.376177227,-13164169.376177227,-13164169.376177227,-13164169.376177227,-13164169.376177227,-13164169.376177227,-13164169.376177225,-13164169.376177225,-13164169.376177225,-13164169.376177225,-13164169.376177225,-13164169.376177225,-13164169.376177225,-13164169.376177225,-13164169.376177223,-13164169.376177223,-13164169.376177223,-13164169.376177223,-13164169.376177223,-13164169.376177223,-13164169.376177223,-13164169.376177222,-13164169.376177222,-13164169.376177222,-13164169.376177222,-13164169.376177222,-13164169.376177222,-13164169.376177222,-13164169.37617722,-13164169.37617722,-13164169.37617722,-13164169.37617722,-13164169.37617722,-13164169.37617722,-13164169.37617722,-13164169.376177218,-13164169.376177218,-13164169.376177218,-13164169.376177218,-13164169.376177218,-13164169.376177218,-13164169.376177218,-13164169.376177218,-13164169.376177216,-13164169.376177216,-13164169.376177216,-13164169.376177216,-13164169.376177216,-13164169.376177216,-13164169.376177216,-13164169.376177214,-13164169.376177214,-13164169.376177214,-13164169.376177214,-13164169.376177214,-13164169.376177214,-13164169.376177214,-13164169.376177212,-13164169.376177212,-13164169.376177212,-13164169.376177212,-13164169.376177212,-13164169.376177212,-13164169.376177212,-13164169.376177212,-13164169.37617721,-13164169.37617721,-13164169.37617721,-13164169.37617721,-13164169.37617721,-13164169.37617721,-13164169.37617721,-13164169.376177208,-13164169.376177208,-13164169.376177208,-13164169.376177208,-13164169.376177208,-13164169.376177208,-13164169.376177208,-13164169.376177207,-13164169.376177207,-13164169.376177207,-13164169.376177207,-13164169.376177207,-13164169.376177207,-13164169.376177207,-13164169.376177207,-13164169.376177205,-13164169.376177205,-13164169.376177205,-13164169.376177205,-13164169.376177205,-13164169.376177205,-13164169.376177205,-13164169.376177203,-13164169.376177203,-13164169.376177203,-13164169.376177203,-13164169.376177203,-13164169.376177203,-13164169.376177203,-13164169.376177201,-13164169.376177201,-13164169.376177201,-13164169.376177201,-13164169.376177201,-13164169.376177201,-13164169.376177201,-13164169.376177201,-13164169.3761772,-13164169.3761772,-13164169.3761772,-13164169.3761772,-13164169.3761772,-13164169.3761772,-13164169.3761772,-13164169.376177197,-13164169.376177197,-13164169.376177197,-13164169.376177197,-13164169.376177197,-13164169.376177197,-13164169.376177197,-13164169.376177197,-13164169.376177195,-13164169.376177195,-13164169.376177195,-13164169.376177195,-13164169.376177195,-13164169.376177195,-13164169.376177195,-13164169.376177194,-13164169.376177194,-13164169.376177194,-13164169.376177194,-13164169.376177194,-13164169.376177194,-13164169.376177194,-13164169.376177192,-13164169.376177192,-13164169.376177192,-13164169.376177192,-13164169.376177192,-13164169.376177192,-13164169.376177192,-13164169.376177192,-13164169.37617719,-13164169.37617719,-13164169.37617719,-13164169.37617719,-13164169.37617719,-13164169.37617719,-13164169.37617719,-13164169.376177188,-13164169.376177188,-13164169.376177188,-13164169.376177188,-13164169.376177188,-13164169.376177188,-13164169.376177188,-13164169.376177188,-13164169.376177186,-13164169.376177186,-13164169.376177186,-13164169.376177186,-13164169.376177186,-13164169.376177186,-13164169.376177186,-13164169.376177184,-13164169.376177184,-13164169.376177184,-13164169.376177184,-13164169.376177184,-13164169.376177184,-13164169.376177184,-13164169.376177184,-13164169.376177182,-13164169.376177182,-13164169.376177182,-13164169.376177182,-13164169.376177182,-13164169.376177182,-13164169.376177182,-13164169.37617718,-13164169.37617718,-13164169.37617718,-13164169.37617718,-13164169.37617718,-13164169.37617718,-13164169.37617718,-13164169.37617718,-13164169.376177179,-13164169.376177179,-13164169.376177179,-13164169.376177179,-13164169.376177179,-13164169.376177179,-13164169.376177179,-13164169.376177177,-13164169.376177177,-13164169.376177177,-13164169.376177177,-13164169.376177177,-13164169.376177177,-13164169.376177177,-13164169.376177177,-13164169.376177175,-13164169.376177175,-13164169.376177175,-13164169.376177175,-13164169.376177175,-13164169.376177175,-13164169.376177175,-13164169.376177173,-13164169.376177173,-13164169.376177173,-13164169.376177173,-13164169.376177173,-13164169.376177173,-13164169.376177173,-13164169.376177173,-13164169.376177171,-13164169.376177171,-13164169.376177171,-13164169.376177171,-13164169.376177171,-13164169.376177171,-13164169.376177171,-13164169.37617717,-13164169.37617717,-13164169.37617717,-13164169.37617717,-13164169.37617717,-13164169.37617717,-13164169.37617717,-13164169.37617717,-13164169.376177168,-13164169.376177168,-13164169.376177168,-13164169.376177168,-13164169.376177168,-13164169.376177168,-13164169.376177168,-13164169.376177168,-13164169.376177166,-13164169.376177166,-13164169.376177166,-13164169.376177166,-13164169.376177166,-13164169.376177166,-13164169.376177166,-13164169.376177164,-13164169.376177164,-13164169.376177164,-13164169.376177164,-13164169.376177164,-13164169.376177164,-13164169.376177164,-13164169.376177164,-13164169.376177162,-13164169.376177162,-13164169.376177162,-13164169.376177162,-13164169.376177162,-13164169.376177162,-13164169.376177162,-13164169.376177162,-13164169.37617716,-13164169.37617716,-13164169.37617716,-13164169.37617716,-13164169.37617716,-13164169.37617716,-13164169.37617716,-13164169.376177158,-13164169.376177158,-13164169.376177158,-13164169.376177158,-13164169.376177158,-13164169.376177158,-13164169.376177158,-13164169.376177158,-13164169.376177156,-13164169.376177156,-13164169.376177156,-13164169.376177156,-13164169.376177156,-13164169.376177156,-13164169.376177156,-13164169.376177156,-13164169.376177154,-13164169.376177154,-13164169.376177154,-13164169.376177154,-13164169.376177154,-13164169.376177154,-13164169.376177154,-13164169.376177153,-13164169.376177153,-13164169.376177153,-13164169.376177153,-13164169.376177153,-13164169.376177153,-13164169.376177153,-13164169.376177153,-13164169.37617715,-13164169.37617715,-13164169.37617715,-13164169.37617715,-13164169.37617715,-13164169.37617715,-13164169.37617715,-13164169.37617715,-13164169.376177149,-13164169.376177149,-13164169.376177149,-13164169.376177149,-13164169.376177149,-13164169.376177149,-13164169.376177149,-13164169.376177147,-13164169.376177147,-13164169.376177147,-13164169.376177147,-13164169.376177147,-13164169.376177147,-13164169.376177147,-13164169.376177147,-13164169.376177145,-13164169.376177145,-13164169.376177145,-13164169.376177145,-13164169.376177145,-13164169.376177145,-13164169.376177145,-13164169.376177145,-13164169.376177143,-13164169.376177143,-13164169.376177143,-13164169.376177143,-13164169.376177143,-13164169.376177143,-13164169.376177143,-13164169.376177143,-13164169.376177141,-13164169.376177141,-13164169.376177141,-13164169.376177141,-13164169.376177141,-13164169.376177141,-13164169.376177141,-13164169.37617714,-13164169.37617714,-13164169.37617714,-13164169.37617714,-13164169.37617714,-13164169.37617714,-13164169.37617714,-13164169.37617714,-13164169.376177138,-13164169.376177138,-13164169.376177138,-13164169.376177138,-13164169.376177138,-13164169.376177138,-13164169.376177138,-13164169.376177138,-13164169.376177136,-13164169.376177136,-13164169.376177136,-13164169.376177136,-13164169.376177136,-13164169.376177136,-13164169.376177136,-13164169.376177136,-13164169.376177134,-13164169.376177134,-13164169.376177134,-13164169.376177134,-13164169.376177134,-13164169.376177134,-13164169.376177134,-13164169.376177134,-13164169.376177132,-13164169.376177132,-13164169.376177132,-13164169.376177132,-13164169.376177132,-13164169.376177132,-13164169.376177132,-13164169.376177132,-13164169.37617713,-13164169.37617713,-13164169.37617713,-13164169.37617713,-13164169.37617713,-13164169.37617713,-13164169.37617713,-13164169.376177128,-13164169.376177128,-13164169.376177128,-13164169.376177128,-13164169.376177128,-13164169.376177128,-13164169.376177128,-13164169.376177128,-13164169.376177127,-13164169.376177127,-13164169.376177127,-13164169.376177127,-13164169.376177127,-13164169.376177127,-13164169.376177127,-13164169.376177127,-13164169.376177125,-13164169.376177125,-13164169.376177125,-13164169.376177125,-13164169.376177125,-13164169.376177125,-13164169.376177125,-13164169.376177125,-13164169.376177123,-13164169.376177123,-13164169.376177123,-13164169.376177123,-13164169.376177123,-13164169.376177123,-13164169.376177123,-13164169.376177123,-13164169.376177121,-13164169.376177121,-13164169.376177121,-13164169.376177121,-13164169.376177121,-13164169.376177121,-13164169.376177121,-13164169.376177121,-13164169.37617712,-13164169.37617712,-13164169.37617712,-13164169.37617712,-13164169.37617712,-13164169.37617712,-13164169.37617712,-13164169.37617712,-13164169.376177117,-13164169.376177117,-13164169.376177117,-13164169.376177117,-13164169.376177117,-13164169.376177117,-13164169.376177117,-13164169.376177117,-13164169.376177115,-13164169.376177115,-13164169.376177115,-13164169.376177115,-13164169.376177115,-13164169.376177115,-13164169.376177115,-13164169.376177115,-13164169.376177114,-13164169.376177114,-13164169.376177114,-13164169.376177114,-13164169.376177114,-13164169.376177114,-13164169.376177114,-13164169.376177114,-13164169.376177112,-13164169.376177112,-13164169.376177112,-13164169.376177112,-13164169.376177112,-13164169.376177112,-13164169.376177112,-13164169.376177112,-13164169.37617711,-13164169.37617711,-13164169.37617711,-13164169.37617711,-13164169.37617711,-13164169.37617711,-13164169.37617711,-13164169.37617711,-13164169.376177108,-13164169.376177108,-13164169.376177108,-13164169.376177108,-13164169.376177108,-13164169.376177108,-13164169.376177108,-13164169.376177108,-13164169.376177106,-13164169.376177106,-13164169.376177106,-13164169.376177106,-13164169.376177106,-13164169.376177106,-13164169.376177106,-13164169.376177106,-13164169.376177104,-13164169.376177104,-13164169.376177104,-13164169.376177104,-13164169.376177104,-13164169.376177104,-13164169.376177104,-13164169.376177104,-13164169.376177102,-13164169.376177102,-13164169.376177102,-13164169.376177102,-13164169.376177102,-13164169.376177102,-13164169.376177102,-13164169.376177102,-13164169.3761771,-13164169.3761771,-13164169.3761771,-13164169.3761771,-13164169.3761771,-13164169.3761771,-13164169.3761771,-13164169.3761771,-13164169.376177099,-13164169.376177099,-13164169.376177099,-13164169.376177099,-13164169.376177099,-13164169.376177099,-13164169.376177099,-13164169.376177099,-13164169.376177097,-13164169.376177097,-13164169.376177097,-13164169.376177097,-13164169.376177097,-13164169.376177097,-13164169.376177097,-13164169.376177097,-13164169.376177095,-13164169.376177095,-13164169.376177095,-13164169.376177095,-13164169.376177095,-13164169.376177095,-13164169.376177095,-13164169.376177095,-13164169.376177093,-13164169.376177093,-13164169.376177093,-13164169.376177093,-13164169.376177093,-13164169.376177093,-13164169.376177093,-13164169.376177093,-13164169.376177091,-13164169.376177091,-13164169.376177091,-13164169.376177091,-13164169.376177091,-13164169.376177091,-13164169.376177091,-13164169.376177091,-13164169.376177091,-13164169.37617709,-13164169.37617709,-13164169.37617709,-13164169.37617709,-13164169.37617709,-13164169.37617709,-13164169.37617709,-13164169.37617709,-13164169.376177087,-13164169.376177087,-13164169.376177087,-13164169.376177087,-13164169.376177087,-13164169.376177087,-13164169.376177087,-13164169.376177087,-13164169.376177086,-13164169.376177086,-13164169.376177086,-13164169.376177086,-13164169.376177086,-13164169.376177086,-13164169.376177086,-13164169.376177086,-13164169.376177084,-13164169.376177084,-13164169.376177084,-13164169.376177084,-13164169.376177084,-13164169.376177084,-13164169.376177084,-13164169.376177084,-13164169.376177082,-13164169.376177082,-13164169.376177082,-13164169.376177082,-13164169.376177082,-13164169.376177082,-13164169.376177082,-13164169.376177082,-13164169.376177082,-13164169.37617708,-13164169.37617708,-13164169.37617708,-13164169.37617708,-13164169.37617708,-13164169.37617708,-13164169.37617708,-13164169.37617708,-13164169.376177078,-13164169.376177078,-13164169.376177078,-13164169.376177078,-13164169.376177078,-13164169.376177078,-13164169.376177078,-13164169.376177078,-13164169.376177076,-13164169.376177076,-13164169.376177076,-13164169.376177076,-13164169.376177076,-13164169.376177076,-13164169.376177076,-13164169.376177076,-13164169.376177074,-13164169.376177074,-13164169.376177074,-13164169.376177074,-13164169.376177074,-13164169.376177074,-13164169.376177074,-13164169.376177074,-13164169.376177074,-13164169.376177073,-13164169.376177073,-13164169.376177073,-13164169.376177073,-13164169.376177073,-13164169.376177073,-13164169.376177073,-13164169.376177073,-13164169.37617707,-13164169.37617707,-13164169.37617707,-13164169.37617707,-13164169.37617707,-13164169.37617707,-13164169.37617707,-13164169.37617707,-13164169.376177069,-13164169.376177069,-13164169.376177069,-13164169.376177069,-13164169.376177069,-13164169.376177069,-13164169.376177069,-13164169.376177069,-13164169.376177067,-13164169.376177067,-13164169.376177067,-13164169.376177067,-13164169.376177067,-13164169.376177067,-13164169.376177067,-13164169.376177067,-13164169.376177067,-13164169.376177065,-13164169.376177065,-13164169.376177065,-13164169.376177065,-13164169.376177065,-13164169.376177065,-13164169.376177065,-13164169.376177065,-13164169.376177063,-13164169.376177063,-13164169.376177063,-13164169.376177063,-13164169.376177063,-13164169.376177063,-13164169.376177063,-13164169.376177063,-13164169.376177063,-13164169.376177061,-13164169.376177061,-13164169.376177061,-13164169.376177061,-13164169.376177061,-13164169.376177061,-13164169.376177061,-13164169.376177061,-13164169.37617706,-13164169.37617706,-13164169.37617706,-13164169.37617706,-13164169.37617706,-13164169.37617706,-13164169.37617706,-13164169.37617706,-13164169.376177058,-13164169.376177058,-13164169.376177058,-13164169.376177058,-13164169.376177058,-13164169.376177058,-13164169.376177058,-13164169.376177058,-13164169.376177058,-13164169.376177056,-13164169.376177056,-13164169.376177056,-13164169.376177056,-13164169.376177056,-13164169.376177056,-13164169.376177056,-13164169.376177056,-13164169.376177054,-13164169.376177054,-13164169.376177054,-13164169.376177054,-13164169.376177054,-13164169.376177054,-13164169.376177054,-13164169.376177054,-13164169.376177054,-13164169.376177052,-13164169.376177052,-13164169.376177052,-13164169.376177052,-13164169.376177052,-13164169.376177052,-13164169.376177052,-13164169.376177052,-13164169.37617705,-13164169.37617705,-13164169.37617705,-13164169.37617705,-13164169.37617705,-13164169.37617705,-13164169.37617705,-13164169.37617705,-13164169.376177048,-13164169.376177048,-13164169.376177048,-13164169.376177048,-13164169.376177048,-13164169.376177048,-13164169.376177048,-13164169.376177048,-13164169.376177048,-13164169.376177046,-13164169.376177046,-13164169.376177046,-13164169.376177046,-13164169.376177046,-13164169.376177046,-13164169.376177046,-13164169.376177046,-13164169.376177045,-13164169.376177045,-13164169.376177045,-13164169.376177045,-13164169.376177045,-13164169.376177045,-13164169.376177045,-13164169.376177045,-13164169.376177045,-13164169.376177043,-13164169.376177043,-13164169.376177043,-13164169.376177043,-13164169.376177043,-13164169.376177043,-13164169.376177043,-13164169.376177043,-13164169.37617704,-13164169.37617704,-13164169.37617704,-13164169.37617704,-13164169.37617704,-13164169.37617704,-13164169.37617704,-13164169.37617704,-13164169.37617704,-13164169.376177039,-13164169.376177039,-13164169.376177039,-13164169.376177039,-13164169.376177039,-13164169.376177039,-13164169.376177039,-13164169.376177039,-13164169.376177039,-13164169.376177037,-13164169.376177037,-13164169.376177037,-13164169.376177037,-13164169.376177037,-13164169.376177037,-13164169.376177037,-13164169.376177037,-13164169.376177035,-13164169.376177035,-13164169.376177035,-13164169.376177035,-13164169.376177035,-13164169.376177035,-13164169.376177035,-13164169.376177035,-13164169.376177035,-13164169.376177033,-13164169.376177033,-13164169.376177033,-13164169.376177033,-13164169.376177033,-13164169.376177033,-13164169.376177033,-13164169.376177033,-13164169.376177032,-13164169.376177032,-13164169.376177032,-13164169.376177032,-13164169.376177032,-13164169.376177032,-13164169.376177032,-13164169.376177032,-13164169.376177032,-13164169.37617703,-13164169.37617703,-13164169.37617703,-13164169.37617703,-13164169.37617703,-13164169.37617703,-13164169.37617703,-13164169.37617703,-13164169.37617703,-13164169.376177028,-13164169.376177028,-13164169.376177028,-13164169.376177028,-13164169.376177028,-13164169.376177028,-13164169.376177028,-13164169.376177028,-13164169.376177026
