,0,1,2,3,4,5,6,7,8,9,10,11,12,13,14,15,16,17,18,19,20,21,22,23,24,25,26,27,28,29,30,31,32,33,34,35,36,37,38,39,40,41,42,43,44,45,46,47,48,49,50,51,52,53,54,55,56,57,58,59,60,61,62,63,64,65,66,67,68,69,70,71,72,73,74,75,76,77,78,79,80,81,82,83,84,85,86,87,88,89,90,91,92,93,94,95,96,97,98,99,100,101,102,103,104,105,106,107,108,109,110,111,112,113,114,115,116,117,118,119,120,121,122,123,124,125,126,127,128,129,130,131,132,133,134,135,136,137,138,139,140,141,142,143,144,145,146,147,148,149,150,151,152,153,154,155,156,157,158,159,160,161,162,163,164,165,166,167,168,169,170,171,172,173,174,175,176,177,178,179,180,181,182,183,184,185,186,187,188,189,190,191,192,193,194,195,196,197,198,199,200,201,202,203,204,205,206,207,208,209,210,211,212,213,214,215,216,217,218,219,220,221,222,223,224,225,226,227,228,229,230,231,232,233,234,235,236,237,238,239,240,241,242,243,244,245,246,247,248,249,250,251,252,253,254,255,256,257,258,259,260,261,262,263,264,265,266,267,268,269,270,271,272,273,274,275,276,277,278,279,280,281,282,283,284,285,286,287,288,289,290,291,292,293,294,295,296,297,298,299,300,301,302,303,304,305,306,307,308,309,310,311,312,313,314,315,316,317,318,319,320,321,322,323,324,325,326,327,328,329,330,331,332,333,334,335,336,337,338,339,340,341,342,343,344,345,346,347,348,349,350,351,352,353,354,355,356,357,358,359,360,361,362,363,364,365,366,367,368,369,370,371,372,373,374,375,376,377,378,379,380,381,382,383,384,385,386,387,388,389,390,391,392,393,394,395,396,397,398,399,400,401,402,403,404,405,406,407,408,409,410,411,412,413,414,415,416,417,418,419,420,421,422,423,424,425,426,427,428,429,430,431,432,433,434,435,436,437,438,439,440,441,442,443,444,445,446,447,448,449,450,451,452,453,454,455,456,457,458,459,460,461,462,463,464,465,466,467,468,469,470,471,472,473,474,475,476,477,478,479,480,481,482,483,484,485,486,487,488,489,490,491,492,493,494,495,496,497,498,499,500,501,502,503,504,505,506,507,508,509,510,511,512,513,514,515,516,517,518,519,520,521,522,523,524,525,526,527,528,529,530,531,532,533,534,535,536,537,538,539,540,541,542,543,544,545,546,547,548,549,550,551,552,553,554,555,556,557,558,559,560,561,562,563,564,565,566,567,568,569,570,571,572,573,574,575,576,577,578,579,580,581,582,583,584,585,586,587,588,589,590,591,592,593,594,595,596,597,598,599,600,601,602,603,604,605,606,607,608,609,610,611,612,613,614,615,616,617,618,619,620,621,622,623,624,625,626,627,628,629,630,631,632,633,634,635,636,637,638,639,640,641,642,643,644,645,646,647,648,649,650,651,652,653,654,655,656,657,658,659,660,661,662,663,664,665,666,667,668,669,670,671,672,673,674,675,676,677,678,679,680,681,682,683,684,685,686,687,688,689,690,691,692,693,694,695,696,697,698,699,700,701,702,703,704,705,706,707,708,709,710,711,712,713,714,715,716,717,718,719,720,721,722,723,724,725,726,727,728,729,730,731,732,733,734,735,736,737,738,739,740,741,742,743,744,745,746,747,748,749,750,751,752,753,754
0,-7650.025151136191,-8822.045400758949,-8996.31862209166,-5308.809500563813,-7711.3527298919025,-5228.403296678642,-5094.96944434764,-8064.8405430236235,-7506.442570128839,-8548.682929594861,-8014.996870724717,-7403.20632984998,-9623.602390064012,-8410.471374634748,-8275.219443156398,-7321.482632297866,-5613.939528374265,-7686.941352096574,-8389.337317443304,-7897.758031755506,-9163.511822310182,-8682.480275344284,-7149.07021515193,-7918.338210387041,-7826.129129458506,-8644.27620474201,-8614.659835707194,-7546.593311657627,-7156.463304029679,-7072.866969824469,-7666.602144531113,-8852.805799372594,-9273.641857261779,-4713.382102580934,-7914.401049788615,-9248.502395696782,-9055.224439126836,-6063.495357635226,-5363.75283787619,-6302.553140962184,-9047.029776381389,-5141.024857069595,-4813.565581215424,-7377.584794369735,-6251.070018672122,-5006.135936827653,-7881.564496758464,-8819.027365977061,-5330.174912356265,-5044.502695694758,-8767.482007693898,-5493.345465440727,-5575.052292653727,-8092.378326198714,-4664.050831901728,-10080.902286120512,-5527.633804113468,-7471.765633873702,-8983.234418468544,-6043.063678038553,-5082.675924196489,-5434.8815713304775,-8905.189883415844,-8534.894432947125,-7869.761050671211,-7958.148509261059,-5563.274026001915,-8751.034296440415,-7818.557336652616,-5644.277143954133,-7404.194427728743,-8999.315748367957,-8932.01950905671,-5597.666336993851,-7821.98331353821,-5238.53744228658,-8026.783526307529,-7750.0156507060365,-8721.549292681035,-7030.971682222373,-6478.951004818039,-8948.717446859686,-8592.575394740508,-4957.620512404145,-5566.68421594282,-8699.794496722241,-7136.812432453046,-7849.597711596332,-8877.725146148889,-9034.910044108168,-8602.95090377348,-6424.540543358582,-8138.93518236099,-7483.026832927565,-8600.090910276627,-7518.121426199217,-5485.475055185576,-5312.208597264568,-6359.488862302465,-8761.390907788786,-5467.217524456085,-7637.934513371887,-5076.190945443402,-8737.381313166583,-9072.135635578581,-5750.135501092781,-8153.878811905907,-8775.728616402354,-5533.350337712323,-8225.306083246594,-7857.297598692353,-8623.811804488283,-8501.070520381088,-7923.166414087504,-4670.136736826653,-6446.336322253265,-6751.175765504583,-5961.609196237488,-5924.347338821082,-7707.823710136295,-9023.8851920534,-8325.729468304204,-5966.26897503627,-7911.257177737624,-8847.421065519573,-8297.36646064206,-6554.929493479595,-7774.799950122995,-8893.130415682434,-4985.130275013191,-8119.450060664164,-5528.671092649574,-10238.269756221562,-7746.242743907159,-5424.067868254635,-5417.818506667568,-9605.76738650755,-5486.75344977397,-5948.399789282795,-5781.950582416007,-8016.060379315942,-5587.413014467435,-5558.810629502065,-7426.005217279664,-5002.5150592447335,-5222.199327443763,-10006.236063182192,-5428.547453335325,-9283.694724776075,-7594.6353000123145,-8519.002833748635,-7413.96877578262,-7447.628076922977,-8088.130770204171,-5555.634601298927,-7597.977951614243,-5717.25920953128,-8837.044454980853,-8640.709997151911,-6375.517181867777,-6502.451041250888,-5603.741698395142,-8813.83556596472,-8691.699456924716,-5540.56878679263,-6581.289394134066,-7639.656110431262,-5842.211233031463,-7983.86426548235,-5416.05766477302,-6107.017560334997,-7964.272047357127,-6525.755511335522,-5072.8625580328835,-4826.5006433789995,-5587.231176220803,-5161.7846723409875,-8432.425588698805,-7528.647440963681,-7672.749092526826,-7373.691842999217,-8630.514484963629,-8668.664706863228,-6219.633932260296,-7435.678164283779,-8621.292427500206,-7524.742650637494,-6425.600841272133,-5666.708985994267,-8803.618930757773,-8738.12453747377,-8273.586869905204,-7533.77504389108,-8847.565644365286,-5392.824902727239,-8687.384519299909,-10214.881821169689,-5455.6026186965355,-8102.929277454283,-8218.879622075101,-6471.350347916796,-6414.657492498281,-8539.006498847943,-5590.993393902287,-5421.663689524735,-5213.3078003540695,-8225.429694710918,-7186.49185534557,-5031.88870969699,-8111.64631835386,-7452.489741757231,-7588.0401541638375,-7854.545226599558,-5784.716706667007,-8537.462351102413,-5205.137486123822,-7397.220589552914,-7792.457964000559,-5515.541111707149,-8012.203873887957,-5495.331674793181,-9234.258324359767,-6987.8293440034495,-5165.6513792253345,-8817.17905279108,-9920.05339344134,-7356.354165849928,-5285.315193013727,-4943.13431947236,-5810.130086113451,-8085.856861876982,-8024.2903935515305,-8824.610953478865,-8154.771389846611,-6827.014704113765,-5666.666665054194,-8128.757862625612,-5989.422262540497,-8003.168123066772,-8706.324718449612,-4822.360922697152,-8351.308519278035,-5308.182681922122,-5013.615682854055,-8757.402260244224,-8028.389948261269,-8588.668949686364,-5453.259808364306,-5181.64673937709,-7543.289812114052,-8233.033143234252,-9279.26808234473,-7476.4077537569165,-8090.228555398526,-7879.760056825815,-7724.17014726564,-6113.669881907196,-6467.097963749076,-8328.626340265293,-10462.979200514448,-5321.712989671165,-7740.823929758767,-8196.033379642644,-8495.572106700554,-7735.234800478178,-9226.268294737341,-6309.66187610276,-4968.600647968599,-9522.903280044527,-6560.236120947926,-5438.234876367785,-8122.102466263307,-7744.567724555376,-7743.255770065399,-5086.93923067008,-4761.54040345055,-6621.781045907192,-6472.070840092842,-5428.49530013585,-6359.577436423177,-6587.798696642959,-5438.289467892613,-5138.866594409952,-5193.074287530744,-6498.27984596125,-5966.212209720192,-5888.031499950632,-8570.461252374851,-9191.95988563516,-8645.964165592071,-5786.789882865314,-8091.630008280082,-7715.918404235595,-5117.710651132026,-5115.219490382759,-9627.908358510049,-8280.429773697057,-5533.28347724209,-6348.565131253618,-6009.491400161551,-7608.998239820144,-5236.079635747461,-7604.55900348075,-7751.244262158788,-7285.665459027763,-7617.592782447264,-5782.2268051111005,-7771.636683839036,-6238.50376479932,-7751.54470902099,-6445.653374724434,-8249.497438111883,-5435.960482558389,-7725.371930159269,-8486.193897682286,-9372.236562039077,-8012.492895583495,-5828.282169413027,-9121.564552249929,-8178.974904420934,-7129.763990850413,-5226.411025441439,-8828.023091968249,-8504.929839515506,-8407.260188149676,-7524.884761841247,-7535.508489963891,-7877.8402192221465,-8007.417413956558,-8112.928844984407,-8035.397212977768,-8402.35558937062,-8581.113955327099,-6153.198215681747,-8983.45748801202,-10484.84745658583,-5953.43516519843,-7559.117714861585,-7156.0636244368225,-6634.6783219896115,-7320.895157750474,-5348.508153195134,-5829.008240075562,-7644.579057456392,-7689.721542860942,-8816.890935555517,-8069.4316823431,-7909.214529787979,-8411.308408623612,-8605.997487126027,-5969.58986248243,-8164.756137957387,-9107.222251424115,-5685.095376600274,-8348.53047769136,-5914.067869009053,-9314.485826007958,-7956.579031942082,-8558.558974894355,-9946.5054154709,-5889.672912268212,-6024.864479879902,-4961.786490533985,-5115.052129270044,-9152.459685506627,-6473.841178050833,-9349.682762029837,-7849.022420855167,-8661.336586288513,-4527.863843001332,-9219.658530231078,-9653.188133316695,-9112.427901553314,-9299.01545635873,-9184.792353756171,-6470.179824944748,-9777.470019392496,-10039.375412515687,-8602.593940140458,-5605.72488317966,-6572.812420474069,-7912.12462349996,-8516.928130530237,-9826.00834312326,-9085.287786256498,-7432.740049901894,-4915.695012606081,-8361.777787597519,-8882.628664729065,-9311.264473481378,-9661.13594669432,-4657.245712637075,-7903.77096258709,-9425.728401604181,-9855.789664417985,-9047.736726771493,-8474.320169185501,-7348.880901233108,-6873.867944326268,-9581.398773424275,-9290.882450074054,-8539.071290497053,-5762.7998970729905,-5236.348991074604,-9499.371364017927,-7754.700045505938,-5358.922580536387,-7526.3989486515065,-5761.41170147296,-9175.361237455663,-8021.853469076943,-7664.2510410070745,-5752.544581189923,-4697.292565964488,-7454.558298699915,-7818.6997970826305,-9680.67559777744,-8667.058575599884,-6512.954243200096,-4720.8557308125755,-8010.141178616715,-7924.375014289952,-7861.480293167471,-9091.029341004076,-5196.212378358228,-8305.39267159239,-7557.810731396372,-7740.130882562525,-5367.283172028199,-4778.971388179518,-9855.274368279437,-7814.43866741318,-9918.905949461596,-4983.90840411519,-8240.638778542776,-7184.905557598045,-9420.974082106783,-7186.54007604973,-5548.8841536039545,-7255.606583908818,-5694.166414814654,-5594.739012537111,-7324.669871948773,-5551.401866820552,-9065.67891439434,-7898.388748278782,-6859.55464311559,-7938.659374534505,-10291.503900991993,-7140.179977879097,-7136.868529950669,-7262.7614103356245,-8381.421504160038,-10053.108092343005,-7196.744778144605,-5154.187384761227,-7551.989899848686,-7442.537018114179,-7291.103912969823,-7100.425199730937,-5082.623243254898,-6729.716815066957,-7824.023194536644,-8258.208420717556,-7291.536282997746,-8378.588738910852,-5092.549153175609,-8357.841319518635,-7973.874255421178,-9684.363959581402,-8285.513869773296,-7569.70548150618,-8446.14933291539,-7410.76563763085,-7096.663032757863,-7793.618124893652,-8019.766082604178,-7439.788270948778,-9162.631405552906,-6422.641039341277,-8059.701733340981,-5552.026923203434,-9579.397238947524,-7083.717643823611,-7931.0454282038245,-6638.467927631261,-8243.19937991445,-8088.530111173193,-5277.629799060509,-7987.4869490186575,-6988.586299301565,-7913.02369945776,-6820.134028837604,-8153.434034087489,-8570.93795177767,-7967.229655399922,-8055.50516412496,-7387.416371007497,-7209.348563765931,-7437.402626335852,-7767.908092932532,-7248.674477979936,-8370.089401615533,-8387.558227006164,-9872.247769977219,-7572.914448411056,-8429.573818101813,-5466.386801587564,-9868.525460780795,-8615.98822543222,-5459.141439978063,-8528.927484958562,-7661.382980057854,-8415.0193914332,-8576.193785043408,-8630.219511082852,-8064.618563033319,-8239.8130664126,-7718.012585396826,-8339.24689890579,-7109.3796011641125,-5862.897767557481,-7704.168205788816,-7329.959862032656,-8187.865573609064,-8308.06446286544,-7834.032103623871,-6295.325507901669,-8172.500363561875,-5680.98992325854,-5834.809943311201,-7177.376359636068,-7229.962125278508,-5690.57688312554,-6996.204916189238,-7917.0079115129765,-6803.074044221088,-9099.100985694602,-5738.986260704056,-8276.015454069697,-6675.567869568011,-8183.273659677439,-5602.1802374191875,-5751.001583906559,-8410.490202132112,-8119.4462325813965,-8600.999568521216,-8226.167170092986,-5624.379054786156,-7354.2705941790655,-6830.553263440638,-8540.124934408628,-7140.3686160598,-7693.539631827512,-5150.940829310677,-7303.808800916209,-8180.102677601678,-8524.977360996674,-7450.428370771525,-8792.747407097888,-7888.388409682961,-8197.136552101263,-9238.68555687241,-8244.032209436933,-8977.30316054078,-7975.0361916201055,-8300.435379102015,-8207.381540664306,-6046.136224683072,-6098.9046214024165,-8693.339858578092,-7900.125721247772,-5771.043293803052,-7335.782444721203,-7987.102481381042,-8792.102250792002,-6529.520883253164,-5228.699567996004,-7183.5919973688015,-8786.79245579005,-9385.607606942309,-7188.481997697876,-5295.084412082631,-8958.231927158695,-9368.512901656291,-7005.636248996721,-6940.844131920378,-7913.762854184909,-8932.2945388722,-7993.142352543321,-7563.272796109096,-8746.743500178101,-6806.240801957203,-8709.430624103165,-7578.727081462792,-8054.471511487245,-5295.859331472147,-6900.968694495473,-8404.286282045941,-8482.558081086767,-5357.931307274178,-8654.37663609901,-8036.997499804076,-8506.69966617216,-8078.871829169046,-8388.735899699377,-8008.195678154389,-7795.31459404307,-7690.701330717706,-7054.259487644834,-7876.855566245893,-8646.67657190314,-8270.3533831481,-5488.033796360525,-8049.160917478497,-8896.625871163109,-4658.370781783215,-8291.236868439704,-8962.066120692682,-9996.093272495647,-8613.349318729395,-5090.200431278152,-7187.923918631375,-8795.857457928098,-8912.857796000442,-8476.807444041622,-5572.802966862037,-7610.219340691094,-7866.855472052869,-6536.027732787896,-6532.0625548410435,-6612.736571226085,-5295.345015850726,-8507.606035431823,-6467.643979872236,-7735.380884872993,-7437.930967995135,-7869.185190305502,-9319.294940557686,-8337.237051884813,-7439.379047143394,-8706.802246467065,-8036.462094555579,-6744.814982426601,-8176.670827859864,-5165.602288730334,-8894.792765027702,-7007.012851861107,-6153.211328804283,-8784.656777922515,-8585.396517983465,-6468.976887852577,-6368.537200130386,-8128.414526513055,-5051.550081081143,-7899.172184936246,-7835.993994279839,-8138.444569529081,-6468.681580491567,-5058.76996638943,-7467.028040743816,-7982.980562396067,-8375.281739050253,-9167.896476954582,-5519.534106218111,-8458.855057794046,-5078.699337284283,-5222.753188683909,-4997.864015268966,-6990.433677497902,-8790.072727771982,-6506.675937093722,-5457.6765701040895,-6133.748757818602,-8589.666326989798,-8654.166657107891,-5225.495463304044,-5123.268008856029,-7850.773030260339,-7496.63182901226,-6860.443458393783,-5555.790957799356,-7361.156433461527,-7835.366163778225,-8706.45239554351,-5565.890271009197,-7047.003685700071,-9474.314547085676,-8726.898211696825,-8330.441305818551,-5463.722017643943,-5420.574657378407,-6460.355128332908,-8551.218827710883,-9165.123548443611,-8161.4709452966135,-5573.456275726647,-7311.842167919712,-8727.272490593923,-7580.406598726107,-7306.331800724585,-7651.071942316814,-7320.270568333671,-6350.018710634372,-8341.221949338082,-8095.686984375614,-9192.102782013579,-5754.934644233497,-5419.620908632282,-9042.48566893728,-8154.933415378547,-8245.080803036775,-4964.695235575538,-5380.871588612432,-8245.798340402444,-9723.355105664557,-6168.627284683654,-5325.430683885417,-8697.84130619695,-7937.459141455643,-5176.770419450495,-5497.590339152812,-8893.700215108433,-8218.357425311784,-9076.358788487736,-7995.520455028895,-5075.861403673723,-8793.45923567862,-5959.794563706446,-4992.065957071028,-7250.155418044513,-8473.878349112778,-5620.417228422684,-5439.551619683909,-6586.979527761434,-5010.033326173405,-7363.462164973799,-6160.989458206598,-6042.930421711806,-5456.109133837735,-5681.106425342546,-7809.247510908066,-6138.921999365888,-8068.797421894629,-5894.43093194864,-6634.81219511422,-6008.605177124476,-8692.797084601621,-5274.911383341186,-8736.187635406406,-6592.094511385425,-7231.522201197114,-7993.249244854473,-6439.510462635826,-8266.530921036883
1,325.36180841426653,325.3616145568384,324.3605232322637,329.3659655207631,325.36162859459137,328.3649559366198,328.36504173289745,325.3615298141436,325.3615739301146,325.3615335994973,325.36151875047403,325.3615361989627,323.3592931790838,325.3615150328146,325.3616300141889,325.36157023629204,328.3651720983905,325.36161634894427,325.3615475279144,325.3615314322514,324.3604527636463,324.36042345492046,326.36265936592287,325.3615648266497,325.36154755933495,325.361574336606,325.3616080696843,325.36155249667456,325.3615405163183,325.3615477196429,325.36153038692044,324.36055047483035,324.36048137412644,328.3648712133626,325.36151940178115,324.36048077592915,325.3615726979745,327.36384605718865,328.3649866937645,327.3638182051669,325.36167930524175,328.364885135401,328.36498686689964,325.3615529524361,326.36264959999636,328.36502641800246,325.3615344971628,325.3615973383977,328.3648677099542,330.3672924240665,325.3617374551158,329.36599454300085,327.3637830611108,324.36047593513115,329.36615610204,323.35929974529586,327.3637737874881,325.36163008867715,324.3604168323808,327.36393798783666,328.36528504559783,328.3649213581063,325.3615238913919,325.3616787212063,324.36042549867335,325.36168951720737,328.36495546566925,325.36164074541335,325.3615204308621,327.36380434436006,325.3615370252113,324.3604689376504,325.36155968199813,328.3650940306169,325.3615409864001,328.3650846184239,325.36153659552537,325.3615223576372,325.3617034987073,325.3615482896175,326.3627201682868,325.3615991266951,324.3604458602139,330.3671497350684,328.3650066277411,324.3604504791018,325.3616330144134,325.36162460571734,325.36157548745365,325.36165093230267,325.36156023053,326.3626568727078,325.3617718904405,325.3615952154899,325.36161084548655,325.36175895603014,327.36388514845424,329.36599225210347,327.3637418143468,325.36162395684573,328.3649988034748,325.3615670078341,330.3676339467697,325.36158647623944,325.36166341721616,327.36382704720245,324.36050799738257,325.36151681924696,328.3650627380763,325.36164872327186,325.3616201375327,325.36156636105494,324.3604226604075,325.3616867347603,329.36599723393715,326.3626474613361,326.3627170109858,327.36376173495955,327.36385054722,325.36155431559627,325.36151371524846,324.3604551786934,327.36381058505447,325.3615146782214,325.3615153877675,325.36157080689935,326.36269439406595,325.3615701007293,325.3615945913527,330.36716862729014,325.36161300930826,328.36503560965406,323.3593141341927,325.3615320732301,327.3637876871303,328.3649198143252,323.3593752014134,328.3649117864519,327.36379916664697,327.3639051050301,325.3615727754713,328.3648637466127,328.36488442794416,325.36152921059363,328.3650404635085,329.3663572323343,323.359291143084,327.36375202882635,324.3604601253571,325.36159903572224,325.36177413036665,325.3616433950238,325.36162700719564,325.36154024916726,327.3637416271919,325.36157374478483,327.3637535694981,325.36160718271066,325.3615220740311,326.3627713254731,326.362664301617,328.3649243699401,325.3615558121488,325.3616042895122,327.3637385987664,326.3626367047345,325.3616921303278,327.3638464731629,325.3616566980607,327.36386913316085,327.36383779951507,325.3615385795786,326.3626665524013,328.364933518459,329.3659808481996,328.3649571389371,329.3661867099663,325.36154203780615,325.3615363010721,325.3615255264916,326.36265216466006,325.3616276927263,325.3615880594791,326.36273204420735,325.36152914685,324.3604366254516,325.3615492194212,326.36272361369515,327.3638529555845,325.36164919900546,325.3615434272324,324.3604029965099,325.3615777121241,325.36157912192,328.36486157026934,324.36041865877814,324.360566208958,328.364927404472,325.3616588769635,324.3605949860647,326.3626774140454,326.3626769397389,324.360415701384,327.36388278526016,327.36374753911826,329.36600184345065,325.36178831377555,325.36152935003724,328.36495741568666,325.36153443704177,325.3617644382823,325.36156196098494,325.36154884990333,327.3637465139634,325.36159450343064,328.36485693728054,325.3615305008326,325.36152249061473,328.36515319162345,325.3615646428214,328.3651003680806,324.3604198265594,325.3615204783219,329.3659671395843,325.36176960506015,323.35929584240836,325.3615480952751,327.3637640578185,329.3664667767493,327.3637700021807,325.3615266826255,324.360406620881,324.3604318053405,325.3615989540831,326.3626364649473,327.3637602767516,325.3615432307116,327.3638186163446,325.3615917528341,324.36040435603843,329.36621149490196,325.36165928829485,329.36620955076467,329.36613302530617,324.3604674857857,325.3615702121517,324.36041240397907,327.36408243658013,328.36491362662326,325.36171053126253,325.36156594366463,323.35928912668084,325.3615240617488,324.3604053942499,325.36177505006077,325.3615246808432,327.3638869465119,326.3627831542233,325.36158140998845,323.3592958937845,327.36375780257157,325.36152340652006,325.3616914410285,324.3604276464544,325.36162655811,323.3592890971788,325.36156419509,328.36490867195437,324.3604065622363,326.36278477094896,327.36388230244273,324.360401761886,325.3615176186075,325.36154177972253,328.36497260042097,329.3660071441511,326.3627026694926,326.36277546565043,327.3638349979697,326.36266143115523,326.3626823417698,327.36393065799945,328.3650753420921,329.36598331925103,326.3627181891583,327.363809064343,327.3637614432631,324.3604123345154,324.36043399637964,325.36165495147554,327.3638584744331,325.36154316100965,324.36041588654365,328.36505603029656,329.3661362853198,323.3593141958744,324.3604276578749,327.3637435502917,326.36265304768085,327.363749607581,325.3615349339974,328.3650204818357,325.36154483733065,325.36151917693326,325.3615643577133,325.36162290057126,327.3639450077498,325.36158546057857,326.36266882297724,325.36154209293915,326.3627986316798,325.3616983996756,327.36377673592904,325.3615248074097,324.3604721138962,324.36049036703355,325.36152604861337,326.36278888256203,324.3605016023609,324.36044542649796,326.3627953491449,327.3638479604573,324.3604665271721,324.36042540747343,324.36042659620665,325.36159232975905,325.36160334121394,325.361631443069,325.36165109314015,325.361558057674,325.36154987206345,325.36164308877375,324.3604061620335,326.36272652952675,324.3604146521889,323.35931594411835,327.3637515033526,325.3615304830845,325.36155505942685,326.36272296405167,326.3627842996902,327.3640244556536,327.3637473002446,325.36152195648486,325.36156851494843,324.36041899680924,325.3615183674114,325.36160555169477,324.3604259355579,324.3604640346626,327.36383038437464,324.3604035248811,324.36048749632454,326.36264396657816,325.36151471614244,327.3637837365597,324.36048875826856,325.3615901575284,324.36045317281594,323.35929539330147,327.36377513992517,326.3627598848817,329.36604914601924,328.36490941195086,324.36040629982557,326.3626663638669,324.36044587961476,325.36153655135007,324.36042160357755,329.36600243417206,324.3604668022744,323.35937078040007,324.36041225583676,323.35953361165383,323.3593392734747,326.3626528162313,324.3605191047457,323.35929376847514,324.36042225151294,327.363808832967,327.3638391386761,325.36163138787765,324.3604074044246,323.3593091586276,324.3604192096895,325.36151744731126,328.3649436391676,324.36045203896396,324.36040396569865,324.36047973916885,323.3593060609823,329.3664578308121,325.3615592818636,324.3604432002536,323.35930886971306,324.36046331404594,324.36047138782334,325.36151918001417,325.36159056095744,323.35931197801864,324.36041897539536,324.36042203127676,327.3637437062676,327.36392774358325,324.3604929491725,325.3615516968664,327.36402063349846,325.3615359508524,327.3638360158649,324.3605180724794,325.36151893246347,325.3615149473234,326.36263666717963,328.36513482614424,325.3615290624409,325.36154318503486,323.3593155446718,324.36040920858693,325.3615494712889,329.3660699143556,325.3615595744899,325.3615156603191,325.3615170144741,324.36046716324864,327.36386955832086,324.3604194025496,325.3615131956694,325.3615204858432,327.36374026517564,329.36608016573246,323.3592988128377,325.36156437548095,323.35932024645115,328.36495239282226,325.36159115417956,326.36264503071123,324.3604933307536,325.361575779343,328.36499266678067,326.3626365562485,328.36509333488425,328.36504691430724,325.36157398764874,328.36486616159766,325.36157261812764,325.36153407981146,326.36263186270924,325.36153954910117,323.3593296000913,326.3628298918352,326.3626557262634,325.36153004733274,325.36151507181387,324.36049367487465,326.3626606301661,329.3661862603745,325.3615165007488,325.3615178161624,326.36265319870006,326.36266426144977,330.36709270120616,326.3626320236401,325.3615487350749,325.36161260077284,326.3627084974491,325.36151514892305,329.36606646750516,325.361558121043,325.36154642377124,324.3604467264627,325.36159896174973,325.36154970223555,325.36153592057525,326.36263398076795,326.36267998339486,325.3615316697399,325.36154685830115,326.36278042644426,325.3616860155825,326.36263125129517,325.3615875172038,328.3649465112624,324.3605740043033,326.3626292108749,325.36152893047273,326.3626769957251,325.36161504351395,325.3615182518012,329.3664874801782,325.36152840728954,326.36264215307125,325.36152692330825,326.3626309073733,325.3615261330094,324.3604142516378,325.36152366767453,325.3615180614407,326.36263810367126,326.36265195597224,326.36276265029255,325.36154523316355,325.3616098477652,325.36152893735493,325.36152053250345,323.35938517300605,325.3615241720536,324.36043269233915,328.3651251119171,324.36056548113237,324.3604190975179,328.36488777957703,324.3604029775963,325.36153827237416,325.36157704925546,325.36154911993174,324.3604073381681,325.3615210066895,325.3615448045053,325.36166041486706,325.3615273437644,326.3627181591032,327.36397423202567,325.3615299090996,325.36152393489664,325.36155950424677,325.36153227992725,325.36155741837393,326.3628340288404,325.36163804371245,328.3648886117956,326.36273713992404,326.36263339990256,326.36265419484744,327.3639401865842,326.3626529233266,324.36058913297984,326.3626760688101,324.36045300135424,327.36374757520724,325.3615174490062,326.36264242223,324.36043148688026,328.36490346235996,327.36382231808,324.36040633263855,325.3615284107931,325.36155738942847,325.36155705951694,328.36485595353366,325.3616134273868,326.36302122981465,325.36156920912305,326.36280656787625,325.36153178094054,329.36602899919865,326.36271759246677,325.36152047900447,324.3604433433,325.3615627561823,324.360416891214,325.36153076478195,325.3616004873456,324.3605018394301,325.36153517842257,324.3604900963182,325.3615310171811,325.36151672461864,325.361543246969,326.3626391890606,327.36381467039314,324.3604607991781,325.36152948566047,327.36376715671696,325.3615466004988,325.3615512828701,324.36043083299603,326.3626389971608,328.3649164878283,325.36151373969983,324.36042375369874,324.3604486742894,325.36156586468525,328.36492173923205,324.3604361967313,324.36043895472386,326.36268544915936,325.3615260758641,325.3615133591005,324.3604410106624,325.36156530754437,325.3615248348619,324.3604622393346,326.36270293004804,324.3604510294387,325.36154970626194,325.3615864695086,328.36489054972,326.36267481311626,324.36043242278174,324.3604603244402,328.36498072377907,324.36043934763654,326.36297687293757,325.3615715272846,325.3615632556197,325.3615980200075,325.36154261083215,326.3627344997197,325.3615340985571,327.3637574167359,326.3627338766832,324.36053722896776,325.3615789677545,327.3637948319305,325.361521727851,323.35931225608397,330.36736260746443,324.3604082647557,324.36041117077815,323.3593115802936,324.36041184206135,329.3660551018254,325.3616082597671,324.3604448897853,324.3604073080134,324.36050246401874,328.36515288908373,325.361636616827,325.3615582441958,326.36265266168687,326.3627383968873,325.36164390107064,328.36498765944225,324.3604546571193,326.36266173301226,325.36164113810406,326.36268806732,325.361530378399,324.3605057769577,324.36052029974263,325.3615167915538,324.36043687618366,325.36156878458496,326.36276128194515,324.3604043796074,327.36386315016637,324.36048237222224,325.36161557048626,327.3637405135686,324.3604048625755,324.3604270494096,326.36267381755397,326.36264629237735,324.3604062687154,327.3638383218185,325.3615624063478,324.36043786958527,325.3615615654302,326.3627458795534,329.3661051077781,325.36161913435933,325.361565058006,324.36043733258543,323.35929758625326,327.36403098779414,325.36161542174636,329.36615851773445,327.36383974327777,329.36606227059417,326.362713024672,324.3604707333302,326.36265996088304,327.3638500777158,326.36296751163036,325.3615188908746,324.3604084097382,328.3649319215738,328.3650744999437,325.3616353108324,326.3626306558274,325.3615300481674,327.3637599905442,326.3626300410128,325.3615469927758,324.3604356046183,327.3637442648179,325.361516260186,323.3593040369,324.36040231533445,324.3604267441607,327.3638162505306,327.3637946589717,326.3626872214541,324.3604649715626,324.3604134970619,325.36153981696623,328.3649930815638,326.36289023880596,324.3604479471998,326.36268352503345,325.361550442699,325.36151437723396,325.3615223681475,326.3626717977192,324.3604382569112,325.36151426256316,324.36045913039993,328.36513366803536,327.363982171857,323.35930023305946,325.36152830423754,324.3604054010051,329.3663203840028,327.36378902432307,324.3604116799551,323.359308918897,327.36379009329545,327.36378154256465,324.3604204490324,324.3604010187455,328.3649037305556,327.3638812043232,324.3604755879992,325.36154620716604,324.3604307479407,325.3618033282612,329.36599996904846,324.3605084689198,327.3639077330944,329.3664942846452,325.3615404487907,324.36043004875216,327.3637535496933,327.36391230545047,325.3615343421397,329.36603864250986,325.3615183374976,326.36280875882886,326.3626737753214,328.3649316258884,327.36396327548965,325.3616134163811,327.3642321504907,325.3615217964331,326.3626869684885,325.36180084673595,327.3638632074466,324.36041752058316,328.3648842670038,324.36044027293036,326.36265554768227,325.36152861984414,325.3615421442134,327.3637905493412,325.3615841439449
2,-0.006227692632226085,-0.008688049360838198,-0.010067548992003284,-0.004028735956416499,-0.0065488182691392045,-0.004290604401020338,-0.004465010963016088,-0.006631090818227389,-0.006698315104666343,-0.008305682718903338,-0.009141074028100573,-0.006565394983342446,-0.009364257693499354,-0.007173592497371945,-0.008226170404895827,-0.00686870574741143,-0.004345684945602981,-0.007043204887783395,-0.008411370256987065,-0.006427035976287096,-0.00925778569294047,-0.008847718231314725,-0.005963509427535998,-0.007295917334935308,-0.00659317933352535,-0.007792344020397726,-0.008008685400516925,-0.00728191024008406,-0.007038253282700514,-0.0069445445887308405,-0.006791426513798419,-0.007759195226121936,-0.00946427056260825,-0.003971285766094049,-0.006630213444353303,-0.009611805895560497,-0.008374427616599551,-0.004139725383305068,-0.004240640674199803,-0.005807222581813437,-0.008319965633015474,-0.00395718868005971,-0.0040152522956492485,-0.007424157844569712,-0.004889184013877941,-0.0038685085509819884,-0.0060647961176516114,-0.00880345912855229,-0.004823081935474419,-0.0043538406474196625,-0.007878041016520187,-0.0038933109671851498,-0.004384313645044844,-0.008481787401328982,-0.004409810911471312,-0.00927952538935815,-0.004411464331038814,-0.006689781543816807,-0.007922956405698846,-0.0051909733076293246,-0.004286803332654817,-0.00453474430787754,-0.008128163947519883,-0.0076033950332216925,-0.008295100440383098,-0.008252263673062098,-0.004184772431201273,-0.00826083844799028,-0.007431177181954972,-0.004399370816460105,-0.006979376833024594,-0.007781463823689502,-0.007699475181210186,-0.004147847792168595,-0.006336240876323693,-0.0045280173075021996,-0.007070447466910426,-0.006579824721019946,-0.008160487439061214,-0.006760005082045192,-0.005586613493454808,-0.008285060272664721,-0.007589208343032491,-0.00423806750529877,-0.004376182210345417,-0.007770444491100387,-0.006471445865624568,-0.007456214430341222,-0.008520364779596792,-0.008232635697294752,-0.008066991781116922,-0.005683667772889172,-0.0082383455821881,-0.007291692602778536,-0.008043965670916657,-0.0070053843062676405,-0.004589038505711148,-0.0043271077165616435,-0.005005969344641896,-0.007533288569242179,-0.004393842579334636,-0.007190752830724039,-0.004206974305776108,-0.00812843351937944,-0.008631737954760122,-0.0054062929287225225,-0.008063323165890816,-0.008042961029736666,-0.004063591848387183,-0.008633337369102911,-0.00760607337829527,-0.00787217998119698,-0.007963227984677286,-0.0072891921279141176,-0.004423070252886336,-0.005670098637694294,-0.005788499425347398,-0.00506095385941184,-0.005432923941798176,-0.006761044281988065,-0.008195196783171871,-0.0084122546578916,-0.005354271241452682,-0.006529343619354403,-0.008635755890526103,-0.00853624237633809,-0.005767552965277086,-0.0070630474044631264,-0.007953189915518638,-0.004176986864342715,-0.0074136856555312375,-0.0043196619206075215,-0.009501001642639754,-0.007435714816564006,-0.004686388798047769,-0.004340548799703108,-0.00980960482073251,-0.004298018873244147,-0.004174044462106095,-0.004529258142601986,-0.007979433657836849,-0.004253607955860856,-0.004289230201770458,-0.007442052612973646,-0.00407288753343075,-0.004036405663709306,-0.01019062981501299,-0.004569727236827473,-0.00932319339240838,-0.00694875377101751,-0.008395608881275825,-0.007232918884791268,-0.0075161145123924696,-0.007553990557858148,-0.00440401711638332,-0.007019619583256365,-0.00489256820047509,-0.008401899577745129,-0.008363754133644093,-0.00562728861339171,-0.006160981917697681,-0.004270906907215151,-0.008103358879357916,-0.008307536330149454,-0.004714594235565516,-0.00592751984396423,-0.007284053169189515,-0.004535377075404057,-0.00764336448987076,-0.0050159323174755474,-0.005372978976930949,-0.007562892098428747,-0.0056053694070508295,-0.004701622420639062,-0.004277745858617052,-0.004210033415529239,-0.004342854884443836,-0.007430911292350678,-0.007194645498573524,-0.006678217008667891,-0.005848782319581742,-0.008233850358971775,-0.008493585166321758,-0.0058372990420355,-0.007365963766565869,-0.008613742543488026,-0.00740449362765154,-0.005996200018134557,-0.004861169593908042,-0.008249860439378708,-0.008342112378952722,-0.008628777668153096,-0.0067540331368062725,-0.008392491063357809,-0.004303117619858015,-0.009350988081465375,-0.009481475136455671,-0.004083127520689222,-0.008916066157502393,-0.008518888167661626,-0.005613988299259231,-0.00536677329583945,-0.00826398401059001,-0.004753734064706452,-0.004903530536654019,-0.0043456437123475695,-0.008398223783772581,-0.006760071481721154,-0.004417234483042217,-0.006866586797310534,-0.007312379141501958,-0.006914279038543479,-0.00790935452961529,-0.004470077305828909,-0.008850527327225534,-0.004673923139419941,-0.007346390474712192,-0.006368305416595663,-0.0043685761433114876,-0.0066218609256522825,-0.004065407581519085,-0.009123020586860056,-0.006688602426957739,-0.004273415490972172,-0.007949735549167228,-0.009834268153991025,-0.007750097188575177,-0.005026202497302846,-0.004467761343266417,-0.004329467790916512,-0.006739339717518608,-0.007603235136755647,-0.008772683125648538,-0.007512084915943809,-0.00526271759741121,-0.004346504966897985,-0.007735831751046985,-0.005456342515105175,-0.00788897241869476,-0.009896191220119767,-0.004336997246229911,-0.008329678482926898,-0.0043097271998742605,-0.004538728113546048,-0.00943645905887626,-0.006719843103829131,-0.008301907223746855,-0.00532304508080737,-0.004993639398651818,-0.007563001023177727,-0.006689022750796783,-0.010649341998653973,-0.007210514480771084,-0.007657971767808844,-0.007680785454752473,-0.007085834728332095,-0.006669114235046785,-0.005568915812085609,-0.007510822266205387,-0.010106952300322323,-0.004516081569888483,-0.00684462879283126,-0.00801155758261462,-0.00765379258982986,-0.007593347235499949,-0.010537496819589185,-0.007133694734674489,-0.004505272171724092,-0.008611552368759556,-0.005425736730521185,-0.005177837703866526,-0.007801826138765526,-0.0067928255067528035,-0.007788383370762467,-0.004955974417538948,-0.004438860943989209,-0.0056754281063083846,-0.005955949596515715,-0.004659181312014819,-0.005802666139593442,-0.005734129657371866,-0.005379469594811561,-0.004567443323652781,-0.004259857252031517,-0.004950587231166652,-0.005012554676850875,-0.0050010520219973655,-0.00935960626814286,-0.008608774480423381,-0.007587603084600909,-0.004355328411147118,-0.007507569038746316,-0.008224820165081364,-0.004569765222265817,-0.004179791058574186,-0.00971689711283631,-0.007752404956674492,-0.004581506981709672,-0.005850656902373829,-0.00497463119428583,-0.006472849581256432,-0.004498390309750559,-0.007034469190109936,-0.007852462932916447,-0.006501448770532466,-0.006502391181000799,-0.004321707467669216,-0.0070991647445572004,-0.005687966740503773,-0.007191489192895207,-0.005771814387166123,-0.008034005052048602,-0.005282211127137932,-0.006853857290165666,-0.007640326672177572,-0.008617743931412809,-0.007399608283609998,-0.005367976715362402,-0.009626528581176543,-0.007783384580482749,-0.006831422601680373,-0.005115555411821328,-0.010111435716466048,-0.0075680049869309,-0.00790401493086436,-0.006646952331412104,-0.006536379277611023,-0.007059374305759535,-0.007591426150915021,-0.007224646772105277,-0.006472557733924266,-0.006678493157071656,-0.00810874197273773,-0.006572580324970052,-0.009441845983040709,-0.009978108489286043,-0.004942738899722964,-0.0070336863922017216,-0.006798793309604926,-0.005869698178044217,-0.006390334662028141,-0.005043666237577761,-0.005147283655327382,-0.006850055601638775,-0.00613475456481704,-0.008602191719957917,-0.007364745835761033,-0.007508351426325953,-0.008260079571523882,-0.007546486962304592,-0.005001083527340269,-0.008141584785229234,-0.008989069887362096,-0.0053123357281285675,-0.0069842694532979335,-0.004538566895005438,-0.008606509083574113,-0.007027173223618417,-0.0075787250037337986,-0.009938302188852688,-0.005045458537922201,-0.006688207402840484,-0.004312684217864346,-0.004406560866843359,-0.009850794218505628,-0.006088780464415492,-0.008600948597839171,-0.007100973741475303,-0.007996578351057103,-0.004570319673177629,-0.008950227202746944,-0.009578445706922394,-0.008915437230760737,-0.010235772834473626,-0.010166418672155364,-0.005971223318340725,-0.009354559088757796,-0.009672935716615729,-0.008895359513348352,-0.005628590486844682,-0.005943365391685499,-0.007026204011961803,-0.00779759073740919,-0.010123489805281046,-0.009027106184589238,-0.007048865881981058,-0.00445041071423196,-0.0076666873715155815,-0.008072309446079229,-0.008708030238138258,-0.010897533493012411,-0.004523633881914431,-0.006974271508126885,-0.008875606597464886,-0.010211021430324032,-0.008919648535909857,-0.00790357216641546,-0.006947452039487391,-0.00644779024251932,-0.00988122843968755,-0.00879508057339794,-0.008226265762123701,-0.005545922596525298,-0.0051210222992459035,-0.008627497793437982,-0.006914649955463797,-0.0048130660056747996,-0.006439606366256375,-0.005401125337897572,-0.008901654003975672,-0.0070889902226243424,-0.0067733254164848876,-0.005200894889495382,-0.00465689285759213,-0.006683086578342373,-0.006602653305949781,-0.010172326602191778,-0.008988198337118,-0.006776179068787364,-0.004555797336925045,-0.0071025656188329084,-0.006835479529090396,-0.007134574534323537,-0.008902602518057332,-0.004629939493726655,-0.007638299564011858,-0.0067604418934898314,-0.007103005471709917,-0.004716476263611682,-0.004514337128709942,-0.010000833461656847,-0.006859901234323919,-0.010688782655204211,-0.004478102234011222,-0.007222354006543861,-0.006057118694884353,-0.009601635194336173,-0.00669274375178781,-0.004499271216057924,-0.005493216933963911,-0.004397978809321522,-0.0044454427618275776,-0.006642750105300883,-0.0043995398131722,-0.00877767092538831,-0.007724862970330722,-0.00625463592313402,-0.007342561395900502,-0.01061003286748247,-0.005693650245506451,-0.005885565282908273,-0.0065161358140842,-0.007495186550640706,-0.01053183051966524,-0.00598656156339457,-0.00449206571086851,-0.006896843715640417,-0.006734713063813421,-0.005898162295078774,-0.0056119358714756965,-0.004626782740668063,-0.006087919653126781,-0.007071551627135624,-0.00670912493058429,-0.005451119694502096,-0.007013067372928531,-0.004589788351566788,-0.0071835832064786635,-0.008128048803861518,-0.008786525496936507,-0.006837554838416053,-0.006835941659914653,-0.00735990557183589,-0.005996323522755198,-0.005533419012492144,-0.007360140769427975,-0.006841440253590556,-0.005660691505098514,-0.007767141316943653,-0.0050236707485332354,-0.008113942324515186,-0.004384805302717843,-0.008497452952088138,-0.0056328701022438105,-0.006624547986288366,-0.006157859938908511,-0.0071048854738734145,-0.00621808298618444,-0.004462341802863241,-0.007573427658061481,-0.0058653802139801425,-0.007414975532870528,-0.006190854587245762,-0.006925648045295001,-0.007894035035120596,-0.0068013041035251635,-0.007702266673801406,-0.006192866675234821,-0.005799804173090135,-0.005999244532634372,-0.0067739107264339115,-0.0064896388692224005,-0.007222022279041583,-0.007200510528447961,-0.01011461336022982,-0.006792715814462332,-0.00797509115011252,-0.004530725753190571,-0.00939503304816063,-0.007660521160019471,-0.004554009097828098,-0.008996848684216747,-0.007713939028097178,-0.007342865666009504,-0.007477301989818925,-0.008250663685286493,-0.006840357863988145,-0.007651742639802425,-0.007065561218065404,-0.006909993327171973,-0.006000798286602528,-0.00457192842185959,-0.007233309398501332,-0.006679918323393662,-0.00704266840104923,-0.008485195261195918,-0.006670056062962125,-0.00550952270600692,-0.008314546986307804,-0.004755295449366429,-0.005755559787146212,-0.005802528695566399,-0.006031479574471524,-0.004540074995801721,-0.006426334416329167,-0.008321347377686673,-0.006509747199967915,-0.008007991765169831,-0.0045545924064119446,-0.007373883199601981,-0.006506550554300353,-0.007920900177715925,-0.004577905120914978,-0.004623237107058291,-0.008489479502278451,-0.007606307970697044,-0.007345273313549964,-0.006992029364660232,-0.004619015955436503,-0.008104626694679276,-0.006309412967482693,-0.007241305850268563,-0.00588235286559162,-0.007169687501727188,-0.004664689877667451,-0.006036522760336944,-0.007147436710261607,-0.008252499810914993,-0.007190400100106027,-0.007829058876395515,-0.006820008974352877,-0.007292867047310368,-0.009014432725352076,-0.008048701806848954,-0.008870735351330388,-0.006916595368042544,-0.007108104466275314,-0.007352072498447142,-0.005633931213627394,-0.004765211844868436,-0.008409715259065734,-0.007674358894094646,-0.00581205198354974,-0.0064567948784665105,-0.006647059142181143,-0.008216930985674411,-0.005429527075025195,-0.00502381485596791,-0.006407738035797648,-0.008211708019923556,-0.009293532536859725,-0.006780223045702396,-0.004694133836243654,-0.008058622850163321,-0.00887954656296861,-0.006584273318315149,-0.006589155892735075,-0.007352371996159375,-0.008232896111128638,-0.007418358991764096,-0.0071078699880965665,-0.009375390030058954,-0.006544938890744371,-0.007936831486141733,-0.007177326140918604,-0.007376736797864702,-0.004728805326904265,-0.006440493770737732,-0.008003486450533575,-0.007724111410407452,-0.005005362043570268,-0.008056804389800097,-0.007521171582932939,-0.006884973103010155,-0.0065162971133099195,-0.007283923686972099,-0.007623983781682656,-0.007353193662114325,-0.006945273578378337,-0.005387198319609609,-0.007478263431036005,-0.00782956087881577,-0.008511248879250206,-0.004812840408734502,-0.007432034028176407,-0.009735838489436275,-0.00470572656472341,-0.007493295530610343,-0.007886141976991093,-0.00981200808455815,-0.00809700640625985,-0.004755064477459762,-0.0065390793706565946,-0.00889395736101958,-0.00887070416137302,-0.008661780946745067,-0.005183225138688435,-0.006760307085882858,-0.007105360018640811,-0.00555305577872837,-0.005838224407956016,-0.007197106634662574,-0.0043043575878332335,-0.00876652938542617,-0.0058417654668661825,-0.007595357886820402,-0.008500255860535686,-0.007181865510804304,-0.00910342972473977,-0.008354280899434123,-0.006683589852400091,-0.008917715205383762,-0.0077350029739825365,-0.006463735721816847,-0.008121802013705695,-0.005107888182273073,-0.008505564930543998,-0.006626631126008137,-0.005286826975620733,-0.00976064137535973,-0.008552157001359889,-0.005641118775818371,-0.005630666374091863,-0.008631970231783605,-0.0052377780617470044,-0.0072272787603725516,-0.008080797420435049,-0.00740300067412116,-0.00576833442408733,-0.004747403566934715,-0.006447399154494785,-0.007251104713005533,-0.008689383725148091,-0.010809540746642579,-0.004778387744031292,-0.007508620524749152,-0.004711747240389922,-0.004378457496317101,-0.004746721147825483,-0.006650157846940559,-0.008494470933753665,-0.0055231606980291025,-0.004899632671785351,-0.005937270288112389,-0.007568407424381847,-0.0074675484499120695,-0.004842070810346531,-0.0047150163695831365,-0.007339134160695349,-0.007060075979781498,-0.007278731484948507,-0.005063689767097889,-0.006808019765733366,-0.006716037916731963,-0.008652377414668221,-0.004812503255358154,-0.006960431952941127,-0.01063982775339282,-0.007886659997349785,-0.008226757343156133,-0.004862957003409399,-0.004963593641432949,-0.0055612284467003075,-0.007832042675743802,-0.008213356947149099,-0.007820871144614784,-0.00520903356500546,-0.006939864547351515,-0.009149950112051958,-0.006944232130417916,-0.006205835402903014,-0.006989232651930311,-0.006492949856082327,-0.005551951620897519,-0.008076919659819527,-0.0074613251425211455,-0.0091150367700069,-0.005613791722006061,-0.004874586664534133,-0.010340386817376552,-0.0074858639246151585,-0.00817789655940869,-0.004819834962112049,-0.004481787365365932,-0.007657729578922614,-0.010725233655859206,-0.005693402396458264,-0.004387266040774374,-0.009091199265318407,-0.008003082795713467,-0.004796745054852748,-0.004895129367093783,-0.00851290530117374,-0.007546185463224348,-0.008826736473503178,-0.008552321414991113,-0.004749223171918196,-0.00858235522073924,-0.005668485176355431,-0.00481660330445655,-0.007155766508157977,-0.00819323266875761,-0.005096183237783271,-0.005372774403794574,-0.007250673964301513,-0.004754289325323652,-0.00636888158188112,-0.005859581126021296,-0.005419980412698092,-0.004237115223337748,-0.004819531064150993,-0.007195037578451655,-0.005981931243317263,-0.007682263412622602,-0.0055772575485628995,-0.007655857539300486,-0.0056450974290741225,-0.00809826362294399,-0.0048112945466577545,-0.008734487202339677,-0.005568883845890833,-0.0062823002014898805,-0.0070171634638223224,-0.005149629329830868,-0.00695541987309937
3,-13164169.376178127,-13164169.376178127,-13164169.376178129,-13164169.376178129,-13164169.37617813,-13164169.37617813,-13164169.376178132,-13164169.376178132,-13164169.376178134,-13164169.376178136,-13164169.376178136,-13164169.376178138,-13164169.376178138,-13164169.37617814,-13164169.37617814,-13164169.376178142,-13164169.376178144,-13164169.376178144,-13164169.376178145,-13164169.376178145,-13164169.376178147,-13164169.376178147,-13164169.37617815,-13164169.37617815,-13164169.376178151,-13164169.376178153,-13164169.376178153,-13164169.376178155,-13164169.376178155,-13164169.376178157,-13164169.376178157,-13164169.376178158,-13164169.376178158,-13164169.37617816,-13164169.376178162,-13164169.376178162,-13164169.376178164,-13164169.376178164,-13164169.376178166,-13164169.376178166,-13164169.376178168,-13164169.376178168,-13164169.37617817,-13164169.376178171,-13164169.376178171,-13164169.376178173,-13164169.376178173,-13164169.376178175,-13164169.376178175,-13164169.376178177,-13164169.376178179,-13164169.376178179,-13164169.37617818,-13164169.37617818,-13164169.376178183,-13164169.376178183,-13164169.376178185,-13164169.376178185,-13164169.376178186,-13164169.376178188,-13164169.376178188,-13164169.37617819,-13164169.37617819,-13164169.376178192,-13164169.376178192,-13164169.376178194,-13164169.376178194,-13164169.376178196,-13164169.376178198,-13164169.376178198,-13164169.3761782,-13164169.3761782,-13164169.376178201,-13164169.376178201,-13164169.376178203,-13164169.376178203,-13164169.376178205,-13164169.376178207,-13164169.376178207,-13164169.376178209,-13164169.376178209,-13164169.37617821,-13164169.37617821,-13164169.376178212,-13164169.376178212,-13164169.376178214,-13164169.376178216,-13164169.376178216,-13164169.376178218,-13164169.376178218,-13164169.37617822,-13164169.37617822,-13164169.376178222,-13164169.376178222,-13164169.376178224,-13164169.376178224,-13164169.376178226,-13164169.376178227,-13164169.376178227,-13164169.37617823,-13164169.37617823,-13164169.376178231,-13164169.376178231,-13164169.376178233,-13164169.376178233,-13164169.376178235,-13164169.376178237,-13164169.376178237,-13164169.376178239,-13164169.376178239,-13164169.37617824,-13164169.37617824,-13164169.376178242,-13164169.376178242,-13164169.376178244,-13164169.376178246,-13164169.376178246,-13164169.376178248,-13164169.376178248,-13164169.37617825,-13164169.37617825,-13164169.376178252,-13164169.376178252,-13164169.376178253,-13164169.376178255,-13164169.376178255,-13164169.376178257,-13164169.376178257,-13164169.376178259,-13164169.376178259,-13164169.37617826,-13164169.37617826,-13164169.376178263,-13164169.376178263,-13164169.376178265,-13164169.376178266,-13164169.376178266,-13164169.376178268,-13164169.376178268,-13164169.37617827,-13164169.37617827,-13164169.376178272,-13164169.376178272,-13164169.376178274,-13164169.376178274,-13164169.376178276,-13164169.376178278,-13164169.376178278,-13164169.37617828,-13164169.37617828,-13164169.376178281,-13164169.376178281,-13164169.376178283,-13164169.376178283,-13164169.376178285,-13164169.376178287,-13164169.376178287,-13164169.376178289,-13164169.376178289,-13164169.37617829,-13164169.37617829,-13164169.376178293,-13164169.376178293,-13164169.376178294,-13164169.376178294,-13164169.376178296,-13164169.376178298,-13164169.376178298,-13164169.3761783,-13164169.3761783,-13164169.376178302,-13164169.376178302,-13164169.376178304,-13164169.376178304,-13164169.376178306,-13164169.376178306,-13164169.376178307,-13164169.37617831,-13164169.37617831,-13164169.376178311,-13164169.376178311,-13164169.376178313,-13164169.376178313,-13164169.376178315,-13164169.376178315,-13164169.376178317,-13164169.376178317,-13164169.376178319,-13164169.37617832,-13164169.37617832,-13164169.376178322,-13164169.376178322,-13164169.376178324,-13164169.376178324,-13164169.376178326,-13164169.376178326,-13164169.376178328,-13164169.376178328,-13164169.37617833,-13164169.376178332,-13164169.376178332,-13164169.376178334,-13164169.376178334,-13164169.376178335,-13164169.376178335,-13164169.376178337,-13164169.376178337,-13164169.37617834,-13164169.37617834,-13164169.376178341,-13164169.376178341,-13164169.376178343,-13164169.376178345,-13164169.376178345,-13164169.376178347,-13164169.376178347,-13164169.376178348,-13164169.376178348,-13164169.37617835,-13164169.37617835,-13164169.376178352,-13164169.376178352,-13164169.376178354,-13164169.376178356,-13164169.376178356,-13164169.376178358,-13164169.376178358,-13164169.37617836,-13164169.37617836,-13164169.376178361,-13164169.376178361,-13164169.376178363,-13164169.376178363,-13164169.376178365,-13164169.376178365,-13164169.376178367,-13164169.376178369,-13164169.376178369,-13164169.37617837,-13164169.37617837,-13164169.376178373,-13164169.376178373,-13164169.376178375,-13164169.376178375,-13164169.376178376,-13164169.376178376,-13164169.376178378,-13164169.376178378,-13164169.37617838,-13164169.376178382,-13164169.376178382,-13164169.376178384,-13164169.376178384,-13164169.376178386,-13164169.376178386,-13164169.376178388,-13164169.376178388,-13164169.37617839,-13164169.37617839,-13164169.376178391,-13164169.376178391,-13164169.376178393,-13164169.376178395,-13164169.376178395,-13164169.376178397,-13164169.376178397,-13164169.376178399,-13164169.376178399,-13164169.3761784,-13164169.3761784,-13164169.376178402,-13164169.376178412,-13164169.376178404,-13164169.376178404,-13164169.376178406,-13164169.376178408,-13164169.376178408,-13164169.37617841,-13164169.37617841,-13164169.376178412,-13164169.376178412,-13164169.376178414,-13164169.376178414,-13164169.376178415,-13164169.376178415,-13164169.376178417,-13164169.376178417,-13164169.37617842,-13164169.376178421,-13164169.376178421,-13164169.376178423,-13164169.376178423,-13164169.376178425,-13164169.376178425,-13164169.376178427,-13164169.376178427,-13164169.376178429,-13164169.376178429,-13164169.37617843,-13164169.37617843,-13164169.376178432,-13164169.376178432,-13164169.376178434,-13164169.376178436,-13164169.376178436,-13164169.376178438,-13164169.376178438,-13164169.37617844,-13164169.37617844,-13164169.376178442,-13164169.376178442,-13164169.376178443,-13164169.376178443,-13164169.376178445,-13164169.376178445,-13164169.376178447,-13164169.376178447,-13164169.376178449,-13164169.37617845,-13164169.37617845,-13164169.376178453,-13164169.376178453,-13164169.376178455,-13164169.376178455,-13164169.376178456,-13164169.376178456,-13164169.376178458,-13164169.376178458,-13164169.37617846,-13164169.37617846,-13164169.376178462,-13164169.376178462,-13164169.376178464,-13164169.376178466,-13164169.376178466,-13164169.376178468,-13164169.376178468,-13164169.37617847,-13164169.37617847,-13164169.376178471,-13164169.376178471,-13164169.376178473,-13164169.376178473,-13164169.376178475,-13164169.376178475,-13164169.376178477,-13164169.376178477,-13164169.376178479,-13164169.376178479,-13164169.37617848,-13164169.376178483,-13164169.376178483,-13164169.376178484,-13164169.376178484,-13164169.376178486,-13164169.376178486,-13164169.376178488,-13164169.376178488,-13164169.37617849,-13164169.37617849,-13164169.376178492,-13164169.376178492,-13164169.376178494,-13164169.376178494,-13164169.376178496,-13164169.376178496,-13164169.376178497,-13164169.3761785,-13164169.3761785,-13164169.376178501,-13164169.376178501,-13164169.376178503,-13164169.376178503,-13164169.376178505,-13164169.376178505,-13164169.376178507,-13164169.376178507,-13164169.376178509,-13164169.376178509,-13164169.37617851,-13164169.37617851,-13164169.376178512,-13164169.376178512,-13164169.376178514,-13164169.376178514,-13164169.376178516,-13164169.376178518,-13164169.376178518,-13164169.37617852,-13164169.37617852,-13164169.376178522,-13164169.376178522,-13164169.376178524,-13164169.376178524,-13164169.376178525,-13164169.376178525,-13164169.376178527,-13164169.376178527,-13164169.37617853,-13164169.37617853,-13164169.376178531,-13164169.376178531,-13164169.376178533,-13164169.376178533,-13164169.376178535,-13164169.376178537,-13164169.376178537,-13164169.376178538,-13164169.376178538,-13164169.37617854,-13164169.37617854,-13164169.376178542,-13164169.376178542,-13164169.376178544,-13164169.376178544,-13164169.376178546,-13164169.376178546,-13164169.376178548,-13164169.376178548,-13164169.37617855,-13164169.37617855,-13164169.376178551,-13164169.376178551,-13164169.376178553,-13164169.376178553,-13164169.376178555,-13164169.376178557,-13164169.376178557,-13164169.376178559,-13164169.376178559,-13164169.37617856,-13164169.37617856,-13164169.376178563,-13164169.376178563,-13164169.376178565,-13164169.376178565,-13164169.376178566,-13164169.376178566,-13164169.376178568,-13164169.376178568,-13164169.37617857,-13164169.37617857,-13164169.376178572,-13164169.376178572,-13164169.376178574,-13164169.376178574,-13164169.376178576,-13164169.376178576,-13164169.376178578,-13164169.37617858,-13164169.37617858,-13164169.376178581,-13164169.376178581,-13164169.376178583,-13164169.376178583,-13164169.376178585,-13164169.376178585,-13164169.376178587,-13164169.376178587,-13164169.376178589,-13164169.376178589,-13164169.37617859,-13164169.37617859,-13164169.376178592,-13164169.376178592,-13164169.376178594,-13164169.376178594,-13164169.376178596,-13164169.376178596,-13164169.376178598,-13164169.376178598,-13164169.3761786,-13164169.3761786,-13164169.376178602,-13164169.376178604,-13164169.376178604,-13164169.376178605,-13164169.376178605,-13164169.376178607,-13164169.376178607,-13164169.37617861,-13164169.37617861,-13164169.376178611,-13164169.376178611,-13164169.376178613,-13164169.376178613,-13164169.376178615,-13164169.376178615,-13164169.376178617,-13164169.376178617,-13164169.376178619,-13164169.376178619,-13164169.37617862,-13164169.37617862,-13164169.376178622,-13164169.376178622,-13164169.376178624,-13164169.376178624,-13164169.376178626,-13164169.376178626,-13164169.376178628,-13164169.376178628,-13164169.37617863,-13164169.376178632,-13164169.376178632,-13164169.376178633,-13164169.376178633,-13164169.376178635,-13164169.376178635,-13164169.376178637,-13164169.376178637,-13164169.376178639,-13164169.376178639,-13164169.37617864,-13164169.37617864,-13164169.376178643,-13164169.376178643,-13164169.376178645,-13164169.376178645,-13164169.376178646,-13164169.376178646,-13164169.376178648,-13164169.376178648,-13164169.37617865,-13164169.37617865,-13164169.376178652,-13164169.376178652,-13164169.376178654,-13164169.376178654,-13164169.376178656,-13164169.376178656,-13164169.376178658,-13164169.376178658,-13164169.37617866,-13164169.37617866,-13164169.376178661,-13164169.376178663,-13164169.376178663,-13164169.376178665,-13164169.376178665,-13164169.376178667,-13164169.376178667,-13164169.376178669,-13164169.376178669,-13164169.37617867,-13164169.37617867,-13164169.376178673,-13164169.376178673,-13164169.376178674,-13164169.376178674,-13164169.376178676,-13164169.376178676,-13164169.376178678,-13164169.376178678,-13164169.37617868,-13164169.37617868,-13164169.376178682,-13164169.376178682,-13164169.376178684,-13164169.376178684,-13164169.376178686,-13164169.376178686,-13164169.376178687,-13164169.376178687,-13164169.37617869,-13164169.37617869,-13164169.376178691,-13164169.376178691,-13164169.376178693,-13164169.376178693,-13164169.376178695,-13164169.376178695,-13164169.376178697,-13164169.376178697,-13164169.376178699,-13164169.376178699,-13164169.3761787,-13164169.3761787,-13164169.376178702,-13164169.376178704,-13164169.376178704,-13164169.376178706,-13164169.376178706,-13164169.376178708,-13164169.376178708,-13164169.37617871,-13164169.37617871,-13164169.376178712,-13164169.376178712,-13164169.376178714,-13164169.376178714,-13164169.376178715,-13164169.376178715,-13164169.376178717,-13164169.376178717,-13164169.37617872,-13164169.37617872,-13164169.376178721,-13164169.376178721,-13164169.376178723,-13164169.376178723,-13164169.376178725,-13164169.376178725,-13164169.376178727,-13164169.376178727,-13164169.376178728,-13164169.376178728,-13164169.37617873,-13164169.37617873,-13164169.376178732,-13164169.376178732,-13164169.376178734,-13164169.376178734,-13164169.376178736,-13164169.376178736,-13164169.376178738,-13164169.376178738,-13164169.37617874,-13164169.37617874,-13164169.376178741,-13164169.376178741,-13164169.376178743,-13164169.376178743,-13164169.376178745,-13164169.376178745,-13164169.376178747,-13164169.376178747,-13164169.376178749,-13164169.376178749,-13164169.37617875,-13164169.37617875,-13164169.376178753,-13164169.376178753,-13164169.376178754,-13164169.376178754,-13164169.376178756,-13164169.376178756,-13164169.376178758,-13164169.376178758,-13164169.37617876,-13164169.37617876,-13164169.376178762,-13164169.376178762,-13164169.376178764,-13164169.376178764,-13164169.376178766,-13164169.376178766,-13164169.376178768,-13164169.376178768,-13164169.37617877,-13164169.37617877,-13164169.376178771,-13164169.376178771,-13164169.376178773,-13164169.376178775,-13164169.376178775,-13164169.376178777,-13164169.376178777,-13164169.376178779,-13164169.376178779,-13164169.37617878,-13164169.37617878,-13164169.376178782,-13164169.376178782,-13164169.376178784,-13164169.376178784,-13164169.376178786,-13164169.376178786,-13164169.376178788,-13164169.376178788,-13164169.37617879,-13164169.37617879,-13164169.376178792,-13164169.376178792,-13164169.376178794,-13164169.376178794,-13164169.376178795,-13164169.376178795,-13164169.376178797,-13164169.376178797,-13164169.3761788,-13164169.3761788,-13164169.376178801,-13164169.376178801,-13164169.376178803,-13164169.376178803,-13164169.376178805,-13164169.376178805,-13164169.376178807,-13164169.376178807,-13164169.376178809,-13164169.376178809,-13164169.37617881,-13164169.37617881,-13164169.376178812,-13164169.376178812,-13164169.376178814,-13164169.376178814,-13164169.376178816,-13164169.376178816,-13164169.376178818,-13164169.376178818,-13164169.37617882,-13164169.37617882,-13164169.376178822,-13164169.376178822,-13164169.376178823,-13164169.376178823,-13164169.376178825,-13164169.376178825,-13164169.376178827,-13164169.376178827,-13164169.376178829,-13164169.376178829,-13164169.37617883,-13164169.37617883,-13164169.376178833,-13164169.376178833,-13164169.376178835,-13164169.376178835,-13164169.376178836,-13164169.376178836,-13164169.376178838,-13164169.376178838,-13164169.37617884,-13164169.37617884,-13164169.376178842,-13164169.376178842,-13164169.376178844,-13164169.376178844,-13164169.376178846,-13164169.376178846,-13164169.376178848,-13164169.376178848,-13164169.37617885,-13164169.37617885,-13164169.376178851,-13164169.376178851,-13164169.376178853,-13164169.376178853,-13164169.376178855,-13164169.376178855,-13164169.376178855,-13164169.376178857,-13164169.376178857,-13164169.376178859,-13164169.376178859,-13164169.37617886,-13164169.37617886,-13164169.376178863,-13164169.376178863,-13164169.376178864,-13164169.376178864,-13164169.376178866,-13164169.376178866
