,0,1,2,3,4,5,6,7,8,9,10,11,12,13,14,15,16,17,18,19,20,21,22,23,24,25,26,27,28,29,30,31,32,33,34,35,36,37,38,39,40,41,42,43,44,45,46,47,48,49,50,51,52,53,54,55,56,57,58,59,60,61,62,63,64,65,66,67,68,69,70,71,72,73,74,75,76,77,78,79,80,81,82,83,84,85,86,87,88,89,90,91,92,93,94,95,96,97,98,99,100,101,102,103,104,105,106,107,108,109,110,111,112,113,114,115,116,117,118,119,120,121,122,123,124,125,126,127,128,129,130,131,132,133,134,135,136,137,138,139,140,141,142,143,144,145,146,147,148,149,150,151,152,153,154,155,156,157,158,159,160,161,162,163,164,165,166,167,168,169,170,171,172,173,174,175,176,177,178,179,180,181,182,183,184,185,186,187,188,189,190,191,192,193,194,195,196,197,198,199,200,201,202,203,204,205,206,207,208,209,210,211,212,213,214,215,216,217,218,219,220,221,222,223,224,225,226,227,228,229,230,231,232,233,234,235,236,237,238,239,240,241,242,243,244,245,246,247,248,249,250,251,252,253,254,255,256,257,258,259,260,261,262,263,264,265,266,267,268,269,270,271,272,273,274,275,276,277,278,279,280,281,282,283,284,285,286,287,288,289,290,291,292,293,294,295,296,297,298,299,300,301,302,303,304,305,306,307,308,309,310,311,312,313,314,315,316,317,318,319,320,321,322,323,324,325,326,327,328,329,330,331,332,333,334,335,336,337,338,339,340,341,342,343,344,345,346,347,348,349,350,351,352,353,354,355,356,357,358,359,360,361,362,363,364,365,366,367,368,369,370,371,372,373,374,375,376,377,378,379,380,381,382,383,384,385,386,387,388,389,390,391,392,393,394,395,396,397,398,399,400,401,402,403,404,405,406,407,408,409,410,411,412,413,414,415,416,417,418,419,420,421,422,423,424,425,426,427,428,429,430,431,432,433,434,435,436,437,438,439,440,441,442,443,444,445,446,447,448,449,450,451,452,453,454,455,456,457,458,459,460,461,462,463,464,465,466,467,468,469,470,471,472,473,474,475,476,477,478,479,480,481,482,483,484,485,486,487,488,489,490,491,492,493,494,495,496,497,498,499,500,501,502,503,504,505,506,507,508,509,510,511,512,513,514,515,516,517,518,519,520,521,522,523,524,525,526,527,528,529,530,531,532,533,534,535,536,537,538,539,540,541,542,543,544,545,546,547,548,549,550,551,552,553,554,555,556,557,558,559,560,561,562,563,564,565,566,567,568,569,570,571,572,573,574,575,576,577,578,579,580,581,582,583,584,585,586,587,588,589,590,591,592,593,594,595,596,597,598,599,600,601,602,603,604,605,606,607,608,609,610,611,612,613,614,615,616,617,618,619,620,621,622,623,624,625,626,627,628,629,630,631,632,633,634,635,636,637,638,639,640,641,642,643,644,645,646,647,648,649,650,651,652,653,654,655,656,657,658,659,660,661,662,663,664,665,666,667,668,669,670,671,672,673,674,675,676,677,678,679,680,681,682,683,684,685,686,687,688,689,690,691,692,693,694,695,696,697,698,699,700,701,702,703,704,705,706,707,708,709,710,711,712,713,714,715,716,717,718,719,720,721,722,723,724,725,726,727,728,729,730,731,732,733,734,735,736,737,738,739,740,741,742,743,744,745,746,747,748,749,750,751,752,753,754,755,756,757,758,759,760,761,762,763,764,765,766,767,768,769,770,771,772,773,774,775,776,777,778,779,780,781,782,783,784,785,786,787,788,789,790,791,792,793,794,795,796,797,798,799,800,801,802,803,804,805,806,807,808,809,810,811,812,813,814,815,816,817,818,819,820,821,822,823,824,825,826,827,828,829,830,831,832,833,834,835,836,837,838,839,840,841,842,843,844,845,846,847,848,849,850,851,852,853,854,855,856,857,858,859,860,861,862,863,864,865,866,867,868,869,870,871,872,873,874,875,876,877,878,879,880,881,882,883,884,885,886,887,888,889,890,891,892,893,894,895,896,897,898,899,900,901,902,903,904,905,906,907,908,909,910,911,912,913,914,915,916,917,918,919,920,921,922,923,924,925,926,927,928,929,930,931,932,933,934,935,936,937,938,939,940,941,942,943,944,945,946,947,948,949,950,951,952,953,954,955,956,957,958,959,960,961,962,963,964,965,966,967,968,969,970,971,972,973,974,975,976,977,978,979,980,981,982,983,984,985,986,987,988,989,990,991,992,993,994,995,996,997,998,999,1000,1001,1002,1003,1004,1005,1006,1007,1008,1009,1010,1011,1012,1013,1014,1015,1016,1017,1018,1019,1020,1021,1022,1023,1024,1025,1026,1027,1028,1029,1030,1031,1032,1033,1034,1035,1036,1037,1038,1039,1040,1041,1042,1043,1044,1045,1046,1047,1048,1049,1050,1051,1052,1053,1054,1055,1056,1057,1058,1059,1060,1061,1062,1063,1064,1065,1066,1067,1068,1069,1070,1071,1072,1073,1074,1075,1076,1077,1078,1079,1080,1081,1082,1083,1084,1085,1086,1087,1088,1089,1090,1091,1092,1093,1094,1095,1096,1097,1098,1099,1100,1101,1102,1103,1104,1105,1106,1107,1108,1109,1110,1111,1112,1113,1114,1115,1116,1117,1118,1119,1120,1121,1122,1123,1124,1125,1126,1127,1128,1129,1130,1131,1132,1133,1134,1135,1136,1137,1138,1139,1140,1141,1142,1143,1144,1145,1146,1147,1148,1149,1150,1151,1152,1153,1154,1155,1156,1157,1158,1159,1160,1161,1162,1163,1164,1165,1166,1167,1168,1169,1170,1171,1172,1173,1174,1175,1176,1177,1178,1179,1180,1181,1182,1183,1184,1185,1186,1187,1188,1189,1190,1191,1192,1193,1194,1195,1196,1197,1198,1199,1200,1201,1202,1203,1204,1205,1206,1207,1208,1209,1210,1211,1212,1213,1214,1215,1216,1217,1218,1219,1220,1221,1222,1223,1224,1225,1226,1227,1228,1229,1230,1231,1232,1233,1234,1235,1236,1237,1238,1239,1240,1241,1242,1243,1244,1245,1246,1247,1248,1249,1250,1251,1252,1253,1254,1255,1256,1257,1258,1259,1260,1261,1262,1263,1264,1265,1266,1267,1268,1269,1270,1271,1272,1273,1274,1275,1276,1277,1278,1279,1280,1281,1282,1283,1284,1285,1286,1287,1288,1289,1290,1291,1292,1293,1294,1295,1296,1297,1298,1299,1300,1301,1302,1303,1304,1305,1306,1307,1308,1309,1310,1311,1312,1313,1314,1315,1316,1317,1318,1319,1320,1321,1322,1323,1324,1325,1326,1327,1328,1329,1330,1331,1332,1333,1334,1335,1336,1337,1338,1339,1340,1341,1342,1343,1344,1345,1346,1347,1348,1349,1350,1351,1352,1353,1354,1355,1356,1357,1358,1359,1360,1361,1362,1363,1364,1365,1366,1367,1368,1369,1370,1371,1372,1373,1374,1375,1376,1377,1378,1379,1380,1381,1382,1383,1384,1385,1386,1387,1388,1389,1390,1391,1392,1393,1394,1395,1396,1397,1398,1399,1400,1401,1402,1403,1404,1405,1406,1407,1408,1409,1410,1411,1412,1413,1414,1415,1416,1417,1418,1419,1420,1421,1422,1423,1424,1425,1426,1427,1428,1429,1430,1431,1432,1433,1434,1435,1436,1437,1438,1439,1440,1441,1442,1443,1444,1445,1446,1447,1448,1449,1450,1451,1452,1453,1454,1455,1456,1457,1458,1459,1460,1461,1462,1463,1464,1465,1466,1467,1468,1469,1470,1471,1472,1473,1474,1475,1476,1477,1478,1479,1480,1481,1482,1483,1484,1485,1486,1487,1488,1489,1490,1491,1492,1493,1494,1495,1496,1497,1498,1499,1500,1501,1502,1503,1504,1505,1506,1507,1508,1509,1510,1511,1512,1513,1514,1515,1516,1517,1518,1519,1520,1521,1522,1523,1524,1525,1526,1527,1528,1529,1530,1531,1532,1533,1534,1535,1536,1537,1538,1539,1540,1541,1542,1543,1544,1545,1546,1547,1548,1549,1550,1551,1552,1553,1554,1555,1556,1557,1558,1559,1560,1561,1562,1563,1564,1565,1566,1567,1568,1569,1570,1571,1572,1573,1574,1575,1576,1577,1578,1579,1580,1581,1582,1583,1584,1585,1586,1587,1588,1589,1590,1591,1592,1593,1594,1595,1596,1597,1598,1599,1600,1601,1602,1603,1604,1605,1606,1607,1608,1609,1610,1611,1612,1613,1614,1615,1616,1617,1618,1619,1620,1621,1622,1623,1624,1625,1626,1627,1628,1629,1630,1631,1632,1633,1634,1635,1636,1637,1638,1639,1640,1641,1642,1643,1644,1645,1646,1647,1648,1649,1650,1651,1652,1653,1654,1655,1656,1657,1658,1659,1660,1661,1662,1663,1664,1665,1666,1667,1668,1669,1670,1671,1672,1673,1674,1675,1676,1677,1678,1679,1680,1681,1682,1683,1684,1685,1686,1687,1688,1689,1690,1691,1692,1693,1694,1695,1696,1697,1698,1699,1700,1701,1702,1703,1704,1705,1706,1707,1708,1709,1710,1711,1712,1713,1714,1715,1716,1717,1718,1719,1720,1721,1722,1723,1724,1725,1726,1727,1728,1729,1730,1731,1732,1733,1734,1735,1736,1737,1738,1739,1740,1741,1742,1743,1744,1745,1746,1747,1748,1749,1750,1751,1752,1753,1754,1755,1756,1757,1758,1759,1760,1761,1762,1763,1764,1765,1766,1767,1768,1769,1770,1771,1772,1773,1774,1775,1776,1777,1778,1779,1780,1781,1782,1783,1784,1785,1786,1787,1788,1789,1790,1791,1792,1793,1794,1795,1796,1797,1798,1799,1800,1801,1802,1803,1804,1805,1806,1807,1808,1809,1810,1811,1812,1813,1814,1815,1816,1817,1818,1819,1820,1821,1822,1823,1824,1825,1826,1827,1828,1829,1830,1831,1832,1833,1834,1835,1836,1837,1838,1839,1840,1841,1842,1843,1844,1845,1846,1847,1848,1849,1850,1851,1852,1853,1854,1855,1856,1857,1858,1859,1860,1861,1862,1863,1864,1865,1866,1867,1868,1869,1870,1871,1872,1873,1874,1875,1876,1877,1878,1879,1880,1881,1882,1883,1884,1885,1886,1887,1888,1889,1890,1891,1892,1893,1894,1895,1896,1897,1898,1899,1900,1901,1902,1903,1904,1905,1906,1907,1908,1909,1910,1911,1912,1913,1914,1915,1916,1917,1918,1919,1920,1921,1922,1923,1924,1925,1926,1927,1928,1929,1930,1931,1932,1933,1934,1935,1936,1937,1938,1939,1940,1941,1942,1943,1944,1945,1946,1947,1948,1949,1950,1951,1952,1953,1954,1955,1956,1957,1958,1959,1960,1961,1962,1963,1964,1965,1966,1967,1968,1969,1970,1971,1972,1973,1974,1975,1976,1977,1978,1979,1980,1981,1982,1983,1984,1985,1986,1987,1988,1989,1990,1991,1992,1993,1994,1995,1996,1997,1998,1999,2000,2001,2002,2003,2004,2005,2006,2007,2008,2009,2010,2011,2012,2013,2014,2015,2016,2017,2018,2019,2020,2021,2022,2023,2024,2025,2026,2027,2028,2029,2030,2031,2032,2033,2034,2035,2036,2037,2038,2039,2040,2041,2042,2043,2044,2045,2046,2047,2048,2049,2050,2051,2052,2053,2054,2055,2056,2057,2058,2059,2060,2061,2062,2063,2064,2065,2066,2067,2068,2069,2070,2071,2072,2073,2074,2075,2076,2077,2078,2079,2080,2081,2082,2083,2084,2085,2086,2087,2088,2089,2090,2091,2092,2093,2094,2095,2096,2097,2098,2099,2100,2101,2102,2103,2104,2105,2106,2107,2108,2109,2110,2111,2112,2113,2114,2115,2116,2117,2118,2119,2120,2121,2122,2123,2124,2125,2126,2127,2128,2129,2130,2131,2132,2133,2134,2135,2136,2137,2138,2139,2140,2141,2142,2143
0,16644.46773476349,16262.528177516217,16582.67849457148,16457.13352635724,16470.735614147274,12301.988631773362,-1158.948602603102,-1224.0976960887367,-907.0659317368642,-549.1743315419092,-1199.3368987771826,-1229.0159038670588,-1242.0898496349698,-1093.6661023438337,-1237.7400652868153,-132.09210924355824,-1124.9552961010645,-1205.2627859986956,-1131.3216054954241,-973.8813548955858,3289.063148663757,-939.4937061316526,2475.1819563155254,2750.2860118214767,-976.6722692665286,-986.2987153521344,10736.785903735621,11421.584376072864,-3060.467283899509,11142.96550906714,11649.019271194253,-988.6001697408233,3939.584782030271,11324.947896557072,10163.194301182357,11242.289110240217,11059.028371520979,10944.646877440313,2364.119408155731,-973.2334292614529,11022.825362859543,10883.663327325861,10930.00041838642,11632.347562216139,-1695.131494808662,10929.92837402869,-970.3707098821197,11176.1038425633,11380.601137097294,-985.1395222178897,871.8868771237571,11593.549779685694,-1205.9891076371625,-1112.586546948123,-846.5276707468151,2752.9606668204883,3570.9426981852916,-987.5334034405381,-641.3714684877508,11451.862008651802,-825.4189745444542,11554.270718868533,-874.7927547918817,11242.204114092503,2677.927099832185,11293.342833069177,-929.0958629082921,11175.839245048819,11388.255991360453,-802.9790051566747,-700.2944889031345,453.7159291545024,11360.380543308807,-949.2672309499716,11250.602424839164,11303.262382226854,10874.148598733416,11632.06624185046,11034.682390000342,11787.601872040694,11715.643730389207,10653.040976461414,-826.3852569187029,11315.946564501692,9722.05822272541,11162.296967795342,5455.431868279039,-957.214423952086,-1088.1266668001883,3179.8837708318747,3424.6888502698166,11965.711468749876,11892.913097430283,11249.50377712211,11020.913243134264,11155.28765237665,11419.386802314322,10838.041350562658,-943.6146508891553,11240.802364978716,11520.42130759478,10822.317694481068,11538.04684352749,11291.269096406795,10929.239190786677,11264.294035475777,11112.32627736913,10765.446051829016,11182.038065819133,11107.18142652512,10878.526293787603,11076.752364822989,11196.773380371471,10785.370068397466,11679.90049537471,11392.738690825505,10858.72593557796,11197.111730250057,11379.045649209926,11293.493765257785,11219.199877628558,10939.150646391796,11529.082875565058,11505.026423722711,10769.62437768192,11624.178466743711,11096.513172074312,10981.298885073247,4076.2228558347074,11451.858060338765,11342.675040860158,11399.274391948644,11106.523854777693,11303.882204803635,11218.743289031272,11187.84148793767,11248.185926430664,10669.013828024412,11499.682557221275,11132.573305364804,10850.602771268575,11437.982659619945,11315.578877344622,2690.9337916197014,11439.241310882226,10860.272498925044,11019.401101752319,11174.70290426621,10794.889450754352,3594.8404562125506,5286.005187936776,4086.1966063344316,11333.31323820511,11086.507225214847,11142.634560866643,11151.296962224777,10909.514090210378,11106.511253664023,11066.976401946313,10825.857915217386,11393.216359806598,11357.653633725173,10904.976910582922,11282.48471439827,10919.961433706634,11227.278651766635,10980.333129133818,2633.2690019225306,11438.30951930454,11304.303172219568,10690.892051660983,11321.509022088714,11247.077089660434,10906.094858853194,11526.145226470117,11232.143277711637,2448.218725558075,3560.153993019486,11032.568423008895,2082.3462263364418,11215.02716890594,1909.3026260403335,11389.961003981309,11266.661367565692,10726.254180690752,11430.526526573238,10901.81501879553,10834.931682891569,10992.46124353641,11056.455080305877,11147.709427363532,11223.395824565163,11108.952159103492,11019.24969986811,11096.518741144513,11262.318856626676,11089.21829579694,10492.039008296179,10989.078395096109,11121.47248756827,10783.202007940226,11351.663573533266,11256.447530100111,10699.655059371034,11217.363558548564,11166.111224192902,10849.41224833395,11362.541069385428,10987.194413172816,11282.158125299544,11318.719395727294,11075.925380120176,11141.168415495173,10935.97163874222,10965.910638767788,10595.195021250443,11122.82478347305,11017.971787075088,11267.165996272277,10969.924154681563,10893.589627948279,11193.180340680872,11238.185757889043,10938.924255580525,11513.06025823471,11192.125490444956,10989.184398483452,4002.492769412374,11076.476289195312,11485.635380902026,11394.574047030905,10905.626071044911,11311.99982138688,11184.517756541774,11149.720263411326,11516.497915952059,11418.604335810973,10412.845764200662,11694.054157958077,11998.263928138842,11092.656895104745,11418.993408261153,10836.224778314976,11057.870018691654,11055.47208779154,10944.113605622342,11381.718334921088,10901.871367182483,3003.0053875053777,11003.892110994673,10898.0994626839,10737.286514049163,11026.449520062954,10757.632598629956,11058.96063670822,11118.511137665375,10822.762022299059,11474.978243193113,11041.7909535165,3289.1023698011045,10139.673911242997,10848.376476726791,11099.598696979807,10914.370972908528,10930.082460396752,11127.946247855989,10981.32971527279,10727.030995725654,11460.629984146572,10993.852223340618,11095.197742367107,11042.678351824006,10792.409900096312,11112.365264518425,11007.593227369644,11269.521699821615,11168.135062151583,11206.635150572045,11070.02769264647,10826.650772343837,10921.6174611644,11745.111483228278,10880.37087519715,11172.542449521907,11405.22701066579,11178.413064120356,11136.24742462798,10932.430213083597,11013.242217228186,10921.275839637527,10358.258779145764,10925.27992035148,11042.053109110724,-855.9033240674404,11012.511128809343,10881.6888193347,10667.817061018328,11229.02227625629,11040.69617910267,10930.946376861297,11357.51000906816,11079.816602635667,11212.914128021446,11230.091662671253,10791.542198294817,11140.891439174344,10956.910149874197,10801.19898679795,11197.196537176007,10866.445361633967,11171.15307285299,11369.845818680076,-895.2608920135987,11079.704254243477,11506.995694140423,10674.508860281678,11236.811866484144,11145.513347803393,2440.1428231511827,11204.875069998727,11102.379470227064,11034.642420494576,11111.951580865443,10736.449189233184,11017.134316931322,11264.083273312468,10785.249798122104,10921.87105229053,11157.4312903995,10775.551605629455,3835.784633489548,10945.53392219832,4588.991433334972,10879.192248326191,11163.725504686528,10407.819605451392,2889.802371773389,11011.64192287474,10751.659276596387,10745.594482789566,10889.710586540346,10447.976815470132,11193.68179008758,11001.91599018942,10844.616810005056,10917.629782397351,11049.687069412079,10910.08382694131,11440.252148568316,11116.144559573351,3063.882065769228,11150.153868463723,11205.818038853196,-160.08181093408854,11123.694613314285,-151.81684958755514,10578.612729473834,11274.67601684291,11321.363026658508,10576.557895975862,10997.753478052891,11048.498005088668,10651.45418512655,10998.880869063085,11020.7393874468,1362.6917692194854,11454.742190891371,10982.825828329616,11095.132855942877,11060.634259524555,10964.142550311497,4225.133343302215,3454.2940925230114,-956.1812472082288,10879.296532881406,10722.40520282937,81.02961240648499,3085.0570297473596,23.165066830255164,11103.133287618915,2712.7668202759546,-127.4698409456688,-28.770599351749294,48.74839060664386,-114.96551325829374,-81.65235423553452,-141.04081979864372,-851.7018597865399,-12.091318093961354,-137.03877746334803,-936.9035606399369,93.65249127128874,-104.3671625290953,11151.013503045537,-84.34180628313605,-67.74910897676284,34.27968841546138,-90.90395250916332,-70.00558820447665,40.49481154561334,-85.62415789782078,-67.87923341407799,-26.195822480422127,-56.60410583807534,-71.99034196561922,-86.03269278730477,-77.12987210036525,68.84214952458287,-83.39065495007176,-100.04312645833241,-96.96561257579732,-928.7348091235524,38.56885581244801,-91.11495042497162,-85.1141386743671,-89.275058871944,-97.35658174265379,-68.16736334888904,-856.4479364273742,-106.61349374429855,-104.88114530189613,-72.98259885154748,-116.15671831962004,-83.57878743692955,-103.54022383933652,-798.0114555258468,-93.03655763496052,-99.62010962119473,-111.86665153318766,-100.18995043459353,-85.97065725171379,-101.92483728587995,-124.79895711949793,-96.57240108401858,-807.2961553826789,-105.79227975480389,-96.59463002465674,-93.17566024518614,-109.70413044231266,-98.18911802475388,-115.19230994174576,-104.84071271905773,-826.0670083908029,-99.79961955622795,-104.1180839009004,-107.6738614662439,-870.7783763780366,-103.22865512979209,-815.7637353552044,-121.0609912471314,-112.25479758706818,-114.5051870521676,-111.12363313784047,-761.3815386900616,-831.7052048828514,-97.68260193246314,-105.78390014192348,-107.63905303417123,-104.71160713738213,-883.2098353782225,-124.05050334058603,-770.903473733677,-125.87675848624839,-125.95812645930697,-132.57424112181693,-837.7364244546245,-134.9584801557476,-122.56769248873927,-133.3452530011791,-130.47223964539018,-137.90687123483002,-106.2636745878344,-147.05099278434437,-116.4060720275826,-149.927485401788,-147.24061751200398,-131.87656444978327,-836.7836510094241,-109.59380430951627,-135.74817234116634,-860.8857586367833,-179.23468340430816,-157.29840307664352,-922.9603106385085,-138.61294411389042,-145.37903162038162,-127.97949442915326,-127.69268868311501,-120.1345399676537,-140.19526682432638,-136.55737619707529,-150.91607845879295,-142.45213456352334,-142.70361311724204,-149.39383043290238,-170.3740717906593,-119.34298605134958,-952.3134449058974,-149.59838832694317,-155.6546349528687,-904.11466829472,-144.99037508049838,-170.94825797748675,-167.27970723756587,-173.0251728961211,-894.6001163595153,-178.1579237716575,-151.34163024562068,-978.1543181003543,-162.6104765852829,-163.82013994247473,-172.20042724020718,-154.19714138891675,-167.94645835203877,-154.89285934040643,-189.9790102645731,-166.61264039981128,-184.7192703515984,-176.8328134733019,-173.59235044787218,-164.10434019839585,-168.4350045551855,-169.9126468006824,-178.20093551604447,-928.049718584455,-823.4839566818546,-147.77807179987067,-174.91434107308123,-161.1481163142019,-173.742289084914,-172.43910289482474,-880.4933827005191,-196.8205719641398,-172.7558664382807,-183.53249668538055,-168.02802145567455,-799.2551005662149,-205.43777204634964,-854.8719402902033,-170.83702068811053,-218.22397578543055,-121.98544853690898,-850.6979083915653,-191.0733628743368,-904.3571374468808,-190.4932609730454,-199.28266509930873,-214.39726131568503,-194.53549232132877,-227.35646636106918,-870.7437648881875,-906.045018506971,-185.48686938755966,-142.4498891162757,-206.522401166156,-217.81117572588613,-214.65119754642885,-203.5619660346854,-222.09054836787246,-183.56324383039953,-195.9099359428054,-132.80588397362206,-199.96129854660143,-194.8058283238922,-131.5989575932462,-200.32313276195995,-1019.8055599287176,-142.23797031928018,-226.11580953510438,-901.243508965234,-228.8882372416849,-884.9547040904367,-223.58461433351962,-223.1241597856873,-216.2893105679845,-207.53070077439057,-945.8423192186384,-147.37512337351643,-160.12843585134652,-230.88031620404982,-148.5445916612359,-900.6325017557954,-915.1115673505631,-223.2256767935741,-897.0409555420217,-265.18456036452744,-227.8353339958382,-242.01495153741308,-144.65842235969964,-909.017222582397,-268.4807895635151,-1002.3089564986982,-771.1952790263413,-242.65527137557012,-891.1962242979524,-287.00775979650024,-832.7667487887568,-894.4165883217482,-880.9722094745714,-891.7166925687095,-313.6120275033832,-304.7054150187834,-257.2027378801774,-255.48760721646187,-279.1748296811339,-951.1183090489391,-975.2434408368343,-382.2811549287596,-983.3199110111271,-899.0342023482797,-289.51237072154487,-254.6895319507467,-909.9766655390789,-270.9155620124705,-258.8068306906906,-933.5935031345591,-1056.9440070040787,-283.64173060484444,-281.32655330614995,-964.1676051301022,-418.20786824804355,-272.18960483110385,-308.555838396437,-255.96595528309572,-303.2547581234173,-915.494333919332,-242.5309753873841,-960.7379103691339,-245.89371498016007,-285.9608554400836,-272.5141236587276,-916.1126500608399,-927.0745672614715,-246.31157895909223,-911.4011467830953,-270.50863494967047,-951.7781595347217,-352.30913661444,-1016.1965793671824,-323.9449816621006,-890.5393238386645,-303.0919288355178,-279.2055847284526,-917.5955426675151,-306.0042377363473,-202.74336581417018,-318.1917108305519,-190.18128409351323,-873.4994521872937,-304.29618022802856,-293.7994497982369,-222.12249117940524,-312.43493442207006,-910.6916616184644,-295.91701248793083,-893.3611138821792,-924.3934117749841,-327.6889923337592,-303.8537263743098,-338.36144550973887,-921.7385847164499,-944.1330456252558,-309.0234486161174,-1021.8359954514674,-317.3058109793303,-952.9216361957652,-309.05624858217675,-969.3623160435409,-315.31441771771915,-333.4277110673551,-306.8600858030023,-314.8284507848679,-320.1293165009286,-900.711587641262,-955.0317230750437,-940.0911609624553,-395.3433287700166,-338.19048955783614,-943.2941695324062,-333.56187450832016,-893.5216736569824,-836.4289004009389,-889.7602730304355,-331.68750683499223,-295.2267884219049,-898.4427488088478,-219.33166659433255,-1056.5516556233758,-879.2151353184703,-344.18264062184943,-336.0178704395798,-215.77353103478347,-357.0942741378423,-335.9213770332135,-222.4000066243478,-357.972769597435,-237.82934506217114,-998.7278506434055,-1021.7152070405577,-238.84144676607147,-909.9584209913759,-249.92490603894765,-268.25057687441,-817.5752183315385,-778.4906677977076,-938.3927898961094,-344.8610821845184,-343.43530178704566,-902.608395655689,-262.5966773301323,-373.72521547312147,-900.5914947840063,-925.2760194183592,-242.18838969788985,-395.82907113390877,-362.3691234623363,-450.5882544604627,-923.9591709182977,-415.07302794031455,-921.3763995438362,-970.9356241449273,-863.9810388240791,-245.64693729921825,-260.62205279981737,-811.8079308901407,-944.4126970462946,-270.44965702489196,-247.43168232611637,-856.5049172045377,-337.2807390275004,-905.1464027165068,-260.8390847451827,-824.7238297591715,-897.8731448228832,-276.13278468390007,-865.7953868721529,-254.7297255654562,-230.238258841315,-247.18140289861563,-475.9842052133896,-257.3032683513814,-250.96250413377652,-247.01857099551722,-253.6591652434244,-837.6076065997804,-425.43601590208226,-324.62975520827723,-452.9325303425758,-426.7184950740208,-443.69478725184734,-882.3040916988455,-265.25166715565,-265.5057638915324,-270.0657326658541,-267.0201811995132,-487.2892111590636,-459.84464980654946,-268.91667820509105,-391.0745009691144,-480.36959369612447,-263.4679664592632,-457.01424832548,-263.94021026513025,-432.0569105277328,-349.10370544584714,-273.4177084485226,-283.06803239377035,-940.4539583433983,-919.141086536991,-914.9579785060806,-479.68103960843604,-923.2343876296168,-889.3789295804006,-980.3924713349488,-1084.7695164069057,-455.5369861666206,-397.91952045086447,-282.86290773827653,-465.5667417618178,-943.5462216065321,-935.3411502498253,-310.43700559588723,-467.17618620089837,-1015.2958289009199,-276.59689645864864,-538.5212343125911,-323.15147108713916,-457.7123838946378,-374.1775400859361,-919.8374002187786,-301.35950879150414,-906.9264287770312,-449.311982695886,-428.3906631161058,-953.9479096896181,-792.7387070244478,-540.2277510643993,-842.3787057471272,-338.5441504916739,-889.9935465814888,-1017.4812963508383,-528.0752090527216,-577.188287111247,-301.1371514429592,-887.6271882364359,-447.13870025390713,-340.70308814382304,-534.298838020235,-916.2263365271348,-504.95231940207054,-432.6883300919689,-402.62358851182273,-484.5248625996959,-936.5603738513038,-436.9994343587996,-411.5119496314123,-396.00209549672877,-318.7321404357796,-504.7246120625626,-912.4851619526478,-432.0629882326582,-542.0592664386975,-384.87711663592904,-596.9848419348933,-485.1699168055631,-793.533558486021,-317.7063175519504,-272.7121153665715,-917.770408014554,-559.4643582492228,-937.5339060422081,-488.9658318265746,-510.0730379781238,-847.5569381058774,-821.8612839779532,-366.5062236422256,-344.3865781513534,-579.8516460277706,-553.557787015289,-380.6034684895653,-491.79419062984005,-635.9071181934455,-880.1020586453594,-854.7884154473227,-858.4269490718842,-507.0958373003035,-432.6141759870244,-352.065574978372,-440.61250739790233,-463.7840967351318,-538.1450179885837,-848.1118667132671,-526.0545838577742,-399.67794287688974,-426.004887551442,-328.54322793324025,-561.1932475748997,-987.6816537529716,-321.49090162197496,-369.83774246010285,-964.5648120933371,-889.7469704095934,-421.5867070341794,-988.3769065203074,-914.8418242440991,-521.9587836836855,-534.8652078651626,-909.0211114893746,-505.6954053782009,-942.9445584547992,-468.15935355878264,-548.8400729531144,-970.3786397536348,-508.08503186628207,-962.7054527105308,-374.42425983235916,-316.7740284173861,-420.0149940156667,-363.8887792193966,-808.4552412580944,-400.19288213403007,-336.0177782447621,-422.3668838782431,-569.8834022878802,-374.60707759058596,-474.08738926563217,-467.9993500619089,-477.6783065464424,-971.0294777367836,-963.2438004359133,-478.2737145450493,-900.524476003098,-929.1261353514432,-872.2115714054114,-889.1553006747988,-448.8806592894595,-896.1603436419438,-610.8662503030904,-908.5566671943129,-900.0927854907717,-897.0988492839798,-902.3483191813463,-854.9820694200699,-400.75913143257486,-517.5398012067254,-894.6523874096023,-898.3173416341638,-596.7439610032121,-456.4908386008025,-417.24669566587283,-1021.2947571175881,-459.8291446855863,-401.1268469165039,-954.2326424583449,-928.3915357334046,-475.89012305428923,-541.1995125951989,-960.6247989403408,-561.9054995929084,-585.96653315344,-533.1008247349555,-917.3681804069241,-938.671971025657,-441.42390153028197,-879.0446823708515,-431.3289766993558,-601.7510464048102,-893.1628928266726,-1002.6787050627335,-978.3224236173694,-383.58686670665213,-872.4617724613722,-1005.4305881647589,-354.1629487920611,-539.2031996561976,-407.13378080923144,-914.9667133082968,-423.2697704076622,-368.8355575586707,-530.3821431279208,-968.326510637425,-369.7769406538723,-385.30970142409734,-977.0208393659875,-891.7395716706005,-535.7977392092946,-668.3750944004904,-486.5425556890969,-430.07747686429025,-954.8565984240807,-874.2196475747634,-917.3282082273579,-479.71929529086657,-885.9156687168992,-408.7152271505139,-925.6452748718162,-900.8453443995787,-441.2178758011763,-385.4728148837845,-375.39687587083785,-971.8292931857851,-880.0507602423065,-358.4981618887625,-710.0559526919003,-896.2587052736911,-916.573207463944,-514.0821087162627,-904.7879206777144,-468.92156473853754,-356.9571934494837,-402.4409804623842,-447.0048090495049,-427.2939964009119,-864.7935054547987,-380.729467208262,-417.8799703467174,-849.5373451093432,-614.3376135752582,-855.9437185552936,-792.643861111728,-486.01312732867297,-352.632875045666,-857.1803136439829,-462.21961521623007,-967.5873068906234,-490.6724660946287,-897.4671431211848,-410.7995371589062,-921.9915255671618,-989.5062704510921,-460.97561301627115,-480.8307668272212,-371.9280319764345,-844.8712008396689,-941.7949856123776,-551.8347822103376,-884.6893551419371,-443.38143356234275,-523.2988483455075,-488.53964692129637,-937.1973215895633,-484.6737876874367,-494.1898283927997,-625.5300252614824,-541.3516536767107,-436.24576456097304,-954.9953902828678,-973.8601293609115,-980.2229007552104,-1079.3801383035018,-494.26021162870484,-978.0319834995574,-446.4455328290216,-447.2585262259118,-396.2104871125211,-412.4980125928335,-420.56448238777017,-570.8690586585487,-341.0858952549171,-511.0755662874515,-460.65262271364935,-638.4170842407093,-816.0485471339238,-461.08677309980317,-601.1358358040399,-851.8391132434054,-950.1257995028998,-582.1254223754593,-936.474369356297,-956.8436818686421,-454.2893068880984,-887.3617188007388,-941.3694745442923,-893.8522273035039,-919.6652858572629,-528.2783601551629,-533.1176181259723,-644.1674115109989,-521.5951485929868,-931.6128249596824,-485.21604058017516,-592.8448388795535,-613.6226001219596,-450.52064638939777,-640.1653694838353,-958.4839249227116,-836.803815055968,-460.977997181564,-871.6403674633384,-333.69707051620145,-931.8920425037584,-883.5162112538867,-703.6114001382686,-513.2288767147111,-443.0909059778589,-932.3385202497434,-660.099543668323,-407.3619539759172,-411.2736105067222,-460.20198279774746,-787.3993138823714,-428.1424127853307,-490.74756610786926,-481.5410007408414,-493.4157445287431,-959.4381509777556,-576.7128814147983,-612.6282421371039,-411.7378186326675,-953.3580932518972,-487.9259175023394,-985.894806313986,-882.2987643621137,-1036.8365389979454,-434.0048016660944,-993.7433350705511,-969.5740108379366,-890.4582641799002,-850.2801659672369,-531.5646455666404,-853.356269115824,-792.8401933458639,-965.2284241189394,-853.246698022524,-397.42823816220624,-476.6858518477467,-951.1340990472899,-565.8190572429947,-427.6870134667579,-376.0821461330668,-475.0081484292567,-946.736015516429,-566.3330614462843,-903.7180728792291,-629.537722992793,-381.5384733332246,-489.46504516048566,-978.0292590966982,-500.7530721104332,-650.5323097093145,-529.5225141337576,-494.85639787282105,-961.9682398818649,-506.60215659027864,-511.5563715220948,-457.6928907704591,-557.3598271888251,-527.0174616460445,-841.8191620531635,-984.9816249163975,-516.2743554646014,-527.1504922231333,-834.0646456196142,-1010.7041412961761,-479.9445293296349,-916.4704250222131,-943.2753067786465,-922.8979982051895,-445.4090798000191,-1014.2067448374983,-585.7070169199279,-871.580250066642,-488.5855873150278,-986.8783322601653,-803.9730552837384,-531.097852563116,-882.0175736117118,-854.6478128717822,-531.6728053289054,-919.4298089737491,-576.3637970602755,-918.0140343625586,-439.3689722694143,-504.4739727394279,-404.58574043612805,-665.7322580618022,-931.6439544353905,-301.73902868290037,-1312.505386326024,-571.9129339240164,-378.7838556145578,-958.0713571994365,-925.7748485806623,-895.3773292748637,-551.258420364668,-773.0820489047717,-1021.815987325716,-994.1260404987961,-513.0393079828705,-496.234557890934,-896.8139520932642,-524.3220963374451,-500.0177631476879,-453.37084437002625,-934.8815028210097,-1017.4909279346384,-899.6305029302393,-465.1080071082342,-554.9653676223871,-567.5838310423219,-976.152370724078,-565.0085535693024,-901.0698050071612,-621.2047448268205,-511.2426813402874,-895.2431415899669,-983.6368012243296,-861.5814013929358,-609.7655741964383,-596.0716100563583,-490.8856179370518,-915.25834307046,-604.408973349354,-437.87601278112606,-495.44598234764396,-455.2414262319778,-841.8023104131121,-870.0153538038675,-407.51007293811944,-581.2115517949578,-478.28817411755966,-505.6507035977677,-968.5416629814578,-635.1177276711015,-496.9488699406165,-479.07777977642553,-861.1485081159537,-467.82911034975604,-489.55890997491815,-410.10724608928547,-558.1746640426695,-525.0368791665534,-875.9020453123552,-485.58526972568427,-872.7802728048549,-492.44684662602464,-642.6128873263141,-543.1763025384619,-477.4516970978464,-505.88265235876344,-605.8059077630882,-463.5268349202321,-608.5653553073391,-975.1099780245543,-1036.0913260413122,-949.8860985719047,-525.1056824948449,-1025.577683582013,-497.6397545901413,-1114.9445131097507,-555.0211614898774,-643.7513504330126,-587.2154330281124,-891.4151987210117,-483.49081058158123,-654.3807818013819,-599.0802884798845,-669.2241081143388,-515.0094496017641,-596.3080458275326,-555.9131262435885,-959.2277692331193,-1046.4925910445256,-541.6611964846911,-549.6171044776788,-946.0431447258632,-420.8591937264969,-482.9816281310314,-527.8265253700523,-571.8768370113734,-929.3019393413754,-1042.8041440863142,-558.5452560625132,-1125.3822411751048,-1011.3082075252439,-593.1298244919991,-532.6742674062602,-897.4574827995092,-571.27428609352,-512.2097210262428,-602.8432619704947,-517.2269163705873,-613.5738338369899,-497.5368660840209,-930.9205484884986,-670.5459658470854,-462.2295640229434,-464.2376941379306,-940.5135429836525,-960.0524208031675,-625.8750657859985,-911.9612807212333,-558.23387100497,-944.0985593899715,-629.8022398832799,-989.4606383433041,-917.6197449350825,-459.2431325576164,-876.7516547838771,-566.1003096293562,-559.2625043183423,-466.54301018453896,-922.8614762575971,-485.9105724343344,-920.6805856206738,-591.2305904707407,-584.7399858950349,-926.1086993090013,-431.3913133791315,-527.8940791938322,-503.22505531875146,-519.5550450488861,-978.4830367505039,-594.8256179343643,-580.970383830057,-493.2559798546495,-837.1935714883562,-527.7111080436425,-927.031174674998,-469.31709865089636,-520.9001380593152,-523.78868612305,-866.3622526623251,-552.8320169682562,-517.6188485590666,-896.0350561525896,-505.9833996370263,-898.0947547531864,-521.4841615971139,-911.0792579732895,-812.9465431162773,-514.8524466755175,-529.8333045444359,-515.4710583827377,-1013.7444844004569,-556.4699653818328,-466.1886303645993,-947.5329770767428,-980.9399521760182,-533.5659126025168,-1007.5382023241875,-896.9208299907082,-690.8860993059877,-558.1803291076759,-888.9547870427498,-588.0189796449895,-634.7076149371516,-662.5166066004003,-533.4696293942778,-963.9668095042294,-769.3779512195,-1411.4507431957381,-425.42158757991746,-993.5139063060951,-995.5337082616629,-701.8464200690128,-647.1201363157628,-549.0239829516504,-701.1473615440176,-718.0137757193161,-962.0289901178182,-482.8883314405314,-987.1453142773313,-528.1003443342371,-1071.4152697458023,-971.9015455561297,-859.788048154203,-564.267393305938,-567.9237742819095,-578.1148510644425,-472.67014873927906,-569.5873230357201,-908.2442446815724,-568.2058512833532,-891.7090237882109,-650.0074672973661,-505.7303473749807,-508.90622753379563,-459.62855647017676,-566.7569953573245,-528.3553741799471,-464.04205794608504,-517.8554290969142,-511.08796445151864,-993.4389524595307,-508.76149817032905,-508.9249370154529,-940.4941306323622,-577.3738475981783,-568.5201462207473,-973.2836420925524,-700.3416601026175,-509.4425625267947,-602.5592754255896,-936.9211659395027,-469.03111341777316,-954.7943198017473,-916.3199590146988,-500.0965035472121,-865.9262423564197,-1002.7248383398862,-787.6726092016025,-600.0876684035123,-741.5515426803483,-901.2520992291193,-675.1475145935748,-672.6634669838346,-956.0383027046945,-558.3381638747987,-965.1863441824784,-879.7125251727003,-597.8745047936911,-916.2841100082021,-665.9185726650046,-594.177269887004,-574.8505488256448,-828.9399514719576,-527.9741314057759,-550.3930815009921,-917.9182716427406,-580.5636572889201,-555.0674383874226,-906.5769949219583,-666.3054778496778,-512.7258142056236,-684.8048582063851,-946.3432071862376,-452.2957216035152,-655.0193297733907,-708.8097539959974,-834.262519451527,-510.27245678018295,-902.5571826804949,-577.5144336666868,-464.12085750584475,-587.4181452590834,-530.348392708179,-534.9579930575952,-667.0891531855049,-501.2821898597778,-670.1785024382605,-672.1989261805687,-632.9955274291293,-489.4966619544545,-661.4892077606771,-460.03190759662994,-558.6812796421385,-898.2824247362757,-588.6830538305841,-960.55537511625,-664.4169642324867,-607.4388936280677,-879.5297786798042,-655.5741065347728,-1008.5094205486758,-493.7711543086983,-525.6585112644918,-577.832758801721,-916.1954133329551,-941.9656095099593,-507.40536233151784,-480.98402246234764,-525.5567015654034,-969.8001548216814,-529.1824873483403,-549.5587451734191,-476.8678620675701,-529.363219478976,-577.4646371388064,-467.7604313303364,-683.6978093241228,-1010.5942503802778,-561.2891965542962,-618.7057365495234,-800.4786178036555,-698.8472793776602,-669.4903581794525,-513.0131570334363,-522.4499012374064,-880.114619160735,-880.386791054474,-532.6657523897899,-930.4664004186454,-859.4749996205612,-655.4251744057244,-603.4557034831722,-603.2601344515809,-881.6193476331382,-636.3700717396936,-914.7375348537804,-584.9444807247371,-675.1565927166955,-655.3708949723728,-575.3093470929198,-522.2444206746866,-907.0361257746346,-608.1687787739047,-598.0687046104979,-868.3621073421104,-663.7605008437864,-940.2180024059178,-551.6512012015895,-620.0848714975302,-561.7101609103106,-583.8073055515006,-877.8911390706061,-572.0045473916042,-881.0528964837613,-488.0115410304104,-848.3398864208455,-878.5003711339409,-629.6749533799757,-488.13231435475984,-487.00951482344954,-685.0792481015123,-629.5274788835719,-571.0156039211694,-676.0267525366911,-496.29414078948184,-575.4381872318168,-587.8464453072046,-649.0497689262111,-830.5070639317602,-561.3848544983879,-485.81203223039785,-466.9651022962403,-681.8251081040353,-667.112652472868,-516.8734372129525,-603.1655827506104,-922.4230239235427,-693.242549048869,-902.6952389303367,-538.3302806260367,-491.49545346377414,-507.7381537766476,-945.036400744355,-610.9330467116969,-871.910921638117,-487.9238362384126,-576.5828071465703,-799.5270452628879,-566.8311812769526,-552.6591006277655,-509.83588417478165,-537.9550504698335,-960.3353357873549,-530.6553577389303,-953.8261150483333,-525.6324067220912,-839.1726653513165,-915.6098845265252,-640.3404534024813,-657.0345840248029,-932.0747586942451,-742.8862157827444,-673.3162410224967,-849.2982295044611,-649.5469107279698,-484.19734340636626,-474.69897383264515,-898.7365259747223,-592.94989665843,-817.3156619888142,-656.2871796038892,-489.78819914352187,-808.6446760487971,-566.4113882815158,-574.6602267894813,-665.8451586564632,-705.3357712213104,-510.9524577489547,-566.1621013457515,-674.3618831127452,-563.5014985522361,-607.6486379875719,-657.512633575198,-578.6303273023332,-639.3745163678705,-916.7723820138397,-901.0023698335335,-905.8603447123381,-609.7204403750216,-571.3324549496074,-493.7259589537267,-970.5825378067619,-637.9826250626983,-1109.6083801350046,-544.4585215767908,-621.677575225614,-616.6744020689418,-629.4819147194792,-846.2547724809685,-710.2077996654222,-561.103456806035,-566.4651142899793,-919.8615301433027,-546.1644372989151,-897.272920121131,-650.1890916809102,-717.1491196419051,-508.0986577453314,-626.0508391351893,-540.6043765800957,-582.8930555643948,-661.8088732928097,-890.5674604529611,-851.0013611033501,-568.6053348855318,-639.8749854622671,-546.8376468189249,-881.1666713173539,-581.472433345058,-599.3076525680026,-908.6373227324206,-546.0421514217146,-548.0034305829146,-903.961326598115,-573.0283427263773,-998.1006359042484,-699.1706804041913,-538.4523223754838,-886.6221599706522,-908.7877198588797,-531.6366611464135,-969.0621741514092,-632.0721017897414,-967.0936959634487,-605.5884582324583,-536.8234337429471,-706.5852337928847,-1003.0105620957073,-675.4569160061226,-737.238620373783,-556.6449539387482,-913.4772355041076,-604.2635458524495,-987.1451752293323,-1030.7667772246448,-986.7717931903572,-690.7430663757997,-546.9876046711789,-660.3739895097842,-692.750697845049,-914.0462323976002,-1024.3908977035314,-813.447280248056,-712.7490495719301,-657.302117960077,-573.3943561891492,-673.9354190980163,-1039.481013151715,-607.9465907787588,-644.7235771967065,-690.1082597626875,-609.3243968123428,-1040.0201960500713,-718.3832674818456,-555.6258694525077,-719.3097899479316,-951.7623592929339,-918.5957492042293,-965.220786569365,-961.5324148990046,-618.3588117386794,-1104.5335753961556,-863.3618806179546,-538.9125273754406,-1037.9163447654844,-651.1173700359484,-539.5618697779915,-499.7891809783179,-673.0570038284797,-688.3082174544159,-605.3701676964307,-612.4324188283359,-873.6518909902728,-558.9928267141532,-576.5681501292887,-554.9369776175527,-975.7623087080299,-538.1530314201033,-854.015404436756,-576.8700845698748,-557.6234065634799,-906.4589189793467,-554.8309158248303,-631.24291033795,-917.9396721887746,-606.9523053870194,-590.948527850065,-545.5440965524263,-555.451619902068,-578.3214191580424,-924.9877782159492,-600.7411795701264,-910.3930882376453,-568.9587660630817,-1030.2253706178153,-547.050814299622,-945.5564489248565,-616.8176416027187,-861.3190443981795,-552.6944559215065,-577.9405325746777,-643.4097177668364,-922.0436110537363,-611.6888605840804,-997.9017766421215,-898.3815948099409,-930.5935405662111,-593.3467917590239,-918.0252107468614,-968.7850588013329,-557.5520112460259,-713.6332926449514,-678.6916951798445,-545.5935755210551,-581.8187401064849,-739.0520979798051,-923.7838500807123,-892.0313949845485,-895.6306069189451,-865.0053778716858,-956.0638197407736,-974.2736500563946,-619.7038690623588,-917.8376230603902,-991.6298174713006,-852.3801534024936,-971.4656551431185,-956.266452106757,-579.4017350941108,-921.3032287436889,-899.461974101116,-542.6712893999911,-722.2619253177252,-566.4010761972418,-871.1054579372532,-613.0782773017767,-926.512247840281,-563.7517511812733,-779.7607985106586,-570.2824758460932,-889.018030113593,-943.706453207546,-823.2672482580175,-557.8444277431488,-566.9110204368441,-866.478242601063,-559.9770788960677,-641.9210450431143,-855.0618943229723,-847.1964997439005,-578.1487032633652,-572.4343496347411,-568.4091047430351,-970.9621438129932,-563.808496242037,-566.4815801291801,-862.5628208787531,-580.1163434205539,-582.863804060262,-942.1803330896873,-575.6351842525004,-561.3589551484162,-577.248912296474,-861.6514297107103,-541.5832374593367,-557.6751714925922,-852.5658000699204,-577.9954616252393,-569.2755670271389,-578.9973947064644,-577.1518608846974,-569.9426160240819,-909.7288535061709,-927.4115982713837,-569.0919455060774,-582.6769652293058,-949.0584156733447,-575.1684384110117,-577.3007604893252,-607.6010619504104,-567.0123261376432,-582.0086473225333,-996.1630767461882,-980.3374994432215,-1024.774186595957,-580.2630890130685,-888.5332887947634,-584.1992931538998,-948.8761425049481,-607.3271805634107,-633.5123728498662,-635.4450359075427,-616.118900447479,-865.0511835126482,-933.1702915988978,-990.5635315831665,-965.3678394200311,-1002.8349869911304,-568.8440766726033,-969.2460109338095,-656.6435102586668,-646.4944121752363,-561.855218668881,-648.9257031280347,-589.4139078818001,-611.2729668049743,-567.1823940306177,-574.3563518294019,-625.9857541926305,-916.1967996591584,-581.234773339287,-577.2385435859156,-921.462189754546,-635.8310297562609,-625.8968064208013,-916.4880222081302,-559.9802870844047,-582.1557337108162,-894.5201581039852,-590.2844008071573,-601.1747377359254,-972.7774061464269,-688.6371881613094,-588.376033873246,-908.2895673044585,-636.9128522142232,-983.1875836009493,-905.7577750697507,-791.3007098123649,-581.4083163271298,-576.4819100789956,-1105.7762444334905,-1021.128596785158,-1082.9720925691793,-980.3040297433544,-764.7935438372065,-649.3331136764974,-1011.8187394347252,-1009.8008395706315,-1054.4684546948574,-588.513632568378,-1004.0200789077799,-575.3420510482509,-576.4471055898049,-933.7294889421353,-643.1228197049406,-899.8197076043598,-629.4036487292849,-678.1734798548894,-622.9942691637862,-998.9147367304888,-946.2361070536676,-634.8169267132148,-642.5088747850018,-656.037431351732,-1072.2937185140547,-1050.9685250636999,-1058.0141525119036,-652.8759481297072,-704.5633310767942,-939.195149770197,-596.40582754842,-662.0167464966765,-687.1237618485333,-719.0779070980366,-1075.2892137991666,-591.0836900548172,-768.6654233227077,-629.8121269444406,-1185.3003528994352,-815.7928682116489,-1113.7419023142797,-1126.643751405902,-1074.426832915226,-685.6948954820164,-679.0731042589449,-670.0139618101765,-1059.5298283664279,-690.0450180471778,-680.3877035199348,-1011.3746392137928,-993.8508247401312,-767.9872580747998,-691.2306984315265,-580.1538047986636,-639.2615501076252,-1063.3069666195172,-575.2586053654404,-678.5835632361304,-670.216146802896,-636.1394083238928,-1052.210440381377,-885.701227313378,-862.3446243877697,-691.6052636149345,-620.1228551362329,-578.5920515886448,-864.4233765415191,-640.0559407034415,-946.2343389558058,-919.8703538686481,-641.9712425081162,-643.416398464067,-926.9392744744223,-679.8843570166019,-639.561576744593,-787.2774868409291,-571.3047064452115,-649.6009296167325,-582.578213971969,-948.509911112948,-581.4839733852526,-884.2962099125641,-862.8110556186745,-937.916897399607,-607.570009404296,-714.968498870658,-623.241402431596,-852.8699467721725,-630.2109153359004,-621.6011659970093,-635.5570168672907,-726.2443802851546,-813.4912740771857,-711.2809442909638,-633.9443415101831,-650.1842134406128,-666.9101898618324,-598.150517051407,-880.9397786245929,-621.8678693620758,-622.2733101065999,-925.170466666147,-585.2953179317157,-886.6536455253378,-619.1164980819351,-593.0162049881422,-743.6898661341472,-954.2427761170738,-582.1663006644743,-849.316343514308,-743.1163728109823,-535.3411839674069,-950.5609224725274,-856.3628793253522,-567.0651482852745,-650.1228623841865,-683.8540065505006,-627.0148148875559,-922.7526142123878,-655.2605139731104,-638.85512463593,-635.8042252379875,-638.0949119114922,-652.5363752347396,-644.0216785355489,-624.8947479930546,-641.4878988646977,-652.0320827802395,-640.4601511956097,-921.7315044953011,-671.8353553265654,-659.8859733703466,-927.4128276895814,-640.2549224214022,-795.267024137867,-993.6890405149119,-632.908609033192,-634.8693934431582,-954.3303310678783,-669.6602207210045,-650.2494966630438,-707.1844035688417,-847.7371674371498,-647.1074467816268,-593.0503358396486,-634.7691948454611,-841.6170791985268,-557.0992232912984,-974.300109327785,-1025.2373336001235,-429.1996609500755,-1022.873808798056,-899.1863023076158,-962.5623652726815,-921.7613464587381,-867.0419810382223,-942.9340149061189,-958.3915612994107,-932.1921104856453,-990.6725816674617,-1037.4125852538782,-933.9203996167865,-1051.1854445480844,-1006.0904723510612,-961.9785236945592,-1048.7151029752984,-873.3909776779974,-982.2433193919748,-973.4268447134522,-898.7841226066776,-950.6885250979166,-1040.6833860510021,-1094.088562492464,-937.0358115531357,-944.4987379573697,-951.9389408953631,-1056.4738434031988,-1010.0148494374267,-966.7812522459637,-941.3745890421388,-1013.5230801827886,-929.5876528296005,-924.2508755739482,-938.2253096855511,-897.1751594910554,-877.0583272922621,-1021.6322833731973,-937.7611615819727,-929.9727037331035,-1029.9297033820567,-974.8289035894707,-953.476937488923,-1026.3056726079758,-957.0223707520718,-1025.95149753714,-1047.4729824218753,-964.2952750024963,-981.4588761853868,-1041.043151027342,-958.998323881104,-909.2094436888707,-1013.9683397096329,-1002.6330261296544,-524.4956581749319,-955.7152250308368,-973.3913345417692,-991.9347508775415,-969.88642415326,-972.3791991382026,-1000.6219263607857,-913.9548838546178,-990.6190264571406,-988.7050731346384,-1009.379747503676,-923.9695220085373,-945.7249741935638,-975.7075294044324,-955.2629658776383,-907.7645728171366,-912.2023726306812,-905.6146441545419,-940.7183445141466,-927.8799798462642,-886.382841363955,-946.8142064434855,-975.0740265861691,-939.2442177244769,-938.1916534641492,-435.64870505157967,-861.3797622645062,-1051.6510537382396,-916.3699513215149,-875.9286921267407,-913.7650582933147,-932.4381172650344,-961.0302328976359,-944.1976563150646,-970.5112962160065,-969.9159844125643,-962.5978899266618,-949.6562022760529,-868.6754946030989,-972.4841173755157,-1068.314558263027,-991.1768302129685,-919.123867193411,-926.283729332993,-1028.846529206076,-996.0300193025297,-1016.02073629553,-986.3343846511751,-1033.2764049697666,-995.8221642732416,-962.9725865096533,-963.5196875067397,-1139.0060006554909,-952.911017919518,-953.5510229993023,-999.0391492499144,-497.8004172563489,-936.3410496440025,-553.0944446173501,-856.9840625666332,-945.8804439192103,-931.0178718634775,-1001.0109959847089,-1070.8292219408129,-1048.5722789424806,-898.9609810117826,-893.7924930934778,-964.3580381689092,-895.7677966009336,-1017.4934749873829,-1029.5247224941393,-976.7063800138392,-1001.0948584722158,-1087.7265870785632,-986.6200726987729,-973.8022965695325,-956.4606038646193,-1000.6603471507253,-911.114840278056,-981.6468290881377,-1088.5618331374196,-1019.5708124310814,-1005.0645793796991,-911.3985238475216,-997.227229947569,-1093.9592777433977,-968.5530827661363,-948.9692612443973,-1025.5715909951641,-977.9538683383604,-966.3318855363235,-916.8564554953161,-1047.2046410765788,-1034.986140545836,-969.6130242987238,-1047.6902844076099,-966.128173262547,-1020.6094288300328,-899.7603582807621,-942.6881505543062,-919.8885071141124,-965.1037776741447,-1036.1541002015247,-1019.1913490069152,-985.2840501156542,-897.4571068552709,-892.5804291904269,-948.5532639581787,-1043.312292642262,-917.0525990737771,-909.8249683922006,-948.3848145705608,-990.0482558570995,-931.4702081205264,-972.0363001030777,-930.4547053808016,-984.0583987166674,-983.9871935769913,-881.66504292898,-1015.1094213605572,-898.7460759378091,-1043.9196630334177,-1050.5683026405675,-943.5686482489026,-916.0818456304477,-965.1762412575023,-962.8012163897727,-948.3110700541782,-991.1873986327339,-939.7467260582887,-934.4697231035079,-1071.1177621321926,-895.4148106462007,-868.3232370011932,-921.2340247293912,-928.6715864665966,-919.651361347455,-979.4444393167207,-858.3626983675441,-961.5846522716474,-496.0477791283979,-962.3144405944217,-978.8990049950982,-827.7235423502731,-949.5271155251535,-898.0193968113881
1,293.7573858606852,293.47856914345857,293.87035795514237,293.249031141181,293.59227033312874,307.3415261448977,361.4016152798282,340.37991847189545,348.38979596394677,340.39074485522667,363.40723620283654,378.4216998837633,360.4016534827207,344.3831962182195,344.3834536576491,325.3484425427823,343.38214588359557,346.38508926726155,346.3868331433973,363.1594281889291,312.02098037965965,315.350711589648,314.50076514776464,312.68423172064,350.3887655862564,355.39488940634055,298.90030611538947,301.3609705376983,315.350597694396,298.44010922275436,298.8107999046545,355.3937803662066,310.5517518012782,300.76443448138923,291.3236065590405,301.27268289700953,300.4741499694046,299.3160454760993,314.4023387645253,353.39184848552657,301.15257454852855,300.8280912064823,300.52706032409606,299.3324951176192,335.3726335562574,300.69245234534367,359.39921559717044,299.104580343113,298.3311622599078,344.3823918181005,324.3602482321629,298.33129684954247,315.3505816885699,315.35064480297166,348.3868589522724,312.77355216440696,311.2216811504419,357.39674379054026,351.38619032929023,307.34150408744824,347.3859431890745,293.3258898574755,342.3801005371356,298.9851692168654,312.34649318866514,299.0310240874914,354.3934691322003,298.331373659,297.3302762110824,374.4146580373824,345.38275254922667,321.3566137750655,298.3141896661688,346.38463506395624,293.32590486507604,301.33470281833394,290.3225429415825,298.9971926834817,298.33136118674463,298.3313629197127,298.3314060512443,301.3982267020092,316.3523080298667,301.330533816296,291.32361967962635,298.3313556975513,307.5509734660297,315.3507745774276,360.3998381534014,312.16069522516614,311.3248745771308,295.3281305182733,299.1245478945772,297.33028024192123,300.0477655943767,300.1016451267712,292.3247827373005,292.3246869199557,376.4178629397685,299.9932014453338,299.72504492672596,301.2513270382379,299.80327220604437,299.4068092997949,297.95604274457634,300.8754925979101,291.32369164932317,300.9903837419772,298.00839513727266,298.05206933431015,299.86484551072874,300.45906270630377,299.2340405083038,300.805326299994,298.3314003201037,299.07071326829384,300.04223488303586,298.33130592950766,298.10136082177235,298.92416650153444,298.12633074436314,301.3058430611644,298.4436358997288,298.49029997023837,301.9713774039733,299.042420994045,298.2989932636366,298.33136462475636,298.3312609806724,297.33027273809176,298.2137201193445,298.9345730140883,298.3313976171797,300.3335737965814,298.7916908169932,299.3324519651415,300.279657402392,301.0918398300372,297.33029533380625,299.17700856831146,301.3328048728825,298.97108167735905,299.26002435810113,312.2104483450955,298.33137848600137,300.51321237084835,299.127166923806,298.5095273307698,300.83464640228374,299.33237415262204,308.4140543954691,309.5818816124718,308.3426196155263,297.77811513215846,299.7024626786678,298.3313275302295,298.0548476704646,301.53100267975464,297.85247607606385,301.7684602095634,299.44328193036455,299.55116976349285,298.3313758487485,298.3305587813654,300.9565938950609,298.21399621643377,301.19094629722343,312.47485799068556,298.33139574743933,299.3324644702252,301.25446869719144,300.68068571836056,298.06524261243965,300.333607415898,299.342657767338,298.3313718238643,313.04705382818787,311.61072372828926,299.8159258726285,314.34707513969704,298.44745621406014,314.34520366676884,299.3454849169225,298.3304888425977,298.32890907208656,298.33136865711606,301.3059013551724,299.2125636668737,300.1894121293064,299.33863716431466,297.83080164811344,299.2735222252714,295.3280428447469,298.3313206748629,298.9706644814193,296.32922272786897,298.273230971606,300.9477690089791,299.95620044767264,299.78006809520866,298.3310016159112,298.3312874293182,300.28005408857734,300.50416711993984,298.67609575914867,298.51692349349213,300.62226991586107,298.39071622770626,298.98686819755306,299.5216481856243,300.05261681744986,298.0267832225593,298.89532521645896,297.33028009678196,299.06952888319637,299.84725105913043,299.32716651435885,291.32368619704897,298.3313878112811,299.36287722882776,299.1725421973595,298.33070507936736,298.72694579628035,300.8094371505446,298.33136913061844,300.4419290548893,300.62076642401996,310.7603905930233,298.1359249634804,299.41639997842805,299.36156673571566,300.83719017163673,298.3307932550652,298.1569284280159,298.33139010175086,299.48891182571543,298.33133677769837,293.3258864722309,297.3302844696495,295.3281314556813,298.33138439868657,300.6688195040588,299.9077835916191,297.9355959317679,300.72008660002825,298.7692512817855,299.3325457871119,298.33129888430494,311.42705531064223,298.27286635284497,298.2882503645126,300.333576185554,298.3313596799825,299.9330147859865,298.32714372786455,297.9732942365502,298.86838335229413,298.33142255237385,298.33138459896475,310.6524458015545,295.32801347693993,300.70812326108626,298.5336881950769,297.9952031510336,299.3324678669858,298.33093307601536,300.1388940145675,298.73280629118267,298.33137388668365,299.8013426623743,298.33138344732276,298.33136269571105,300.089042286553,300.54451152688114,300.1812232317612,299.33138717435895,298.33051761489617,306.3403799157279,298.3138635134221,301.05850406560404,301.9526203309249,298.33142484888276,300.0426538987355,298.33097442407234,298.33136892791714,298.33136327205983,299.3324776730728,298.33140564982034,299.5201736399781,299.33161490856276,301.7984754673872,298.32932234227695,299.53756639669496,340.37792946112484,300.4904149949926,300.96853679480273,301.73342212561556,298.3310777302102,298.9242185028295,298.3311845318634,299.74703110064445,300.15952518069,298.33136576378035,298.95662798935683,298.59754719637266,299.30717308549083,300.3335996129797,301.3346929242911,299.23416727571055,298.33137329807954,298.85830407711325,298.86548211133027,337.37475445276436,300.27747677446007,296.3291761313407,300.1003962003978,298.8425732244054,298.11527523688335,313.33912367487096,298.3313900378398,297.87569060748,299.5875736934267,298.94079734057254,300.18213609259215,299.33226528718535,299.7288363011051,297.7527369588919,299.93300203782815,298.7757837369648,299.78578675841675,310.4214531198728,298.2986477254011,308.6846197888135,300.24065401713244,297.3303053850815,299.9156413583416,311.9216823320301,299.3324727983859,298.6300882469961,300.946137681078,297.5743979571602,300.99864532044916,297.3302789909918,300.07750684484,299.47919268175536,301.01409451391925,299.0687147913971,299.15060835123865,296.32919012502543,298.33133052221694,312.03928302955234,299.73955092549915,299.6234161992942,312.3474377696374,299.4176057064864,312.34735660286714,300.6295150103665,298.3313821817807,298.7947899034246,300.8417101915596,300.33321877701053,299.0316245268771,300.5699478414948,298.33132933118804,299.0547802201299,593.6590556025948,297.33033194068804,299.9936156327911,299.40969118783727,298.03412053597856,299.7127045937263,1081.089051010043,1085.3467855358815,375.4170519779907,300.3876701996761,300.3762242765248,310.3445514625247,1521.0179856320979,310.34452775329606,299.0702474835675,1734.5956012372985,393.4366019004985,315.3506709691595,311.3455483673967,390.43350653200446,374.41495916770054,404.4491247670523,369.4328664342185,307.343216570872,397.44076784909083,368.3375481775773,316.35110602224734,379.4212924607525,299.6550928530497,389.43232191321283,386.4286922858889,314.3488179846264,392.43570217522824,382.424381799763,303.3366992185749,390.4335490621504,375.41560487911556,300.33601002987297,369.4101807926528,375.4164599202985,390.4332326191145,385.4277702597456,316.35094867085576,392.43562207209607,398.44240958781484,396.43936686509124,395.4387301637946,314.34899336728074,392.4354692206047,388.4313534072163,388.43069807195803,391.4343648220109,373.41427941434216,402.42447585448383,396.43989396430226,397.44126643988625,379.4208896604933,396.43987537555824,386.4282477493943,390.4332046521193,405.4498706339373,389.4323188374445,394.4371554387783,401.4453787141463,392.435729950919,386.42829456043216,392.43565650509714,400.4446390869283,389.43236060113185,402.3539202120198,396.4397663427088,388.43131661244973,381.4234065073772,396.4399604572069,389.43216791551407,394.437871701774,390.43320723062095,402.4470655470234,387.4298621678068,391.434455918651,391.43457283352245,396.44018904266994,388.4304260474067,403.66099438509883,396.4402298189718,390.433531697473,389.4314989952556,391.4342716568122,381.4235213749578,399.4410689913167,379.42119121241063,385.42787877742995,383.42547223032585,383.42576751226505,383.42517880507324,392.43545538536625,386.9312944557594,390.4334585444792,386.4291027448193,393.43671934281167,378.42014140867064,391.43451221020064,385.42754345907395,391.43473399049543,390.43353427226435,392.43570386769727,378.4200320671308,391.4339659248752,383.42573502508577,397.44087667114036,398.44218006107525,391.4346344754515,385.4366647604794,378.4198349698061,389.4322709933813,386.4272536131878,403.44788479778316,397.44118401725325,390.4321881383181,388.4310942350204,389.4320734033393,381.42294670116917,383.4257624643713,382.4245496706289,387.4301044446307,388.43122929891666,392.4357689031367,390.43349240717356,390.4329646682495,394.4379290630017,396.4401906663581,379.42130844755695,398.4423953231847,392.43543846413957,392.43573844271594,392.43570572825485,389.4323809413897,396.4401558550189,394.4374737480761,399.44356375799447,401.44532237773427,395.43888268004486,388.4310623986138,383.4250322917179,391.43455415082786,391.4344188118395,394.4374868039606,387.43011169471544,392.43564043958787,388.431322333607,394.43747805733005,392.435317475391,392.4356534374295,393.4368847802424,394.43798597206256,390.4334667269371,391.43448133743243,392.43567293854005,396.4399431671734,395.5581601593752,391.4344559794595,380.42192195420205,389.4323704889667,383.42557801993325,393.43635948256644,389.43242607586046,386.42927192962543,395.4390882329568,391.43439480950457,392.4356941835417,390.43358298912386,395.438142811476,395.43894801444634,389.4754426509254,386.42896970327774,392.4356585338239,368.4089118875262,391.4356653214846,392.4357166081355,390.4337845463004,389.432017109287,392.4357077919799,399.4432480118856,391.4344109650625,403.4480480302469,393.4110375445514,367.4699660914756,390.4332612589949,376.4179608657013,396.44004137702495,397.44132139581967,395.4389935469269,395.43910786995167,400.44422602729884,390.43358519409867,390.4334468789886,370.4104926748083,389.4321835682138,390.43325868517593,366.40684854874144,394.43782563199125,400.44435325329135,373.41464481791695,397.4412734591193,391.43449584758656,397.4412909476485,402.44609384064387,397.44133193759376,395.43910523613226,394.43798014680095,393.4366505940019,395.4388359329922,369.4100682360839,375.4168243297954,396.4400429559696,369.410169164963,388.431904144549,389.43242497158656,390.4334319035584,390.434045524188,386.4290857665322,391.4344178487656,397.44118062871087,365.40569075219616,390.43336942651035,401.44566757365675,396.43639960985166,396.4393447321463,390.4334500481434,392.47134369377284,397.44123934672416,395.4744924622792,394.4380142719787,394.5786845941444,389.53604796594095,401.44548977450086,389.432389549669,386.4291278981792,384.4268350830398,392.43569290134883,382.4246906061041,398.44258615665586,407.4523174489024,396.290937434041,397.44138622845315,397.4412962466659,389.4323886981376,394.4363059024604,394.4380064553432,384.42687971034536,395.43776816676166,394.4331750794577,389.4323058533491,390.43333701371137,390.4327336875174,396.44021055424446,389.4322755285568,393.43690452387216,375.41685492829936,394.4379777980944,389.43177591233837,382.42455538710266,378.4204279123221,383.4256546116363,390.4333154660001,388.4312925856389,400.4771418386103,389.450746339248,382.42457726202355,362.45704933652524,385.42790185439713,388.430464185021,396.440229205166,328.417312815951,391.4346547991047,388.4311687197961,391.43445082644297,384.4267836401119,394.4376161766626,389.4319706874098,370.4112452441174,390.43341546571355,364.40429069085855,388.5960072601827,391.4342891053371,388.431299928107,373.4145746479857,391.43460702600254,391.43374022558214,387.43002943562715,370.4110860192601,397.4409583854156,392.43557522664486,390.4335850381365,396.4400670855218,392.43505717674174,389.43244466484504,388.4309565649042,384.4977168193015,391.4345869612223,391.4346901517967,386.4291206774725,390.50187200934784,390.4334700892508,391.4344734971132,389.4324188400287,390.43351154209125,388.4312390759922,391.43483549991527,390.4309211979226,391.43443475881435,394.43790197712343,391.4346140377388,360.40026039206845,390.43331652001973,388.4314321396095,381.55471173092633,389.4326274062577,391.43463194093306,383.4256236494229,391.43096664030935,363.40345849116056,391.43215547523266,391.4484667217435,390.4334634854911,390.4335313364808,358.39792561021153,391.43454561054784,389.4324295682277,362.40233413084366,391.4344697870297,364.4045457214347,395.4236783750154,397.4423123935418,367.40801262059114,386.42867933537144,367.407610112255,368.4088925309305,389.4052238014865,384.42489512074485,383.42592808111385,387.43019171967677,388.4310282162465,373.5397905394964,373.41462179383205,390.43353434385756,395.43909464081577,390.4309761649469,363.40354868337755,396.44027164237394,386.4289724011763,390.4332513228772,397.41628955777895,388.43134054221423,379.42151612617477,397.4406649310381,384.44163324830697,362.4024280511192,364.40449192821325,383.57941826107134,385.42781191995687,371.4122731055257,365.4052375360543,389.43256850633486,385.42760627541713,383.4254526924412,363.40356677100306,386.42460120731175,365.4058210109156,368.4090801939148,366.4068020884575,366.40672573467083,368.4090688622108,362.4023174708383,393.4368073690725,362.40225293015465,362.4018992407829,362.4022911914029,362.40238446497096,362.57461579342015,389.4323509255531,370.41113008513554,389.432381986834,382.4246376518794,388.4313007077021,381.42377027731965,363.4032675427523,363.4035420802796,366.4064665619388,363.4035197261329,391.43434293187454,393.43684955310334,364.40457197359,385.42788913574014,394.437928000748,364.40462354155045,384.4268285244631,360.40013985362674,383.4254912905911,382.4245194775702,363.4034676092936,376.41790052609065,383.4253724015422,393.4358174509703,369.40988979053003,382.42444054460293,388.43095171549066,394.43659827493485,371.4123199356475,369.41016030479176,389.43209130206526,389.43226634292904,364.40447856244435,391.4344997501555,392.4471862860668,368.40930245042426,369.40979669094696,391.434600810798,361.47625100715203,363.40312246631674,395.4389616064305,376.41791964328473,390.43341040951736,382.4245513345693,361.50986471145745,370.4110454368308,383.42510388636504,388.4312897629005,391.4346449125433,385.4280994602796,390.4329849978809,392.4356720354837,389.4326404273683,381.4234760416924,394.5865841310998,375.4168670197154,391.4344691494171,393.4368743009067,377.41902900130697,383.4259177477297,388.43121072458814,382.42447392286925,383.42564049399795,386.4942624984417,392.4357639843795,389.43240469375644,382.42458309131547,390.43353665155496,387.4301682407652,389.4323514045205,393.43686362770694,382.4245405210099,376.4178274659592,388.43121707660805,370.41115740417064,383.4257394650926,388.4313806201907,388.4312394386257,384.4266843023676,388.4313766467102,377.41829585590676,377.4188906024211,371.41239961432404,378.41841564416484,393.43686779899144,388.43116633165386,389.4324164744009,390.43350017453236,379.42152560308745,387.43041269589366,360.4001835229158,375.4169034980737,385.42781545625616,388.4312186955573,367.4080232527075,381.42361112229656,390.433493900897,383.42949191452345,392.4355572214924,390.4337002716376,382.4245709232651,380.422108510644,369.4101239455093,383.42568377703327,388.4311891489481,388.4312821182573,378.42034302458995,393.43668450353107,370.4110103889542,390.4332760599116,367.4079477021372,379.42109530570815,389.43241630212754,377.4190810784526,383.4256546696504,387.4304531710679,383.4228562852563,390.43340353103326,388.4291190689604,389.43265292399934,389.43245481612314,390.4335510831571,386.42473927253036,390.4334327701504,384.4270762975035,383.4257556225726,387.429987354457,391.42983732957657,382.4245981373898,381.42244325587484,369.41008687467667,375.41680824869565,388.4312421934593,383.42571865458916,388.4313129495221,385.4279897190489,376.4179371360381,375.41680730779643,394.4376659206623,367.4079187160681,389.432398689829,385.4279592849261,387.4302008803454,387.42532884827995,385.4282093962019,388.43120401271943,379.4211925683733,384.42561548646506,388.43148871686225,377.42705445740023,388.43123589404195,385.4218771031894,390.4335156926029,378.4203996900739,388.4295305161605,390.4337492462581,389.42224469445773,376.48533304402156,383.42572528460056,385.4279323423796,390.4337273285009,386.4292955221721,384.42683443556507,388.4312762069807,376.4178173829985,380.42260864323464,363.4035956765005,382.4245097512846,382.42943301087166,382.565564274034,387.4301828897573,395.4387849846673,381.4237614479405,389.43236614162174,385.42779224667123,390.43337696210125,384.4268092831684,366.40576861482276,381.423524366118,388.431286203986,387.43011079260594,366.40679717940867,381.4220932634109,371.4031602388422,381.42892737528314,377.4190671865321,377.4229401561242,370.4103786468144,376.41780969045783,387.430281881566,370.4110679607341,375.41505001792314,370.4112997449541,375.41680600350173,389.43237102079763,392.43571257167383,357.39682569795866,375.41692538641615,366.40689063479175,389.4326506459986,374.415646591422,370.41123557915876,383.4255847863779,374.4155255163775,370.4115013921798,383.42597351156127,373.41484866657146,382.42458010806865,369.4108822214284,367.40762318158426,370.4114941801141,361.4336077807409,376.4179878840336,375.41683975671907,357.3968296632496,384.4269024861079,376.417749716937,374.4156878036814,386.4288724606032,365.405439158512,375.415347912534,374.4156867321395,366.40678223514806,386.42910558008,372.4135247100905,365.4055293662984,381.4232706296883,367.4079051766784,388.431350402423,357.39674563511284,361.40125099434397,377.4186702803055,354.3935664824403,375.41708887926814,383.42461007729236,368.40896460258176,370.4111841600353,372.41137121657897,364.404630358665,358.39764121590764,368.40905181940195,377.4168083747936,363.40333960061383,368.4092710525627,361.4012497604363,366.40680022194493,356.3955588088162,356.39562968196583,385.4276516182498,382.4372871262261,370.4112644747954,378.4202164177554,366.4068377957857,383.4258561059364,357.3966757815912,382.4246754961097,362.40233347147245,380.42243943723247,366.40681748496473,382.42447324268176,365.4056363629237,377.41931539139676,362.402416759488,381.44252969958535,371.41246787508646,371.41241495727803,364.40461156109393,366.40683941972776,371.4121168652684,377.4188535482065,364.40446761885494,375.4168368046375,384.42681458894253,367.40795998928104,381.4235390906853,373.4145083498915,357.39675068376846,383.42592569152026,375.4169266693723,388.4313046928929,370.4112864128497,384.42635196962726,369.4100222392986,358.3971846932591,367.40819467947955,372.4135377408401,363.47450378956677,369.4102220282551,368.4069509128732,363.4024183603252,368.40887183371683,384.4267933558871,380.4222745259282,365.40550308789767,370.41080932087795,355.39462176686095,389.43250422189226,388.431180790284,368.4089583018835,358.3977269771441,358.3981505233513,381.4724473281744,364.40463485375415,382.4214946631599,363.40352503947184,379.42078662786525,378.4204413714286,367.4079382931471,366.4063083019323,361.40125296018203,367.4586818380839,369.4096509355559,364.40451027716676,377.4190392164989,363.40349484856387,378.4203818120127,376.41796367943857,375.41684677866056,376.41791451339117,370.41128104533055,377.4007184983479,369.4100615345699,389.43217693671005,366.406695747163,372.4415641532669,376.4177202844011,361.4057855110227,382.4228809576537,363.40880519122845,375.4167437322807,354.39457988338614,364.40467209028753,385.428133956701,371.41253124601104,362.40225725251224,374.4230425993808,374.4159095136285,357.39706889150636,382.42482991970246,374.4156755919025,345.38340491403744,372.41376455981685,375.4168543086346,364.4041813756453,368.4091295969788,367.40790638846954,384.42711329851676,369.4101494997167,372.41356199365714,372.4132677872249,368.4090750483144,372.41345138051497,385.4278231506765,371.4126121897142,354.39343069747844,383.42574625045995,381.42333955358663,380.45415481057415,371.4124020025748,355.3945157838882,361.401241316625,381.42363768571835,351.39013645658434,370.41062341218924,356.39546157244837,375.41666870189067,382.42452757229546,376.41820494605327,368.4071084166131,370.4112636956194,364.40641217182787,389.4355804376029,363.4054724279552,366.4068561750708,367.40768400417926,388.43109407334833,375.42824982801375,365.40568256493475,362.40235389251217,363.4032062396653,367.40796084228225,382.42482041326923,384.4265030879969,365.40561315662524,369.41019215356886,381.4233911132127,387.43006144434395,375.41694363130404,380.4225110997892,366.4068238735392,389.4324433518707,380.42240388717926,344.3813432261121,389.4309995124302,382.4245811056046,364.4044662447226,374.41596549938424,383.4259389749064,384.42705841053487,378.4201582160891,372.41350795687197,369.4101851639172,378.41781624177145,375.41680227996335,366.40691846488653,383.4251241936398,369.41007970010867,381.4234523740313,364.4045601571089,374.41546662847924,366.40511015771307,368.4093270137181,361.4012553366293,376.4175050346981,371.41222692769054,366.45258095800193,383.42558159098576,355.394874494189,369.41019075622165,372.41333347084674,381.5060662942732,361.4013440769286,378.4201395448929,362.40228103746006,384.4268244842064,374.415652931704,368.46892010740856,340.37801646229053,375.4168351582725,374.41548039204673,357.39677564281476,383.4235083853663,377.4190807101834,367.40789117537895,383.42572795291824,361.40129233701856,369.4101112557437,370.4093026010391,372.413328884212,375.4167409677866,368.40910003006917,376.41797462700987,362.40238008017326,362.40220409030434,370.4112593320991,376.4179118873423,358.3979608689129,364.40105361460706,374.4156743916489,376.4178223123681,363.4034851689552,376.4180776830561,369.4099275130371,361.40129277499443,365.4058051982502,372.4133099383681,374.4156941374779,381.42330497164744,368.40933328128136,351.3908285917996,375.41693576320347,363.403460142673,369.410156818756,381.42350447265324,371.4126410803627,356.39548679847513,369.4102399649348,356.39570622242286,362.3994872970034,375.4166442399881,379.4210583395198,382.4245481098407,385.4281348149216,382.42465489481566,388.43111332582043,369.41010793375943,390.43227006909484,371.41230078214244,368.40896091171555,349.38776041902673,384.42706987118186,368.40904523651807,365.4056016173972,362.4023869152618,363.4034061990989,386.4291005293228,390.4337664875122,383.42575457736837,368.40902936053243,362.4025645135752,363.4034627026026,366.40665564564455,372.41367953658374,378.42017520380944,382.4243577976065,361.4011926173014,364.4045472724675,387.4302206320527,362.4023461350882,364.4046739174603,370.41133632467114,363.4034153075566,374.41570215772475,386.42915228396856,375.4134106067227,370.4109675217003,382.4013638048598,370.41138857551795,362.4118600745119,366.4070805618932,368.4092975654685,369.41000773455505,373.41458583023643,381.42379996979014,356.39551222858915,372.41354602554065,375.41676373765404,355.39483116348833,358.39788518670036,357.3952918461259,363.403518742227,374.41539138116883,366.4070925236688,368.40901927638527,364.4044629161776,375.41672779480507,379.42132466316656,367.4082000888608,364.4044118550905,382.4246571679004,375.4165622075765,374.4158517206779,363.40352088848704,376.41733716796375,375.4167478923578,363.40349857430715,377.41900493773363,374.4159727489645,370.4113408362866,382.4243956813051,376.4177130269238,357.39674931179263,368.4083931974946,362.40217093075677,374.415971480994,372.4133897347852,361.401339346195,381.42351860077906,362.40193384754946,371.4126224338303,384.42671225229793,373.41455016883805,375.41701469636035,381.42369261682364,369.4101852087216,384.4271149763225,368.40847025450086,369.409910521645,380.42236030380076,382.42367629983295,384.426876333674,356.39567954465736,387.4301196873106,370.41130449684215,369.41012244958137,371.41043031883646,384.43200076450603,362.4022939334491,388.4315066730408,382.422045748575,387.43014562475895,366.4066012050013,370.41113860899446,387.42996316604035,373.41403334250987,373.4148744193526,374.41574993953276,376.4179936732594,367.4079416999153,374.41593207673793,361.4015377739868,380.42266308353504,369.41010941160135,383.42582674579523,367.40803224339743,372.4133465929298,381.42347469203014,382.42481604034134,382.4245687300398,378.41943659185097,380.42213725625714,377.41900273246097,376.4179617753171,371.4124277132318,384.4268628337468,378.41994684980364,371.4124022008057,378.42020510009183,376.4179783851414,383.42501056476914,377.41900215099713,376.4177981921036,380.4226203246553,365.40541106311065,381.4233944827503,385.4269017779394,375.41671077490014,377.41908986720705,384.4267721673416,380.4225790951879,371.41239577892946,386.4279955467753,376.41794587703413,375.4167074897678,380.4226424895651,374.4157889652519,395.439118073086,382.4246116604379,373.41455933466506,374.4149644319299,383.42532299717743,364.4048123592469,375.41693960813944,381.42338569809573,375.4128822822714,375.41708021172485,372.4135367314116,372.4137054479765,382.42457458329653,383.42568459166324,374.41561861597376,371.41212415172487,367.4079654058703,382.4244981498007,369.4104041338825,374.4157576063024,372.4135431663016,372.4106988283286,382.42449518177045,377.4189836658602,384.4270262185198,369.41029096773616,368.40893627483655,382.42457817950225,376.4177926948563,375.4168734985978,376.41782649376427,379.4215523511422,376.4177130449479,370.41129239811625,381.4234115022155,368.40870703573466,368.4089028960866,381.423381537246,374.4157033722899,384.42648455520595,383.4256206721322,377.4190892299752,372.413474712007,382.42472308200126,368.4088909791911,371.4122472518491,384.42685441955246,375.4166591782011,376.4180299103408,380.42262373425586,382.4246117410585,381.42378705422976,380.42251967065164,375.4164825023224,373.4147080392567,377.4190509552429,382.424521944381,371.4124009941907,387.42999634298445,374.41573758224604,371.41234175847484,375.41692208663426,375.41623089349116,376.41783419557834,376.4177223070152,371.41250897422947,378.4200864780898,384.426751756694,369.41027066051134,387.430118498005,374.41465343690817,377.4190317669457,371.41242161509734,369.4031078562449,370.41127568489577,377.4191175538882,375.41691315227763,374.4157679536411,370.4106968266326,381.4237609921069,377.4190529178866,382.42485889415866,376.4181486618135,377.4191282155841,374.41553422376575,377.41855005080424,387.4304329541824,370.41128173455104,371.4124219377056,372.4133270112451,381.4236886267766,376.41776152799713,371.41238078516136,375.4168381123677,379.42154404887634,375.4166812906717,375.4166576568875,384.42654520524655,378.4196664702717,382.43568416578313,377.41896432425665,381.42327221088476,370.41123639877884,376.4178509691649,376.41786565332575,376.4180664983623,366.40605041295,370.41102204798955,369.41035852180397,367.4191567800127,373.41460089271857,370.4113174079223,370.411311984456,381.42348443116816,381.42327428745455,373.4145755110696,380.4223201899586,371.4123919067504,376.4177665940052,377.4189434676769,373.41455862268634,375.4168800722722,376.41790384355875,370.4112570728586,368.40912046800656,383.42584432322457,376.41788360455195,373.414593448329,379.4208197009705,380.4225292126257,382.4245148905243,375.4169036025846,377.41885433368935,370.4112363888878,372.41349062214744,375.41703431761056,367.407850487205,368.40789300799236,370.4112080806377,375.4167877500799,369.4068945022057,378.4202017469848,376.4179464147644,373.4147134958958,377.4190949382805,377.4192108748312,375.41683702332494,377.4174466862597,374.4154794391075,364.404568439994,376.41815173519916,372.4133711876153,378.4198242355913,371.41232298035106,377.4190934359659,378.41995579986303,373.4148897205958,377.4190110108396,368.4090964608552,369.4101312274182,367.40575932401487,360.400270811422,377.4170596994971,375.4168325891367,370.411251684669,370.41105638956526,374.4155917362713,372.413556446725,382.4241796919911,381.42340754299687,371.41239413594633,377.418930183459,377.4188438380881,375.41672722414324,368.40885035680765,373.41437989854893,376.4179206623206,372.4134298763705,374.41598208348415,380.42264172785787,377.3903689314346,382.4244880624646,375.41679747974086,371.41237280761004,362.40244184680245,371.41237755399567,373.4148740383403,374.4157216541738,370.41128628819996,371.41224977770395,372.41339820493204,373.41469638852,379.42118648031794,377.41898908128366,377.4190902993311,381.4237291866733,375.4167986575992,375.4168809617448,382.4245116250202,386.42907480778786,371.4123352817085,382.42464605524754,376.4179320202975,377.4190322865824,377.4189399878657,370.41135194845964,375.41693296049465,378.42012350776884,381.42336177900245,376.41779351854984,377.4189598172446,376.4179462923773,381.423535246446,369.41041907540153,375.4167665947944,375.4166795201976,373.41488658938806,377.4189423708664,386.42929956960063,384.42685563057614,374.41568735308954,377.41495430168726,383.42483514680265,374.41544576049387,377.41911159334137,384.4266752602095,381.42720808876265,382.42460907781737,376.4179342704339,380.4225895317805,370.4112463384419,375.4169088537888,381.4237003496081,377.418977740471,371.41241114271435,376.41787077266594,376.4181320031702,368.40930407080714,381.4237647839137,376.41799509179407,373.4146056967649,376.41789834308923,380.4225740792347,375.4167380706862,374.41599389222887,379.42121285472797,382.4248298183977,382.42461917798056,376.4178959732602,382.4245926400394,382.4248977883932,377.4190660516883,369.4101898098055,375.41676830461824,366.4068172747805,388.43056910310224,384.42688962091916,375.41686218089563,383.4256971283584,384.42579891858634,375.4304006984082,383.42599371559214,376.4123073843637,366.40673979477515,362.402552529849,376.4179975384487,374.41577025216145,375.4169426140734,380.4224242930229,375.41691975698603,370.41125830403166,378.4201900329382,380.4226468811289,377.41892682120016,377.4188150892877,377.41917191072474,375.41668338866384,377.4190682858025,376.41757128271814,381.4236699628409,375.4167813509085,375.41466113803625,377.41892109584126,375.41681599103794,372.41361504848373,375.41693573570245,381.42353444881377,377.41900294777486,382.4246079268097,381.4234851921448,376.41789036825156,375.41682548308694,377.4190331568846,375.4170668825513,381.4235010910586,377.4190879042434,377.4190218788143,376.4186827885472,375.4168266549167,381.4229335918399,382.42430526347863,369.4101153905404,378.42006879533824,378.4201783588015,382.42452877395345,377.4152191023701,380.42240628044544,385.4243605151748,381.4233271019504,382.42489405555597,381.4233791081094,379.4199402513022,383.4259746403417,376.4178465124074,381.4232838852361,362.40224147654766,373.4146514887228,377.41906486060327,383.42570075455654,376.41751599136745,382.42267594034865,382.42481230460214,377.41931464878127,375.3846984538463,387.4304201001012,382.42437104742686,377.414884006425,368.41486226094406,376.4177758963657,380.42266854639934,383.4260076844276,376.4180044773373,375.41712470944884,376.41800661097835,373.41454833067667,383.4256018331224,375.4167775887296,376.41798351802817,382.4246849504036,376.4176705821828,375.4168300560891,387.43036035360814,376.41795241428923,377.41908249787605,375.41366777849237,375.4157997159864,376.4178713419025,376.418029874418,375.41628881573297,376.41784255847176,378.4201556645126,374.4159724262547,377.41910461195357,377.4190870030644,377.4190535497022,376.4179224732955,374.38914777722835,375.417027577642,376.4178017097897,368.40927558978734,376.4179829615438,376.4179834754867,376.4177183149072,377.4189585853357,375.41667937595344,378.42016615497425,375.568828144189,372.4134231524839,373.4147019886849,378.4191522541873,377.41891099712524,375.41681348160773,377.4189923694728,377.4190814910429,375.4168651864422,376.41798727533563,374.41575046284754,376.41795118710337,377.4189813684473,375.4170338971583,377.41896362996164,377.41902155212307,382.42447532891674,375.4169250619639,377.4190505929809,384.42709420602546,383.4259588621129,386.4293595925599,377.4190610982664,377.4190866927464,377.41889410457827,381.423775150637,382.42462550959203,371.41236087229873,369.41012393802316,381.423621035245,377.4189902881249,376.4111541620832,382.4248978568449,376.4174101405873,375.4164982810986,374.4157443189539,377.4185253210548,383.42575204198846,382.42456555578076,375.4167857678397,384.4266346571507,374.4156957500372,370.4111759005334,375.4167728590308,375.41683926881063,382.42436023344027,378.4201912256919,377.41904783494914,376.41793437950076,377.41908962850096,384.42685912736675,381.4234052921371,375.4170741455446,374.41564965267355,376.4180635014475,376.41693193842747,375.41672942418,377.4189261482525,376.41778187452013,382.4245667002244,375.41685012951535,380.4216046062363,381.4232370192644,381.42378472081236,378.4203051423673,387.4303885895938,377.41904650301456,376.4178565506618,380.4226491055234,356.3959162434469,381.417749190455,377.4110490421792,385.4278728595591,385.4279542839465,382.4248660219965,372.412816113838,376.4177558461757,376.41795102308987,376.41793353418177,374.415601180289,374.41573283621017,382.42448156922535,383.4257480514465,381.42378600689284,380.42215356854126,382.4245558256331,381.42330423809847,377.41898786308866,374.41558903345316,383.4257622098031,382.42453344902947,383.4257463387113,381.4237810722095,383.42574106798827,382.42448913606887,383.4257622151449,370.41127074673807,378.4200194704885,378.42011764406385,384.4267535222275,376.41795702437213,385.42772166687377,383.4258133276237,377.4189017670883,371.4096764623382,380.42249188848797,390.4336963051263,391.4341899801809,393.4370339122375,382.4247523776428,388.4307192720372,387.43018014805665,388.4312143590463,382.42460001774026,388.43156122018183,388.431226553099,387.4302091165785,388.43155453758607,378.42011336301465,389.4324169047869,381.423459211795,377.4190784511781,382.42449763116764,382.4246085773651,374.41553959636,388.4312963581875,384.42683511755973,366.40670192663106,382.42470139976376,372.4133578772563,375.41501475114154,381.4235017493339,381.42366674982566,375.41666589346613,383.4256444053225,371.41234169143434,376.41817264868763,383.42578845366734,381.42360920032223,384.42673303447805,371.41222812934535,373.4146877311513,382.4247950990171,375.416264127419,375.4167575360324,382.42463638341997,376.4178629888955,373.4145545054226,376.41789808230885,368.40928692571185,376.4179144732971,375.4170562852595,378.42006253640045,382.4247398985535,378.42019383160016,381.42375285284083,382.4246404964033,381.4236313095657,383.4257522846366,375.4170381467642,376.4181268438497,376.4179891595532,377.4190552890804,373.41479580596246,376.41789588106417,376.4178228505848,372.4132501899046,381.42347486617984,381.4234974513833,374.41538219519924,375.4167563545396,378.419903747125,381.4232974314209,376.4180196939184,370.41129572172224,382.42441693034027,376.41792500421167,377.4191447774234,383.42552451715187,369.41009014753274,378.42034942481956,375.41539832503344,372.413512127006,383.4254823127858,376.4180386787322,381.42335248206314,382.4248910342455,366.4067469113762,370.41131340680556,381.4234346046135,381.42353396088424,373.4148147143773,383.4255150766475,376.41799117044195,382.4248569813507,383.42566337946664,382.42460769397064,381.42354414588266,385.4276124559225,383.4257572261055,381.42376541539477,382.4245700314033,381.4236089260425,382.4248547575472,382.42462180975343,381.42345804034505,388.43155844484704,377.41905773934195,375.41693072589004,387.43022370760593,378.41980607154125,383.42535700408587,376.4179166538765,381.4235954753978,376.3912008361139,371.41238538515336,349.3880745302616,348.3870692896149,348.3870970152128,348.3873171420059,348.38715072541993,348.38706728045815,348.3869997734114,348.3861759822466,348.3870150440478,348.38707105653197,348.3867788154675,348.38837286158133,348.38698769173766,348.38687228490664,348.3891111038744,348.3870209753766,348.3871395417284,348.38706925285953,348.38708392888293,348.38708297908425,348.38616073970144,348.3870370152058,348.3869946169864,348.3870087743868,348.38554961563506,348.38702662489834,348.38701840530894,348.38713440724365,348.38709401788793,348.3871324749043,348.3869008817372,348.38688781828546,348.38703142891126,348.38698862689023,348.3870415270241,348.38709186513796,348.3869296472181,348.3871592738503,348.39080174529573,348.3871704301035,348.38713856447094,348.38702670806805,348.3869852638787,348.38707278061315,348.387071490887,348.3871542164298,348.3869190447053,348.3876027589164,348.38705589005497,348.38690084889726,348.3874224761526,348.38706732429824,348.38667841811485,348.3887539072394,348.386262068746,348.38709690769855,348.38911058404904,348.38847820934006,348.38686102022604,348.3869421832654,348.3868418428211,348.3870527500903,348.3870495473808,348.3883707232838,348.3870472832237,348.38812078799924,348.38692621553906,348.38706138905167,348.3862882242653,348.38689773153146,348.38716988870374,348.38674844897565,348.38705436006006,348.3870482419446,348.38801539032016,348.3870939686716,348.3870027836783,348.3855842251299,348.38709602140165,348.3870290419239,348.38709685754384,348.38753023562464,348.3870947416356,348.3887025835307,348.38677571664726,348.38890495741686,348.38690008465517,348.38705039521176,348.38713871931003,348.3870805539288,348.38701696403655,348.38705617917543,348.3870257200206,348.38713286723146,348.3870954584422,348.3870946772809,348.38703782372284,348.3869249033881,348.3870896806401,348.38709500504933,348.391231304084,348.3890889601416,348.3870842332343,348.38612895701914,348.387027055283,348.3854414065029,348.3868415410711,348.38709319942626,348.3857324549097,348.3871393779111,348.38560679976734,348.3870971109872,348.3868601308339,348.38709695341396,348.3869390395964,348.38690427737924,348.3871474743346,348.38705944937465,348.3869916291577,348.38702757778356,348.3869269537416,348.387093985269,348.3885243807488,348.3876196191316,348.38713040413217,348.3885960442645,348.3870966036014,348.3869374579551,348.38703746155363,348.3869214217457,348.387062900477,348.3870952910105,348.3870844791637,348.38754073384086,348.38679823231126,348.38797565363393,348.38714418492526,348.38853993281543,348.38640305000985,348.38691758752526,348.386888550149,348.386918438468,348.3871549076421,348.3870182534338,348.38702266405664,348.3872724214812,348.38708929010534,348.3870041683541,348.38706349714613,348.3870293192436,348.38706879511983,348.3868893867242,348.38708240066364,348.38689234563395,348.3870434517506,348.38704370408,348.387088516005,348.38708381895174,348.3870642634627,348.38693978996446,348.38693204177304,348.387141002097,348.38709298906446,348.38376373514495,348.38708846616953,348.3869309688618,348.3870510628516,348.3906871766745,348.38769763345266,348.3872950103488,348.3870780753317,348.3870174376604,348.38712762745945,348.38701676784035,348.3869820363243,348.38708290367003,348.38708426730125,348.3870431162912,348.38772447630544,348.3869051341783,348.38773337228537,348.38654761961146,348.38684023417557,348.3869333994327,348.3870844497634,348.3870338285786,348.38633309584895,348.38693051525405,348.38702592786905,348.38706261946425,348.38713898590174,348.38768741111494,348.38709201421875,348.38688147352156,348.3871435868649,348.38709689707457,348.3874046249255,348.38737782371845,348.38708262282256,348.38713837255517,348.3870479974679
