,0,1,2,3,4,5,6,7,8,9,10,11,12,13,14,15,16,17,18,19,20,21,22,23,24,25,26,27,28,29,30,31,32,33,34,35,36,37,38,39,40,41,42,43,44,45,46,47,48,49,50,51,52,53,54,55,56,57,58,59,60,61,62,63,64,65,66,67,68,69,70,71,72,73,74,75,76,77,78,79,80,81,82,83,84,85,86,87,88,89,90,91,92,93,94,95,96,97,98,99,100,101,102,103,104,105,106,107,108,109,110,111,112,113,114,115,116,117,118,119,120,121,122,123,124,125,126,127,128,129,130,131,132,133,134,135,136,137,138,139,140,141,142,143,144,145,146,147,148,149,150,151,152,153,154,155,156,157,158,159,160,161,162,163,164,165,166,167,168,169,170,171,172,173,174,175,176,177,178,179,180,181,182,183,184,185,186,187,188,189,190,191,192,193,194,195,196,197,198,199,200,201,202,203,204,205,206,207,208,209,210,211,212,213,214,215,216,217,218,219,220,221,222,223,224,225,226,227,228,229,230,231,232,233,234,235,236,237,238,239,240,241,242,243,244,245,246,247,248,249,250,251,252,253,254,255,256,257,258,259,260,261,262,263,264,265,266,267,268,269,270,271,272,273,274,275,276,277,278,279,280,281,282,283,284,285,286,287,288,289,290,291,292,293,294,295,296,297,298,299,300,301,302,303,304,305,306,307,308,309,310,311,312,313,314,315,316,317,318,319,320,321,322,323,324,325,326,327,328,329,330,331,332,333,334,335,336,337,338,339,340,341,342,343,344,345,346,347,348,349,350,351,352,353,354,355,356,357,358,359,360,361,362,363,364,365,366,367,368,369,370,371,372,373,374,375,376,377,378,379,380,381,382,383,384,385,386,387,388,389,390,391,392,393,394,395,396,397,398,399,400,401,402,403,404,405,406,407,408,409,410,411,412,413,414,415,416,417,418,419,420,421,422,423,424,425,426,427,428,429,430,431,432,433,434,435,436,437,438,439,440,441,442,443,444,445,446,447,448,449,450,451,452,453,454,455,456,457,458,459,460,461,462,463,464,465,466,467,468,469,470,471,472,473,474,475,476,477,478,479,480,481,482,483,484,485,486,487,488,489,490,491,492,493,494,495,496,497,498,499,500,501,502,503,504,505,506,507,508,509,510,511,512,513,514,515,516,517,518,519,520,521,522,523,524,525,526,527,528,529,530,531,532,533,534,535,536,537,538,539,540,541,542,543,544,545,546,547,548,549,550,551,552,553,554,555,556,557,558,559,560,561,562,563,564,565,566,567,568,569,570,571,572,573,574,575,576,577,578,579,580,581,582,583,584,585,586,587,588,589,590,591,592,593,594,595,596,597,598,599,600,601,602,603,604,605,606,607,608,609,610,611,612,613,614,615,616,617,618,619,620,621,622,623,624,625,626,627,628,629,630,631,632,633,634,635,636,637,638,639,640,641,642,643,644,645,646,647,648,649,650,651,652,653,654,655,656,657,658,659,660,661,662,663,664,665,666,667,668,669,670,671,672,673,674,675,676,677,678,679,680,681,682,683,684,685,686,687,688,689,690,691,692,693,694,695,696,697,698,699,700,701,702,703,704,705,706,707,708,709,710,711,712,713,714,715,716,717,718,719,720,721,722,723,724,725,726,727,728,729,730,731,732,733,734,735,736,737,738,739,740,741,742,743,744,745,746,747,748,749,750,751,752,753,754,755,756,757,758,759,760,761,762,763,764,765,766,767,768,769,770,771,772,773,774,775,776,777,778,779,780,781,782,783,784,785,786,787,788,789,790,791,792,793,794,795,796,797,798,799,800,801,802,803,804,805,806,807,808,809,810,811,812,813,814,815,816,817,818,819,820,821,822,823,824,825,826,827,828,829,830,831,832,833,834,835,836,837,838,839,840,841,842,843,844,845,846,847,848,849,850,851,852,853,854,855,856,857,858,859,860,861,862,863,864,865,866,867,868,869,870,871,872,873,874,875,876,877,878,879,880,881,882,883,884,885,886,887,888,889,890,891,892,893,894,895,896,897,898,899,900,901,902,903,904,905,906,907,908,909,910,911,912,913,914,915,916,917,918,919,920,921,922,923,924,925,926,927,928,929,930,931,932,933,934,935,936,937,938,939,940,941,942,943,944,945,946,947,948,949,950,951,952,953,954,955,956,957,958,959,960,961,962,963,964,965,966,967,968,969,970,971,972,973,974,975,976,977,978,979,980,981,982,983,984,985,986,987,988,989,990,991,992,993,994,995,996,997,998,999,1000,1001,1002,1003,1004,1005,1006,1007,1008,1009,1010,1011,1012,1013,1014,1015,1016,1017,1018,1019,1020,1021,1022,1023,1024,1025,1026,1027,1028,1029,1030,1031,1032,1033,1034,1035,1036,1037,1038,1039,1040,1041,1042,1043,1044,1045,1046,1047,1048,1049,1050,1051,1052,1053,1054,1055,1056,1057,1058,1059,1060,1061,1062,1063,1064,1065,1066,1067,1068,1069,1070,1071,1072,1073,1074,1075,1076,1077
0,-5043.117679443208,-4698.0094854313265,-5075.859482284048,-3858.5453556686475,-3931.046741768279,-4618.99537490304,-3853.16329130049,-3934.6964669584536,-3890.6820735530796,-4158.582143011618,-3698.166940898582,-4663.284739222653,-4168.855279550804,-3979.042457089907,-5021.477973438239,-4517.036166753742,-3891.251660822475,-3723.837557838165,-4682.753858509967,-4686.109728624591,-5159.387427894346,-5296.0776923968215,-4449.46274958799,-4970.701965294326,-3547.235918852362,-4586.395186784858,-3720.9781653822133,-4897.882538242426,-3932.934436447151,-4970.824459876936,-4654.589096294382,-4556.7826370000585,-5026.624535900901,-3847.104547091851,-4575.447649279855,-3893.739036302189,-3709.013712204152,-3998.4167720823384,-5167.769144412088,-5048.776147118702,-4888.372587816257,-4494.871057719449,-5088.120741770256,-5066.462143873623,-4049.0830410184863,-4766.640714648784,-4673.330091003152,-4576.298979174891,-5318.902197691352,-4188.276492091591,-4372.942397607234,-4331.57663372992,-4544.6572869821375,-5027.799329082757,-4773.829245734778,-3884.083786905051,-5138.139782506302,-4476.044471095382,-4915.900228659142,-4571.7978376872825,-4111.146427954066,-3908.4016334949883,-4697.785882335093,-3958.327487932042,-4560.6153397684375,-4909.654208748606,-5585.793913345087,-5488.933845555952,-5048.57161358216,-4162.134202872744,-4173.032637425267,-4736.07895407109,-4723.128780409878,-4918.832851401466,-4855.596923094188,-5343.186361860324,-3882.0868708199796,-4832.3181803986245,-4839.667332871678,-3878.802351559507,-4689.803290690635,-4580.058151076923,-4907.481286668025,-4805.767693788015,-4884.809488732962,-4920.555008683286,-4752.222281434067,-3975.536804342351,-4139.297857538762,-5157.232272166402,-4900.063555502637,-4961.939103292158,-5592.304670143692,-4588.020752838666,-3896.2586640111863,-4058.6447865904333,-4716.359681587648,-3548.1940693702727,-4926.093491251102,-4913.2067040303555,-4963.266878629472,-3850.502472948398,-4830.862271700129,-4544.3327838131145,-4020.0929511749337,-4012.0177077350654,-5038.802622249528,-4748.503042673535,-4680.209942999459,-4441.20521658871,-4627.99618559629,-4528.305976023037,-4154.222807726318,-4751.99935359399,-4751.493853896009,-3933.664931717292,-4694.9567347922,-5030.066844152466,-4645.8521934469745,-4660.360811581066,-4628.938467207741,-3836.208930126942,-4357.463061957236,-4710.1145897258675,-4796.121748385229,-5117.038960913086,-4732.149292120463,-4895.78879325926,-4626.055214382869,-3930.6464752103952,-4469.081319166845,-4524.638446704554,-4152.417587245326,-3672.109305253688,-5147.451011386354,-5068.441758770322,-5131.707588532937,-4142.979542958274,-4972.618028635305,-4505.5457484077615,-3738.062000141637,-4620.220395921324,-4584.847065252592,-4478.60777970403,-4634.653513486772,-4961.18194261904,-4600.002676176896,-4699.3308437514315,-4083.227944653396,-4618.697856768084,-4689.59024365042,-4871.363704134659,-4687.050986832556,-3948.5292140333167,-4640.667118265891,-3716.3376314885445,-4796.172651624207,-3946.338045857357,-4585.710428048263,-4600.991105423035,-4604.36111920953,-4718.190428111046,-4768.4880214133,-4696.585337069281,-5212.646554642495,-4947.742128486249,-4625.65719723008,-4638.7896308587515,-4668.7075608774085,-4289.317982486283,-5200.401356188182,-3962.2108438163846,-5113.325817262477,-4574.669681542423,-3916.208575966217,-3866.723324743552,-4740.825929360331,-5192.606326956402,-4283.135452337647,-5072.253850441462,-3629.335839117014,-4583.458551747659,-4027.5490365561777,-4747.650010013851,-4633.587241133263,-4631.20519753546,-3930.5139463003143,-3899.5918037508645,-4766.995910040727,-4229.556463674968,-4150.753407646433,-5117.0595360327825,-4633.685617840795,-3879.8495288500217,-4190.279131259585,-4588.950021139476,-4476.439057895772,-4061.1377719815555,-4570.34997278859,-4078.0370141501303,-4580.113102633999,-4667.414234202361,-4262.442710648214,-4838.377831437876,-5162.419356041269,-4487.9336731829235,-4865.985151997544,-4191.978739287764,-4563.429841286902,-4665.4404707898975,-4060.8433754579746,-3956.7344178870767,-4901.50507879749,-3884.4384850156684,-4597.277499338177,-4162.760251138145,-4361.55030515709,-5021.700901032138,-4551.5175889224465,-4498.535252794947,-4815.907339590695,-4538.405110817742,-3791.102929181788,-4050.989038761233,-4042.436546593853,-4838.281920618257,-4515.509518836343,-3860.7175234432234,-3722.5559331592694,-4195.681544372711,-4708.395601036572,-4903.6805816500755,-4014.6572871430158,-3884.6542420016085,-4427.864004795654,-5065.5615489061565,-4310.596374723222,-4103.941413931981,-4115.422751914826,-4949.67476627755,-3876.3215104135484,-4353.772546812018,-4157.882065230838,-4522.163890659805,-4175.663556409381,-4332.405692721656,-4941.567119314869,-4829.786120686704,-4851.869214034964,-3880.442205420948,-4774.268132740092,-5055.413835622179,-4916.996313007739,-4795.914613113972,-4773.564833430239,-4508.949668850891,-4961.116796054446,-4273.177835338279,-4312.620766609842,-4880.819859904758,-4735.472495586681,-4857.7995385753065,-4860.688712417456,-3963.418986735077,-3674.7508984454644,-4059.443291081946,-5051.512529995655,-4908.163624220727,-4554.340124054244,-4728.5064093099745,-4885.5526645687705,-5025.7424624334435,-4949.614744257272,-4912.201906631176,-4667.8555291022985,-4008.123786203325,-4065.712581981281,-5039.893708377614,-4012.3913963460436,-4758.016192576698,-4834.025419606867,-4981.658620768965,-4853.812750200547,-4658.764413907467,-3944.481437792951,-5019.824247698197,-5021.0321780604645,-4984.894850513433,-4381.06323480538,-4140.114577565316,-3994.6203086088685,-4878.650583738683,-4014.257408127323,-4057.842805567999,-5057.214278990526,-4906.797703317333,-4420.733363266911,-5044.406928041607,-4328.248337770896,-3997.760023723878,-3832.548517031567,-4895.919047327706,-5075.061406023435,-4050.027942392487,-3860.9550617589925,-3983.718394658418,-4553.822988114269,-4441.48447636417,-4306.399796109623,-4399.461646683781,-5022.708919350087,-3652.3493435595624,-3724.7652506596405,-4768.270374648519,-4851.619671887961,-3943.444578121686,-4078.0395363673556,-5045.78432524793,-4181.886149696076,-4316.4940235318445,-4397.792437009975,-4117.957252209858,-5088.997155483482,-3914.4936835958842,-4079.662163582826,-5048.998532694369,-5001.685850045952,-4964.387929590205,-4990.016201554595,-4653.170195268934,-4707.074171993933,-5025.156761906936,-4148.782431829432,-4751.57178489036,-5002.296549480012,-4168.548698579891,-4587.23246541901,-4056.9193285303268,-4054.8019285244914,-4607.711947061312,-4496.997872381338,-4053.034040382661,-4069.9136255257786,-5016.830485306433,-3771.2310617636176,-4014.9148695742765,-4104.202243518988,-4664.730999090527,-4885.537472812061,-5022.305374974732,-4095.9619859428344,-5017.079611646234,-4694.278126835941,-4937.013200474122,-5088.725560377875,-4025.3603004761576,-4987.996447596986,-4992.062262277155,-4765.379497066645,-4111.541276406327,-4849.775914798111,-3974.721547902924,-4401.245424078907,-4076.976295739808,-5084.679515515275,-3958.16379488257,-4507.119103467227,-4639.985744190188,-4085.737634021571,-4060.9146004478084,-4579.72980478905,-4009.2427830141864,-4611.8280732126195,-4035.7169637699444,-5117.251494373378,-5054.388398672884,-3977.309302684314,-4870.730615240698,-4073.2724189122714,-4081.3932780347445,-4082.0453376270752,-4965.378587908392,-4527.86327559182,-3792.5298211894547,-4049.7635468238877,-4188.7825995181265,-4253.274886602029,-4194.874716607044,-4091.330387151197,-3999.0154161947426,-4913.028629075812,-4922.408341269458,-4653.215014025212,-4104.784478314452,-4908.341351398623,-4180.80395083835,-3898.737524367677,-3736.0891181352285,-5009.739354447775,-4269.192163650132,-3755.9904660437037,-4132.171111075914,-5022.417605843415,-4909.708451996766,-4460.2614367581655,-4500.066396534791,-4531.643052560101,-4755.926860146697,-4009.624339597896,-4039.597397923185,-3952.945086613567,-4269.298138044915,-3758.0177905827236,-4055.6245606148386,-3679.176621230175,-4849.3471337260535,-4637.875399902821,-3964.697796900325,-5044.098354997776,-4875.350315396432,-4484.5925589394,-4456.3814623736125,-4577.271931102581,-4832.51080144137,-3791.2772567352094,-4029.9077014773256,-4872.235274330138,-4231.203228166403,-4077.0067975643565,-4528.276595352567,-4933.975739324135,-3988.0778210903823,-4114.425225886822,-4654.59680203425,-3873.053289298407,-3266.8595048434527,-3990.6775343028658,-4095.456811275545,-4055.8788688049785,-3979.5212897024703,-4208.120816061728,-4074.003082625285,-4573.611493008906,-4276.78608833595,-4009.2215723157274,-4080.4940581903343,-3976.0816577882583,-3597.90188888433,-4146.736946190239,-4065.6639956749277,-4913.68479376902,-4522.963276232232,-4216.8061010149995,-4696.177452872651,-3958.53240973429,-3527.487581927591,-4845.442721593024,-4906.377503376586,-4284.425581890118,-4034.7533332681514,-4056.182576262692,-3910.306386529677,-4474.657549083522,-4073.072314187845,-4661.115859229075,-4674.038805047516,-4181.136802600951,-4265.870454675602,-4511.615290967808,-4452.454500775258,-4066.3908291562134,-3941.1036457651003,-4853.356102649773,-4023.9392268489246,-4984.075129473836,-4857.499594896867,-4825.404626472617,-4498.170120254565,-3869.9724012695206,-3657.039917483601,-4952.773344337891,-4640.2481580210415,-4924.461884285224,-3708.8139166799374,-4784.521817898421,-3919.9895675861417,-4102.287569670924,-4953.288573040877,-3927.2789967814433,-4272.450412991192,-3821.714911899882,-4157.371627855114,-4559.913093551765,-4090.7945463406318,-4043.2674660183598,-4984.3237197406725,-4648.405335243334,-4463.988179375342,-4412.226711471053,-5139.232713568443,-4169.1593857598755,-4612.206462711073,-4775.205127233486,-3939.378469045137,-4726.649740888777,-4856.666825443709,-3836.429868818573,-4098.333085693945,-3964.8754466098185,-4706.96162473609,-4063.724844483077,-4964.314073054205,-4147.521394034572,-4046.1449268005877,-4115.193079986867,-4016.3732688505174,-3991.9809287799444,-4017.1759467860584,-4249.145945663791,-3995.9849446432245,-3869.323028404686,-3605.323706972353,-4658.287474794226,-4981.421795054799,-4631.365575692005,-3916.8228321473403,-4094.6978864775433,-3955.449794323516,-3988.353249368064,-4079.0887771465163,-4720.482314982145,-3975.2270130967563,-3675.76195886519,-4057.1049404077644,-4625.506990465099,-4309.743709097124,-4101.082130284292,-4059.339432679918,-3775.7627031315883,-4643.928731941302,-3631.274327325632,-3691.340135984808,-4926.038873405711,-3603.8559700119195,-3864.4067947312524,-3544.1316792322887,-4469.223793272086,-4743.291186693859,-4132.735858377603,-4575.1837283299365,-4148.523554673301,-3746.297606431866,-5088.609298247435,-4030.2893246791887,-4389.030790359721,-4021.102952800803,-4128.612860260052,-5007.120040560073,-3930.511358351437,-4566.225621020053,-4768.320989149472,-4522.178612831103,-4297.470636937514,-4070.9524275538183,-4010.116908333164,-3968.3991008925186,-3940.9012053437473,-4094.976592585947,-4066.54004510381,-5029.8832481625295,-4467.796304647724,-4027.1380866297072,-5096.798330684711,-4956.057112744588,-3946.3308685010543,-4050.934235288931,-4520.950108066856,-4515.201232251909,-4185.426875048293,-4099.463706291652,-4596.669662999763,-4441.23342766249,-4109.3748514814115,-3973.767256531936,-4432.959514407558,-4093.5373685856075,-4114.671400265651,-4157.082370191646,-4397.789773636133,-4067.1184342604893,-4640.5416602562655,-3988.223492604821,-4033.1480490998,-3823.717609586867,-4314.109037790285,-4033.5917477019116,-4112.977621247172,-4751.063756297992,-4468.41764095504,-4044.9429302522385,-4063.7058061825137,-4450.038930940062,-3981.86926259718,-3553.0252131306192,-4049.010157100819,-4026.0047758138553,-4765.0810597616655,-4293.609379986056,-3697.9958641777525,-3990.3172085451074,-3967.818955645938,-3470.179399998091,-4152.046103886725,-4077.404017629589,-4175.875829053637,-4011.7526474502697,-4778.212029672395,-4024.216878058233,-4119.763931735029,-4499.91792442472,-4620.149198474273,-3822.1479246510467,-4073.35246503822,-4840.01423745771,-4916.565918723312,-4090.823139302761,-4968.278344821408,-4268.532310685705,-4034.85808300042,-4078.8151308693277,-4528.864665444289,-3974.5759746097783,-4131.226274553441,-5017.526648653722,-3912.905771358107,-3912.27845860359,-4848.606650223715,-4555.207328189477,-4229.885468424503,-3864.271767949926,-3857.733870875376,-4784.677463484234,-4751.2348478544245,-4469.696951583494,-4279.717952733268,-4007.1848829347273,-4448.379997914604,-3993.0020473453933,-4419.209946848389,-3916.280700223978,-3908.1697208004193,-3956.0695339404438,-4880.644843040463,-4028.2955373765685,-4472.116719340019,-4120.391015126222,-4675.164045523007,-4008.6224745977956,-3511.5499640411963,-4059.964054569893,-3463.813638764192,-4087.061072300526,-4654.931404321062,-4030.8254919692226,-4059.5304172489764,-4600.951855218483,-4443.5966744278985,-4469.452051707276,-4021.337997079244,-4646.313518421256,-4056.7467364847953,-4758.8864597106785,-3883.6520561727552,-4222.557427421958,-4993.0064828057875,-3956.298985767914,-4477.325600861085,-4700.004353973893,-4003.554670763168,-4011.876012024791,-4103.52791271132,-4531.285086435286,-4014.318893866561,-4023.550640288486,-4064.427906467412,-4001.2589052494377,-4168.890348576049,-4798.023987943725,-3956.6149407533744,-4488.381485441602,-3956.6526839111943,-4104.025776413637,-4057.9776084262717,-4538.695706464846,-3951.308217670142,-4162.714961126538,-4076.4582904379936,-3949.781389518731,-4006.407997472594,-4281.9402283252975,-4126.378950573632,-4020.633670849797,-3541.033682283308,-4749.1707943447145,-4061.685044012766,-4708.97677155731,-3997.108684841986,-3744.340023922476,-4112.622268977688,-4690.590045289517,-4715.571214117922,-4268.19098667326,-3647.4462642285966,-4428.933394587954,-4215.80721074627,-3820.6116643896376,-3538.46122505461,-3851.081335140202,-5015.191244617818,-3979.258621606135,-3982.575247418326,-4908.813609770737,-3585.622809348828,-3962.9317273747383,-4006.5909775708296,-4234.5178566613895,-4098.658157908393,-3562.935795012541,-4760.386593449965,-3988.649663718257,-4120.525164755876,-4039.5655193877283,-3994.21441527889,-4025.856160926136,-4175.265028080227,-4499.409948742774,-4594.565437196766,-3628.1092924473046,-3713.8807715176654,-4002.1706325010227,-4633.044985216842,-4140.119626249287,-4054.6124376300636,-4177.8580518899425,-4209.064367559312,-4924.440066862668,-4067.790061891608,-4675.895092590419,-4042.2077686405687,-4262.195133975288,-4049.5390342493897,-4037.605417190535,-3841.5116585042188,-3984.9723246115313,-4076.746053105434,-4804.857680321623,-3973.4198647323087,-4276.583090231703,-4729.487496674848,-4864.184108098036,-4739.910766294098,-4022.3176805604053,-4133.8632678772565,-4858.107728128275,-4212.780945100023,-4027.1427468153724,-3982.4167205688136,-3859.568788482144,-4094.03492320728,-4569.6935875375375,-3985.9829552593205,-4036.8974994298496,-4968.170291166803,-4226.0384154888925,-3646.7323776614644,-4000.6345169292563,-4091.0237922285687,-4833.4552946916365,-4665.8245959696815,-3966.0806828768527,-4140.184330114007,-4210.567237730832,-4459.35288258253,-4600.73739744666,-4071.9150486095573,-4530.163042691634,-4053.133785453856,-4140.711372456426,-4146.583020796457,-4903.383959384664,-4558.629832705534,-4037.298076016039,-4196.68407127885,-4297.981047919633,-4818.289699795789,-4685.540097741391,-4000.7149928943095,-4846.743564794011,-4114.747294650809,-4039.557119878148,-3808.1975309773793,-3669.4516383954997,-4094.9746318297016,-4027.414443553787,-4206.500557201949,-4614.377925452503,-4480.142903255837,-3734.3407225261594,-3886.360442032922,-4032.3407477540704,-4549.3137224596285,-4083.9659709254156,-4960.333571826782,-4759.626149008013,-4133.56756066282,-4099.4391635974025,-4193.107462567352,-4630.923759546181,-4070.1527013134755,-4430.73026109403,-3935.1994235207044,-4086.789920378728,-4029.4338031103666,-3981.6833547669676,-3996.1450431280377,-4689.232661658087,-4053.427039781629,-4479.936421303679,-4208.858249760569,-4480.559421243775,-4589.321443351726,-3241.1507938969266,-4090.017750878329,-4592.565065803302,-4504.369129132692,-3792.105253815955,-4511.77368251709,-4548.437705072085,-4054.903813414142,-4228.073646919834,-4734.459698931109,-3536.863387037536,-4210.953188773709,-4099.090561414777,-4664.009913113843,-4161.476420348362,-3856.226597324668,-3832.8153526778506,-4028.1546348020047,-3594.005135873224,-4168.013320887365,-3643.2831573445956,-4225.480943657071,-4566.474989340264,-4015.4603999985025,-3642.8485056801815,-3565.486641173471,-4171.715663237994,-4846.900570794343,-4182.162516972436,-3973.213178528981,-4273.496063957573,-4833.496485230708,-4537.982922437214,-4055.6961825662856,-3161.29458398444,-3809.62914733167,-3990.1006593924285,-4204.904603443318,-4656.723924483082,-4736.286977574456,-4110.992029363711,-3966.1491247229205,-4055.9198496615845,-4034.4561337396244,-4876.358716009399,-4837.851703601572,-4013.823553670729,-4781.941083962751,-4870.682816679392,-3934.1451919988294,-4160.586083713489,-4111.361329880104,-4150.524842736834,-4734.911069023725,-3445.059907507451,-3639.5136616276795,-3677.7193227148446,-4160.674340556659,-4717.840477952908,-4040.2521073005764,-4118.57295995817,-4244.974847153894,-5272.037026311443,-4007.6506499603597,-4208.964718739311,-4229.324987331496,-4618.129470895449,-4130.299710914032,-4884.295627930149,-3985.610835112205,-4026.512058992959,-4095.1162911669885,-4020.1103169069047,-4001.236860957138,-4274.010639711075,-4191.399791888661,-4117.707628602546,-3773.7804271274076,-3662.3507052567625,-3564.525964130386,-4016.400575992762,-3779.709340345717,-4039.6968634831337,-4218.822659406323,-3775.9105590488716,-4737.7959569500945,-3898.3059498073485,-4500.546132913721,-4423.023054102128,-4952.683267478372,-4598.218508385039,-4384.923522454589,-4183.225127217951,-4016.4472869421925,-4734.785593250673,-4132.275390963328,-3910.6071571635616,-4125.037236488612,-4578.594957873417,-5136.643360048869,-4624.758539701992,-4099.310872151844,-4143.662786892778,-3764.9633129835106,-4167.905196432543,-3765.818761787846,-3858.4453183470846,-4197.158907377737,-4063.366010998015,-3994.0188350153485,-4184.374872732719,-4929.834721656525,-4588.000942858039,-4672.304515283201,-4230.528042216179,-3754.0987598912657,-4096.113968829573,-4321.8581517414905,-4776.313132476189,-4123.820070666854,-4613.908790096709,-3625.409740677734,-4809.22055808838,-4679.417596159677,-4631.702177458433,-4209.614864184777,-4056.4227356029564,-4198.276775637364,-4272.045203670987,-4787.3365692058405,-4841.926546058982,-4043.0623586658403,-4165.920833265494,-4748.737271213339,-4030.3621976855143,-3847.55198816375,-3823.3788549823576,-3961.4821222398714,-4069.7603691013705,-4502.655566470212,-3810.605661863263,-4554.005666435649,-4326.46982640396,-4223.773544833036,-4244.8923555222,-4037.658639021006,-4294.081653733048,-4759.3751973024655,-3718.2984083784395,-3891.3609113290745,-4064.860343383884,-4285.5364167926755,-4761.954992842829,-4095.742898403482,-4032.009083825915,-4774.328646269165,-4113.70042105644,-4595.915273714065,-4146.1275638883,-3941.298808557269,-4028.029130708493,-4030.940483889293,-4368.103374139046,-4245.321601938263,-4169.884227513325,-3610.7648980593453,-4272.616708074999,-3998.938746361364,-3724.8797168107035,-3849.9222341940517,-4872.800174664717,-4234.491426292547,-4143.874388454159,-4664.564977860525,-3784.2819878785767,-4262.999105774964,-4608.32106537389,-4028.071769200827,-4135.240384074438,-3872.431422203891,-4125.668206566217,-4169.432798200468,-4521.669743504174,-4384.0300119747135,-4810.500104156385,-4221.4103632233655,-3610.860320312686,-3845.4987957837643,-3812.975665014616,-3608.112546292234,-4242.5893512687835,-3835.800334014718,-4018.915829093667,-4179.980208270042,-3903.3296698313366,-4459.81447564023,-4147.589858906051,-3789.3586912515457,-4840.10077013144,-4772.084960629334,-4161.8487664974255,-4963.56779386037,-4061.043170172799,-4188.712583548069,-4553.5180586793995,-3600.628837472139,-4637.018903920403,-4136.641143518789,-3824.1330297998475,-4746.635702769903,-4602.812859483568,-4470.925527026258,-3801.7994990458183,-3563.157853765183,-4231.513895986201,-3852.3530232684184,-4582.4610923484715,-4727.049799670743,-3646.889050139877,-4191.115857771827,-4168.376621602885,-4079.0730466916143,-4108.96392517709,-3937.154984532426,-3849.1360002507763,-4578.393534982033,-4609.564749428941,-4791.994964006357,-4492.292806699428,-4107.837812813983,-3986.0373379456455,-3923.673324784792,-4653.585164895501,-3975.5813054241485,-3929.1388229969843,-4134.005109916779,-4056.7021475255365,-3972.2879354146444,-4927.923768605966,-4372.43719171457,-4372.919418567145,-4850.901242585087,-3942.340188297955,-4002.383018630894,-3961.1983373605417,-3888.86693347566,-3893.7789831029763
1,334.37156748329465,335.37267265116975,334.3716177321915,337.3749077549848,337.375067813861,335.3728366772019,337.3752575062401,337.37494649611216,337.3754065396367,336.373865948944,338.3760702834892,335.37267473644124,336.37378951837684,337.37510824096137,334.3717112660429,335.3729077483001,337.37489395433767,338.3765918166943,335.37268387532043,335.37266465971413,334.37169242256925,333.37057266191863,335.3727203740933,334.371524293875,338.376018177194,335.3726878276377,338.37631968016495,335.3726756774891,337.37494722013884,334.3716054039559,334.37178281324327,335.37280023155483,334.3716746708459,337.375368610475,335.3727329570035,337.374897181401,338.3760049223634,337.37506494081293,334.3715739399144,334.37182127309717,334.37171231919854,335.37265480544903,334.37165405974446,334.3715541408313,337.3749489572841,335.37271737598365,335.3727672621147,335.37267216817577,333.3705330532253,336.3737704708973,335.3729695425178,336.3738521110894,335.37265143564116,334.371589939829,335.3727842467579,337.37509008569793,334.3715648591548,335.37264520359753,334.3717160769546,335.37281197933316,336.37380230380325,337.375111175889,335.37277241642596,337.37499122523553,335.372681605954,334.3718200792479,333.37056447255634,333.3704136692606,334.3716081028163,336.373780073439,336.373799447115,335.37277587434977,335.3728185239702,334.37169908266884,334.3717310840541,333.3704434035979,337.37524557087477,334.3715838195857,334.37161986933944,337.3752048649055,335.3728088324127,335.37266322378593,334.3717687145219,334.3715826846609,334.37174203685754,334.37154532807534,334.3718352286725,337.3749348863177,337.37506183249553,334.3715566248416,334.37153502608913,334.37163932016205,333.37043807840536,335.37280258679846,337.37515282441984,337.3749962717071,335.3726430213962,338.3760241604653,334.37153439663786,334.3715677076306,334.3715920655106,337.3749846033511,334.37163172693954,335.37267498370005,337.3750199441642,337.37508487730713,334.3715447964318,334.37158738903213,334.37154734438667,335.37275852196456,335.3726633407428,335.3729296071352,336.37384946824585,335.3726628076202,335.373026017529,337.37497721312945,335.3726434479308,334.37166795108743,334.3715933024017,335.3726452345908,335.37265883443695,337.3750208922702,336.3741193631829,335.3727055996794,335.37282336339297,334.37172103619423,334.3715627445761,334.3716528154622,335.372738115883,337.3750533007189,335.3726546279282,335.3728158270926,337.37504527823256,338.3761883639102,334.3715331690057,334.3716284410783,334.37166503160324,337.3750151686906,334.3717053475142,335.3727596499478,338.37607719722354,335.3726370662271,335.3726780106693,335.3727446585618,335.3726565295888,334.3715543318482,335.37278164803195,335.3728315284673,337.37494438245955,335.3729557759243,335.37275169282447,334.37154498728967,335.37274681256423,337.3748981885992,335.37268511645664,338.376122868627,335.3726769579618,337.37491433809237,335.3726491640638,335.3726640918932,335.3726558291749,335.3728542782836,335.3726564356599,335.372656438554,334.3715479147815,334.3715625173967,335.37264545445714,335.37274231396475,335.372724222645,336.3737865652507,334.3715416550453,337.37502643171365,334.37167161642304,335.3730361620581,337.37504617157185,337.3749672233081,335.37264279347335,334.3717209274207,336.37385338849435,334.37176926108873,338.37604079807073,335.3727203095517,337.374939576649,335.37284064920726,335.3728753203201,335.37277079322433,337.3750243255028,337.37507843852364,335.37266968092115,336.37375049341773,336.37376087001485,334.37175378941413,335.3729858073389,337.37490017783455,336.3738482100824,335.3727402496763,335.37283333356186,336.373793630272,335.37280649310037,337.374995226598,335.37285579543186,335.37272087189393,336.3738274141192,335.37270744074897,334.37154163431114,335.37269217618956,334.37173009682084,336.37388860320493,335.3728313835549,335.3730129964583,337.3749156523915,337.3753167738033,334.37153218058984,337.3751474300526,335.3726794668144,337.3749188513701,336.37376488979237,334.3716144496271,335.37275397586166,336.37399685068596,334.3715613040541,335.3726788265047,338.37599603543936,337.375009770611,337.37524105340884,335.37279461138746,336.3737985072764,338.3761030907986,338.37601892423726,337.37496999125744,335.3729480169011,334.37165603155904,336.3738652839246,337.3750676866541,336.3740192119473,334.3715319871056,336.37389149386473,336.3740178131755,336.3737677671591,334.3717668363649,338.37617264230084,336.37375261511227,337.37496360431754,336.3737732873533,337.3749089507535,336.373757252683,334.3716243084241,334.3718639824473,334.3715620875073,338.3760676582558,335.3726616828582,334.3715453702828,334.3715564376323,334.37159021872566,334.37178343302924,336.37377861574765,334.37182932207025,336.37377863292016,336.37383838801816,334.37172112706077,334.3716936946169,334.37153107856096,334.3716800323745,337.3750768000764,339.3772403876488,337.37521138852316,334.3715774388438,334.3716197711063,336.3737508645285,336.37383455597603,335.3728557596051,334.37158364950693,334.37155419832305,335.3726483651436,336.37385044711306,337.3749058064095,337.37487703996834,334.37164807553893,337.3749115677193,335.37272343840476,335.37265497127896,334.3715662022339,334.3718377233427,335.3728154040312,337.37493038452243,334.37157259954256,334.3715464694152,334.3716399699332,336.3738477659941,337.3748648971786,337.37494113031477,334.37182496431774,337.37513028239516,337.3750205175065,334.3716878613291,334.37157703243054,336.37377333877174,334.3715271497859,336.3738467633956,337.3748825370793,338.3762166634511,334.37164296296964,334.3715634481768,337.37530583123197,338.37603218578784,337.3749183541787,336.3737633008453,336.37415556483006,337.37499236787727,336.37375652695727,334.37158700401346,338.37599676519847,339.3772156063306,335.3728636538937,334.3716402259032,338.37615035478393,337.37490815122425,334.37156904155296,336.37379972714587,336.3737502271816,336.37374894140356,337.3753611338186,334.37167284299784,337.3750635480328,337.37491466075477,334.37157716433603,334.37177659388107,334.3715556310895,334.37161139195996,335.37272791536276,336.37379845702674,334.3715674565806,336.3737537970999,336.373864993242,334.37154660732915,336.3738173718118,335.37265816661903,337.3749068756141,337.37489219194373,335.37284149754964,335.3727613116763,337.3748869227081,337.3749187012243,334.3716976772281,338.3760938135085,337.3748740301457,337.37506000758606,336.3739912578064,334.3716349415569,334.37160707673377,337.3750356346231,334.37180812641884,335.3726756673872,334.37173212611594,334.37160462542755,337.37488676959026,334.3716446280054,334.3716109962441,335.3726950970555,337.3751641087623,335.3727026009206,337.3750532066384,336.3740666884839,337.37536566643007,334.3717664406195,337.3752232103505,335.3728158443612,335.3726900810083,337.3748781741579,337.3749765808788,336.3739018262541,337.3750519955411,335.3727317957379,336.3738819583964,334.3718653537064,334.3715308590701,337.37488406220297,334.37166075956384,337.37488876089895,337.3749013253798,337.37509025247834,334.3716732618117,335.37264270233953,338.3760657500565,337.37525327724694,336.3738550326237,336.3737528981184,337.37492623982797,337.37491509698714,337.3752460098163,334.3715514353432,334.37166167796687,335.37270533973583,337.37489051015245,334.37167198203974,336.3737974044366,337.37497404629386,339.3771874945486,334.3715526454625,336.37391921131376,338.37599702597595,337.3750410972292,335.37270495974724,334.3715680800324,335.37283016810585,336.3738006108781,336.3739942917804,335.37278685487723,337.3748674730578,337.37502504172244,337.3749205143913,336.373899163199,338.3760442323468,337.3749285602405,339.37713749757387,334.3715840644462,335.37272334168375,337.37490050006807,334.3715697566061,334.37153164301617,336.37376272042445,336.37377942393505,335.3726987395596,334.37154724234193,338.37606096132095,337.37502321041444,334.3715792992465,336.37377950463673,337.3749604549225,336.3740121872735,334.3715784125223,337.37510503847716,337.3749234561865,335.3726763862486,337.3749811843907,340.3782878910511,337.37491614729163,336.3738305264732,337.374936633021,337.37492860841627,336.3741424417865,337.37521545566835,336.37380106421347,336.3737735956161,337.37496532681524,337.3751605329752,337.3749207773599,339.3771000274721,337.37501630876534,337.37492077356217,334.37153436125243,335.3727937343054,337.3751267304987,336.3738407163369,337.37495831112597,339.37726130633587,336.37387372414946,335.37268334009036,336.3741897900836,337.3749039161746,337.3749466083086,337.3749814589144,335.37269488303326,337.3749191740507,335.3728789581985,336.3738424773215,337.37491114686446,336.3742540192384,335.3727116082134,336.3738243766627,337.37491167371826,337.3749468863784,334.3715408066038,337.3749642513776,334.37160188774624,334.3717084490736,336.3737902604322,336.3737569586153,337.3748778831565,339.377133346314,334.37156807090366,335.3727362040731,334.371764629235,339.37708637304667,334.3717110296852,337.37512238309296,337.37488009863637,334.3718331506049,337.3752524756518,336.37380248851616,338.37614534160383,336.374005842538,335.37278222330156,337.37500106818817,337.37516957135466,334.37162511360117,335.372700299572,336.3738278091743,336.37413421784623,334.3718699123643,336.3739821247118,335.3726464381692,335.37275469170623,337.37496041366757,335.37271913837003,334.37176212038355,337.3752536872533,336.37389654097757,337.37511438130883,336.37394486193307,337.3750070219386,334.3715280010634,336.3738481382877,337.37496427972366,337.374898275109,337.37498709186116,337.3749126825951,337.3748672777344,337.375054643079,337.37487328482365,337.3750503635551,339.37720659480357,336.37388809382946,334.3717344128089,335.3729491399609,337.3749186120837,337.37487285928097,337.37493090103214,337.37498000792533,337.3751143543603,335.3727214532493,337.3749063503234,339.37746781592995,337.37521615667464,335.3729364959316,336.3738319546549,337.37530471684585,337.37509739768996,338.3763565988801,335.3728877509271,339.37715748506633,339.377208303056,334.37153303513924,339.3771230061534,337.37522958462824,339.3773691013712,336.3739727792372,336.37380354865354,337.37493233961357,335.3729236412271,336.3738255194314,338.37612065000906,334.37154391174886,337.37504503438385,336.37381224951673,337.37494062802494,337.3748959494502,334.37155350195945,337.37501641839174,335.3727303010151,335.3727313179506,335.37276204933175,336.37383096860316,337.37515704918235,337.3751013371845,337.3748708495534,337.3752708589351,337.37491219636513,337.37505715855457,334.37161526170337,336.3738953441122,337.37491420532143,334.37157137411083,334.3716768849862,337.3749431852354,337.3749232199917,336.37384455939446,336.3739881725162,337.375094180247,337.37503632489563,335.3728060316748,336.3737935318533,337.374953041888,337.37517688876477,336.3739002516141,337.37498383374907,337.3750627843814,336.3740287223077,336.3740289876902,337.37507173217335,335.3726399703024,337.3751248356634,337.3748668103888,338.3760392451066,336.37375577830073,337.3753225175148,337.37503152811365,335.372718564924,336.3738751341022,337.37489076060257,337.3749985292179,336.3738416318945,337.37495410207725,339.3772503372913,337.3752261872127,337.3749296991821,335.37277331690206,337.3752012970283,339.3771067539093,337.3750094447325,337.3749416208923,340.37822751430775,336.37401989725294,336.3738879654233,337.3750135404248,337.37500565517723,334.3719125434281,337.37528192323634,337.37489612111443,336.3739818112693,335.3727559982108,338.3760205141218,337.3749818199188,334.3716626805831,334.3716094435456,337.37489219431615,334.37164516363055,336.37393965152836,337.3749805760176,337.37504538104713,335.3727637445697,337.3750179206205,337.375143177094,334.37170615746163,337.37499308039474,337.37526759639684,335.3728733871577,335.3726830361937,337.3750915318227,338.3761674942483,338.376265734128,335.3727547238112,335.37271760602084,336.373762609612,336.3737568483479,337.37494729666423,336.3737672310045,337.375175900319,336.37377483725885,337.37494909593886,337.37510570231103,337.3750810947404,336.3739706009015,337.37497082080097,336.37407064188716,337.3749577701485,335.3727095601374,337.3748744424727,339.3771294510464,337.374898689569,340.3782347243614,337.3750095870237,335.37273425878936,337.3749546656063,337.3751810331955,335.37293962422905,336.37389363632775,336.37398752878585,337.3749912051108,335.37266356979177,337.3749097801408,336.37401019825097,337.37486628169125,337.37523479569745,334.3715280841957,337.3748700733017,336.37401865125986,336.37375676806806,337.3749771476017,337.3748759828259,337.3749181629921,335.3726892654645,337.3752785894943,338.37611411976206,337.3749632479233,337.37523048265194,337.37488578008544,336.3737700245158,337.37490844455357,336.3738310721982,337.3754386208067,337.37494722554953,337.3750023829655,335.37269739752975,337.37494384532073,337.37499120706406,337.3752979692963,337.37505867285086,337.37508844516,337.3751188881471,337.3750734219504,337.3749604848518,339.3772065894235,335.3726861956515,337.3748900913489,335.37279423286634,337.374918877968,338.3762375011215,337.3750609863202,335.37296128352,335.3728522161941,337.375156510077,339.3771291481726,336.374003209038,337.3750565506661,338.3762205504306,339.37708910073377,338.37622853375274,334.37166294645255,337.37493304672734,337.37510556372706,336.373994217139,339.37734800298057,337.37516028610605,337.3750119683147,337.37488177108133,337.37495770899204,339.3771728705274,335.3727483962435,337.3750553795821,337.37511911661977,337.37494492577,337.3749243410896,338.37619312815946,337.3750973624338,336.3738128542628,336.3738119929067,339.37713447976785,339.37713999449676,337.37500962355864,336.373828479989,337.37495627455274,337.37497931575683,337.3750968026463,337.3753348319843,336.37390348982746,337.37491372559856,335.37268561560853,337.3749426158968,337.37500909377593,337.37510380766673,337.37491196964595,338.3760308173848,337.3748900494727,337.3749355744825,335.372767603708,337.3748710498293,337.374992033274,336.37379761293647,336.3738252386516,335.37269350063366,337.3751108070444,337.374887542014,335.3727441640413,337.37492209205055,337.37524502266484,337.37513389903125,338.3761499894425,337.37490973826186,336.3739354297435,337.3751578661496,337.3750251214745,336.3738096543951,337.37493714524885,339.37716596954334,337.3748703851791,337.3751401365234,335.37279103154805,335.3727096710517,337.37497733374846,337.37489481410967,337.37490722966453,336.3741218815208,336.3740905251239,337.3749171678411,336.3738296694197,337.3749319705415,337.37498536019325,337.3752611908858,335.37270034312706,336.37378783496877,337.3751134159789,337.37490891401944,337.37503715924777,335.37268731084055,335.3726548692911,337.3750402983082,335.37266275226096,337.3750807502437,337.3751396884216,338.3761961126452,339.37742240385364,337.3749415484757,337.37498093443,337.37494270166883,336.3737914316614,336.37382042303756,338.3760000768478,338.37609990731664,337.3752187262989,336.3738359004727,337.3751541641085,336.37384932827547,335.37290440138634,337.37492425621065,337.37489539542287,337.3750677458067,335.3726593498966,337.37496463600485,336.3741488841427,337.37491798383564,337.374953535384,337.3750966155957,337.3750672732604,337.37486840649353,336.37379698484847,337.374879626431,336.37379479701707,337.3751684957642,336.373785771968,336.3738641817902,340.3782256471478,337.37497723015053,335.37278498177204,335.37281893161236,338.37638009101175,336.373984457106,335.37270726822294,337.3749764484905,337.37531722627995,335.37274547795386,339.37742370515724,337.37501191059073,337.3748910777602,335.3726870664881,337.3750745925224,338.3760493748951,338.376087016452,337.3750081390646,339.3775038720404,337.3749443562981,339.3771105094474,337.3750925180059,336.3738054120212,337.37487227891563,339.3774194951704,339.37722672059004,337.37503438291225,336.37389783933986,337.37486259615713,337.37519060460534,337.3750205149828,335.37274410291184,336.3739372857523,337.37491400592546,341.3795900578114,338.3763399178747,337.37500906288096,337.37487741503514,336.37376672144126,335.3726475199675,337.37509206791617,338.37607444674296,337.3748815232656,337.37494719684753,335.37279936862063,335.37294562584304,337.37508707725215,336.3737614435217,336.3737899084523,337.3749941377101,337.3748726317961,337.3749605689142,337.37490701138285,335.3729589070484,340.3783390767548,339.3772109998274,339.37716565369425,337.3748966432491,336.37403973491524,337.374939803057,337.3748820235739,337.37506698926813,334.3718053730707,337.37519764585846,337.3749872218072,337.37495724062893,336.3740813678764,337.37500067913606,336.37406815705754,337.37488047945834,337.3752451691545,337.37486144583033,337.3750295198491,337.3749670051205,337.375093162488,337.37493346190547,337.37536676825044,338.37609418510414,339.3772771962871,339.37749670926985,337.37493555980177,338.37644051729706,337.37501565246896,336.37389622216006,338.3759751031795,335.37266852694745,338.3761462069792,336.3739341984475,336.37387523763704,335.37269209395794,335.3729311436601,336.37376656392365,337.3748855505309,337.37488586611914,335.37273636030335,337.3749477646629,338.3762993532209,337.3748865011495,335.3726441473822,334.3716985930749,336.37378281920985,337.37509036769615,337.37501409712905,338.3762855863757,337.37497824104247,338.37598290512653,338.3760900982969,337.37487163289984,337.37502268307657,337.3749844877562,337.3752118381563,336.3737646602705,337.3749148835307,336.3738455639479,337.37519426278106,338.3760379507613,337.3749930638685,337.37526692600346,335.3727140029649,337.37505177252785,337.3750141908406,339.37712325745883,336.37381899004515,336.3737654596237,336.3738014766362,337.3749589850955,337.3748706889357,337.37508002937557,337.37498964730787,336.3738350686774,335.3727163799266,337.37508025425865,337.37504965163055,335.3727191825936,337.37498934017634,338.375985689829,338.376055447293,337.37498889354777,337.3749585796136,335.37273295580434,338.37625661485424,335.3727599220844,337.37490175526585,337.3751449935414,337.3748806358902,337.37491028397517,337.37526374512515,335.37274807182183,338.37601009115616,338.3760041149024,337.3750070252105,337.375084840254,336.3738240032909,337.37499384434267,337.37495185883313,335.37280493967904,337.374948602026,335.37266615657836,337.37490702814284,338.37606978203064,337.37500931300053,337.3753172877747,337.37488424928154,337.375043591437,337.3749062775643,339.37714828220294,337.37511380626904,337.37498470233373,338.3760721580685,339.3774387281289,335.37269898580723,337.37506164546653,337.3748967428248,336.37401688504184,338.37627048847844,337.3748758650749,337.37487230217357,337.3748743036872,337.3749209068816,338.3763803614987,337.3749620430653,337.37490964180313,335.3726943532057,337.3748774460073,335.3729609089259,337.3748683188616,339.3775304659173,338.3759820454463,338.37607603429865,339.37709028452514,337.3749109629697,338.3760702218597,337.37489630539574,337.375034051606,338.3761032630263,336.37396745725056,337.3749537194545,338.3761744827265,335.37297554499975,335.3728783980079,337.37499917257134,335.3728942229767,337.37486422195667,337.3750364507458,336.37401885270697,339.3772265755604,336.37411089420016,337.37498022456026,338.37610350106024,335.3730281004949,335.3726957867873,336.373796373235,338.37619747990715,339.37711195621665,337.3748934984296,338.37606299744414,336.37395757684703,336.37382272265893,339.3776377403801,337.374894467344,337.3752489585287,337.3749369402033,337.3748953993623,337.3749275465095,338.37605694592565,337.3748994703487,335.37278810689077,335.3727109329315,337.37491128792453,337.37508716738404,337.3751329567096,338.3761293871624,336.3739232696122,337.37520050431647,338.37630004464313,337.37507984884365,337.37488056918687,338.37625536911713,335.37280471882104,336.37380439556273,336.373837405961,335.3728206523716,338.3760013104935,337.3752120243904,337.3749281315545,338.3759864160096,338.3759983056337
2,-0.0070154605523505,-0.0058590541370038916,-0.007321444769864411,-0.004903986784101722,-0.004874609986954994,-0.005961450113843305,-0.004848258784200437,-0.004779663146474199,-0.004828223411015043,-0.0051716841415977,-0.004140959774232049,-0.005658731969183398,-0.004804378316021153,-0.004498827856218368,-0.006911451013901613,-0.005794308837533511,-0.0048770277233955136,-0.004184047979244608,-0.005879041793364118,-0.0054065574736032315,-0.006773698815775479,-0.007161982156102908,-0.005597048010129467,-0.0069599520350501765,-0.004354669105515708,-0.006378821080044453,-0.004165632489789585,-0.005214298759548092,-0.004463336958972519,-0.006225243422068446,-0.006055541221973586,-0.0056574589163264095,-0.006265614375373009,-0.004744665791035123,-0.005827409967541118,-0.004818144047259627,-0.004146569720710881,-0.004639955972091011,-0.006802601478268167,-0.0067497257339375885,-0.0065595358641136565,-0.005609714375600333,-0.007141395884125856,-0.007127079332086272,-0.004898217035999807,-0.006163802356865253,-0.005601693522269963,-0.005597455617056919,-0.007413930104711335,-0.0053338600388144735,-0.005664874081599789,-0.005714040958115852,-0.005985567800095566,-0.007174457276459157,-0.006094457953836483,-0.0044118163989819575,-0.006709957054467208,-0.005657785561663201,-0.0065529813206096485,-0.0057260276314539255,-0.005090432531327889,-0.005038765837482499,-0.006091904306884534,-0.0046246396914752875,-0.005526625043660582,-0.006575057863713521,-0.006933814747037016,-0.0072348164305355515,-0.007389636304135512,-0.005106636098214962,-0.00510249890434863,-0.005801596747316144,-0.005615686286912525,-0.0065746482381340765,-0.006569604859277668,-0.007265061567413373,-0.004749592509577154,-0.006506561567428427,-0.0070870758316071356,-0.004814693993423264,-0.00574440156821089,-0.005561681274264419,-0.006434625625755409,-0.006618898483831077,-0.006534470226616423,-0.0067026456810935055,-0.006468875274070758,-0.005130108419183986,-0.0047689743774089145,-0.00674746311908927,-0.00654575909917781,-0.0062994126594040625,-0.007104547573511525,-0.0058937528081367905,-0.0050036741025060675,-0.004892330573555575,-0.006039135061943195,-0.003971976141560319,-0.006533078683431681,-0.006405327235581034,-0.006601886798959726,-0.005004097299887048,-0.006685052746003313,-0.006150993810089842,-0.004713468026454097,-0.004713674460181307,-0.006496067804165014,-0.006213126102135165,-0.006119017663355493,-0.005554903460088358,-0.005383928270941875,-0.006006962105863452,-0.005179427004570196,-0.005787694229721342,-0.00556618798463429,-0.004492561988187764,-0.005156316222594447,-0.006739894225092239,-0.006362743493996499,-0.005391282537530343,-0.005980887154963189,-0.0049230482489107516,-0.005191599475577855,-0.005727310371250109,-0.005161375699204643,-0.0067353751022501945,-0.006116651704067758,-0.006496836082936663,-0.005924433043928423,-0.004911278619669681,-0.005865816736244796,-0.006019275305894406,-0.004914172393126287,-0.004094933866200609,-0.006768046445361049,-0.006901671009842622,-0.007037290988977586,-0.00470229376766487,-0.007134402780469986,-0.00604891920009096,-0.004132372650357312,-0.00569237841845695,-0.005780447657269994,-0.005513738219346064,-0.00578931502832767,-0.007040988128652633,-0.006466287788980512,-0.005891820952334867,-0.004838843322466217,-0.005565791190234519,-0.005127649992397614,-0.00663133503731685,-0.005358877531612385,-0.004813577047182195,-0.005961579061043288,-0.004231983274316495,-0.006256154699634892,-0.004576687625014903,-0.0055515869934086295,-0.0058401768544588785,-0.006110222389802909,-0.006327203875682901,-0.006113812856023053,-0.005687528190683105,-0.006841519136457058,-0.006373934063355617,-0.005979491333436321,-0.006123627827293868,-0.006004008667266977,-0.004985415090883657,-0.006922259527756775,-0.004510228565819113,-0.006982476770395254,-0.005884466407427523,-0.004851810480520298,-0.004919095403747064,-0.006164941737156609,-0.006908697728877106,-0.005453754753276552,-0.006932432472312843,-0.004341466814647878,-0.005973193634462112,-0.004966173151276243,-0.005664305439737045,-0.005805139326335554,-0.006083852380391959,-0.004830166190854114,-0.004865357448694384,-0.006019493170409889,-0.004929335037558888,-0.00500208285544899,-0.007036284377093877,-0.006269464785323009,-0.004878851981122399,-0.004954329915918809,-0.005769337593770487,-0.0055342388698784795,-0.004894784616609736,-0.00609768037823873,-0.0049415950484228465,-0.005425360980677384,-0.005942055406914589,-0.004937297748910004,-0.005249007423952867,-0.006846507398276326,-0.005154080506943561,-0.006373855521327085,-0.00526115805988926,-0.005934708001983969,-0.005908856250355116,-0.004867107679799383,-0.004835338648126567,-0.006661370779072707,-0.005009140101817934,-0.006405702538154119,-0.004828644354237215,-0.0052322986131008685,-0.006439995242517683,-0.0059515072903085844,-0.005472936530900805,-0.006963974827657095,-0.00580489513354306,-0.004407367695121755,-0.004726198856132332,-0.00454993002275112,-0.00615482126147212,-0.005513368019434923,-0.00446540649997749,-0.0044248293791714546,-0.0050960237369928555,-0.005795867076535938,-0.006630386266394762,-0.005201014645155437,-0.004794782823154182,-0.005318523762690185,-0.006379735822081774,-0.005283559435660957,-0.005190937266005911,-0.005491993976559841,-0.007068645947852896,-0.004326548390705219,-0.005817507014348597,-0.005107647650474226,-0.005622299977518925,-0.004925466368545888,-0.00533565638877945,-0.0070343617875490835,-0.007043410249029537,-0.00710633229879627,-0.004391411472757163,-0.00554412009991247,-0.006464931089909341,-0.006552988676021302,-0.0062635621511888855,-0.006476595293189153,-0.0056498515086237985,-0.0063085723644119365,-0.0050093346179868724,-0.005226557771748517,-0.0064800896921665355,-0.0062281155445959215,-0.007005113245550736,-0.006911524553989674,-0.004772813696327567,-0.004041984239864662,-0.004576294863801838,-0.0066148378903075206,-0.006522773121825586,-0.005597091653065898,-0.005494316235601136,-0.005467731450300915,-0.006505399993504061,-0.006500677961653954,-0.006361450938362796,-0.005529130162907838,-0.004686749898093901,-0.0045107479105029845,-0.006732622340145788,-0.004684388455489186,-0.005770079269363689,-0.006190073859177342,-0.007036219676814261,-0.0069723949728639914,-0.005990711506095786,-0.004700132652121333,-0.006622061177856196,-0.006603658199891917,-0.006748072040067392,-0.005587840958585616,-0.004505769974695482,-0.0043915732664490505,-0.007098228598701385,-0.004833432088758629,-0.0047586718119846235,-0.006870951531480422,-0.007115181625213417,-0.005361597806165107,-0.006634687675149387,-0.005193730036082855,-0.004686206752154883,-0.004682229168752086,-0.006938278779473703,-0.006733530383547645,-0.0046854845400199924,-0.00434901655118643,-0.004902930967312089,-0.005638403575056509,-0.005842441874713212,-0.0050359773757852715,-0.005406195180642463,-0.006831376082057626,-0.004359654893053351,-0.0038639603493151845,-0.006395533480069803,-0.006829514261480824,-0.004470501459898764,-0.004693727956055447,-0.006723278197666482,-0.005460751018897968,-0.005827854335256336,-0.005633666501485492,-0.0045633190802012395,-0.006753928218391261,-0.004623023931364435,-0.004718484527496692,-0.006762889416745699,-0.0068212372305429606,-0.006438107587770021,-0.007110616208904225,-0.005521246710321036,-0.005420684611603298,-0.006719305083508494,-0.005537315373147881,-0.0057273831816705215,-0.006737715463782889,-0.005531034460783937,-0.006029115083669924,-0.004834183637222883,-0.004715019212238205,-0.005572154882489967,-0.005860813863334805,-0.0046852058568867564,-0.004708387619749205,-0.00672363028358957,-0.004408524847279313,-0.004739118291029746,-0.004759961205573716,-0.005469535869248481,-0.006874151207406737,-0.006903155710158723,-0.004794166134284274,-0.006255737665231647,-0.005905855698737095,-0.0068320489963894565,-0.0068122745733403866,-0.0048059160087509595,-0.006731714786149289,-0.0072200396797365935,-0.006031228009801574,-0.004792301247437628,-0.006337256977713452,-0.00484641838520207,-0.00563536892649899,-0.004732391555799337,-0.006735779892724781,-0.004805319606234655,-0.005837256972297276,-0.006061398574090701,-0.004634821156612731,-0.0047527176664937535,-0.005399597175813121,-0.004690817569418086,-0.006018701708901807,-0.005299813418219591,-0.00687612268057666,-0.00671447741168774,-0.004727643892795231,-0.006902800225943532,-0.004710948556892771,-0.00483680354510276,-0.004581344623778698,-0.006785846651891724,-0.006205030600594497,-0.004450119386449733,-0.00485147465643889,-0.005310864937066382,-0.005550391547802957,-0.005116952694777493,-0.00467243108479796,-0.004727655866862739,-0.006568846464790503,-0.006963023042970841,-0.006197502779630617,-0.004623791220722578,-0.007079851267548523,-0.005603276246694725,-0.00491098043008076,-0.0039045759241370078,-0.006914507626456466,-0.005528705942209966,-0.00450842748049853,-0.004671798245143208,-0.006465253846571102,-0.0068424353446012234,-0.006186998231947228,-0.0056016072988609375,-0.005674030171666736,-0.006014344162659602,-0.004772484582861622,-0.004754431630221661,-0.004716867091560859,-0.005544283055820298,-0.004489583041558144,-0.004805613357658179,-0.0039366163293178625,-0.006907595259804961,-0.006075100773703773,-0.004834843941690713,-0.0068931622387043995,-0.006909619175814018,-0.005870290429330483,-0.005679461680661016,-0.0061570318984353134,-0.007023413964782945,-0.004513936951545557,-0.004802457235183192,-0.007013508571907342,-0.005613393131506455,-0.004723144315549479,-0.005526995887217756,-0.0072208428980358045,-0.0048205177948624,-0.0046459943972347205,-0.006191906770459348,-0.004917074327936718,-0.003580562629369714,-0.004774053719469294,-0.00552087076735928,-0.004806987091313408,-0.004767701157356247,-0.005662386583856318,-0.004741299784083983,-0.005670294672397686,-0.005638442326048776,-0.004849496106826601,-0.004880020426478212,-0.004824975163542911,-0.004198658375400401,-0.005461291785557042,-0.004801678241183438,-0.006992932081934602,-0.006422500784343198,-0.004920119530770544,-0.005598529283492872,-0.004800871573682077,-0.004123150795495317,-0.005511506772774513,-0.006575785010723629,-0.005586344855618439,-0.0048397248833902924,-0.004833768567009853,-0.004912577618647727,-0.0062595107452601394,-0.004711348938136399,-0.0060828858736016326,-0.005772561808259424,-0.004933351274969333,-0.005548580746570224,-0.006270901541334957,-0.005738186593678396,-0.004804502410114143,-0.004799053258595558,-0.007029566163829584,-0.00478398920908898,-0.006925975588049711,-0.007068249947527702,-0.005690711476753369,-0.005556360530084192,-0.004885901862348926,-0.004083381836943486,-0.006887555942516093,-0.006077556337501898,-0.007048327424750828,-0.004023854354222405,-0.007021210283172061,-0.0050342185361581734,-0.0047211801448647,-0.006901857927684742,-0.004830194698504349,-0.0056267035411204005,-0.004206005873349017,-0.005374153340654081,-0.006289876876218901,-0.004801973675561368,-0.004780682082444074,-0.007061597039560202,-0.0060158376753311925,-0.005664550753870469,-0.004959026659870322,-0.00679082653125938,-0.005370897508166704,-0.0062388663651972,-0.005603019352901574,-0.004717891312427444,-0.00595017402400348,-0.007067592939157179,-0.004780726687139991,-0.005566892605043156,-0.00494597619636382,-0.005508718921065139,-0.004861700297445138,-0.006985412172032278,-0.005478290046748674,-0.004801307456762547,-0.004633213346659778,-0.004800423124500703,-0.004865292968899372,-0.004958693650010531,-0.005144216848591056,-0.00492036362939316,-0.0050195330153475996,-0.004302617927098366,-0.005518352573596483,-0.006850618471158823,-0.0060771443400852235,-0.004955432197229992,-0.004764013051739277,-0.004818559512295469,-0.004839705568115449,-0.00480252389371036,-0.0059318994323825005,-0.004818225789293289,-0.004119524815904413,-0.004822810440351573,-0.006154609903009177,-0.005653038700769936,-0.00479895564497413,-0.004726664623344836,-0.00470984208419226,-0.006048154019398039,-0.003949584426477632,-0.003996593413379128,-0.006949619846362638,-0.004202977316655705,-0.00479114787831439,-0.004152851680497457,-0.005725301908141309,-0.005538711302495171,-0.004745176483986214,-0.0056403802632820615,-0.005413725095017316,-0.00455055721122591,-0.006965429995690079,-0.004919306428226114,-0.005731684215613011,-0.004979541746749892,-0.004816706665078739,-0.006923896283084563,-0.005049843643296234,-0.006262107804423872,-0.006108229386197928,-0.0062927000602972715,-0.005671083603310522,-0.004862103603301741,-0.00484165730640068,-0.0048691613886218945,-0.0050172620024847864,-0.004835215991412142,-0.004735149984801786,-0.006942102453360047,-0.005664115297173698,-0.004826922629666326,-0.007025753638321655,-0.00723035143417942,-0.005015407396202866,-0.004845294290856446,-0.0056456767634792395,-0.005801117239876108,-0.005016367815629941,-0.004839882113714026,-0.006307868305123782,-0.0060509682533018035,-0.004773810893512766,-0.004853357185697631,-0.006003788363661568,-0.004758031024905445,-0.004765474035365785,-0.005419096157520281,-0.006063965016575318,-0.00479406811470655,-0.006172036505502166,-0.004913237094808015,-0.004970722307321566,-0.004233597384170292,-0.005584158217918714,-0.004945417628451295,-0.004797159552217875,-0.006089830005405578,-0.0056941838604699325,-0.004967649527036479,-0.004788061832080102,-0.005971225046076559,-0.004937428420885111,-0.0041802037728070115,-0.004899227251065238,-0.004964798545859045,-0.006007341713500529,-0.00493472423593542,-0.004033743782949537,-0.0050184985390595346,-0.004966752719702308,-0.0036764500974969428,-0.005461980222489414,-0.005595802388433557,-0.005074311211964835,-0.004900269384181811,-0.007147799524713316,-0.004936338339230741,-0.00483412321297797,-0.0056561601713823895,-0.006243187389287433,-0.004256264920940673,-0.004844571516648341,-0.007067066825437333,-0.0073358864673334365,-0.004875657762531133,-0.007030573641318513,-0.005666264748849952,-0.004880215714187522,-0.004872447328645441,-0.005897839530466157,-0.004941932148860304,-0.004781985385722133,-0.007001194359650558,-0.004924080116002608,-0.005045745643125696,-0.0059759225390735434,-0.0062811562564306055,-0.005208791337750299,-0.00422254891847475,-0.004151480157737132,-0.005731633852158372,-0.005734922469538501,-0.0056107873331522175,-0.00567472542630129,-0.004932648002536312,-0.00583191880474124,-0.00504125883458826,-0.005807413404411144,-0.004953439228442734,-0.005004466536312264,-0.005045941107748158,-0.005845923605879858,-0.004791364611199024,-0.005777194458997951,-0.004886255454271093,-0.006233645119881097,-0.0050151873375410844,-0.004209109907540355,-0.0048249909379813275,-0.0037088818412484474,-0.0047944056938323334,-0.006187552856997848,-0.004855973481683221,-0.0049319282340792425,-0.006235803034049322,-0.005804672815277358,-0.005758464641401386,-0.004787737680956536,-0.006021754060963734,-0.0049427119988439145,-0.005910338130581487,-0.005011057587230874,-0.005004141439458158,-0.007050436194628968,-0.0050610038545684756,-0.006182435236906468,-0.0057396730103337484,-0.004886872854905059,-0.004931549857714197,-0.004838303731316102,-0.005776834848899708,-0.005039180924680273,-0.004732379807591869,-0.004835663568330523,-0.005037390206086162,-0.0051951701972008536,-0.006062482132154185,-0.004842958906770396,-0.0057137097017651035,-0.004975529160539019,-0.005236464035578933,-0.004932164503597728,-0.005850842396673955,-0.005063320915389238,-0.005130168552635977,-0.004955981564012497,-0.004996439136715765,-0.004966225813962637,-0.004978850897198803,-0.004796853942316169,-0.00500745834200296,-0.004225035191344728,-0.006223425504474473,-0.004875834331986584,-0.006049507887437352,-0.005004733148408853,-0.0042296339380705475,-0.004836503718945178,-0.0059835042593841935,-0.006232095572764866,-0.004993392922078146,-0.004096178210083216,-0.0057940938994354005,-0.005070568868163318,-0.004318714844047341,-0.0042536987539077776,-0.0042287023431180305,-0.007065888990979719,-0.004937542487757801,-0.004939847310906707,-0.005873580009467909,-0.004114720119022575,-0.005059026554300648,-0.005003538048937875,-0.005060021552604748,-0.004790897381863374,-0.00415175273886444,-0.006053155151015699,-0.0049591879825178105,-0.0048161060376533445,-0.004940061798935485,-0.005083214547435776,-0.004743495636649506,-0.005113622281144628,-0.005777819968908104,-0.0061764981673758925,-0.004053867625765794,-0.004082208929059834,-0.004905880716440356,-0.006011919836247052,-0.004846989412384586,-0.004848861288001312,-0.005060347723738186,-0.005261639781475389,-0.0058431359053275084,-0.004840117958988206,-0.00623640059946383,-0.005015354661269401,-0.004987707148366305,-0.004879606713074378,-0.0049619369489455325,-0.004355806064188921,-0.004986348159593484,-0.004946844559442708,-0.006094069038100164,-0.005102183185687788,-0.00503622832174219,-0.005664421208232277,-0.005781794947729831,-0.0061197890111231576,-0.004849580446758539,-0.005171898606845812,-0.005998054761462308,-0.005109552493703514,-0.004884171846812866,-0.004937168014727779,-0.004372674363377854,-0.004814501857222443,-0.005711267943643097,-0.004886062677707743,-0.004993153605212836,-0.0058830043107486,-0.005006684225551399,-0.0041909721778426254,-0.004970791914648083,-0.00494260882178475,-0.006105411778454104,-0.006094309672412648,-0.004979248988429839,-0.004841933875586986,-0.005038191762477289,-0.005777527114635685,-0.006055776036300164,-0.004925007566233874,-0.006208538954512876,-0.005019594116147331,-0.0048565005868261065,-0.004715115349433016,-0.006014366538015906,-0.005660027179665523,-0.004917828670961558,-0.005127611489813027,-0.005036897174996428,-0.00597934152195303,-0.0062156482801989975,-0.005037662903240042,-0.0056308359146974105,-0.004757288126208876,-0.004947020184709657,-0.004368906892825465,-0.004055829426049564,-0.0047623998248210115,-0.004958920542064796,-0.005121601547135792,-0.00581527130593816,-0.005805313826126065,-0.004439256845611706,-0.004234838536980222,-0.004869920157228617,-0.005787618913558976,-0.005016530740947713,-0.005811349937584391,-0.00600073077418922,-0.0051673575840556546,-0.004916121494550871,-0.00506023200108641,-0.006238865330418259,-0.004882924128773885,-0.005810941263369155,-0.0049616849196731615,-0.004912170296235281,-0.004931793676781376,-0.005010741680433139,-0.0049845714039257576,-0.005718832463696193,-0.004927040376121438,-0.0058321930096723994,-0.005094307595354095,-0.00576023694501053,-0.006237809492052759,-0.003802415647540254,-0.00484097878833666,-0.0063246878730210485,-0.005906048290188436,-0.004441527377235679,-0.00572328944169976,-0.0063610822312693245,-0.0049765323229005965,-0.005048503402496638,-0.006034383382775841,-0.004277015325422048,-0.005107381086126088,-0.004872207534679024,-0.006357159369149026,-0.005220836654083579,-0.004375181522847602,-0.004359361790220648,-0.004914310387969039,-0.004235675606551524,-0.005245792702777937,-0.004097181911296695,-0.005073916947907616,-0.005848734394346056,-0.0050262182361996794,-0.0040889909827077275,-0.004240268409254038,-0.005187465018179968,-0.006213327732687522,-0.005081896802873105,-0.005052949852873576,-0.005095231152851709,-0.006102125703668533,-0.005769043884428148,-0.004977461539333228,-0.003411287810208877,-0.004310859284613671,-0.004959342271667717,-0.004982666584840186,-0.005690442541311041,-0.006046570918082027,-0.004919661395281203,-0.004474412533191879,-0.004876171714623362,-0.004966989267367116,-0.006517074731869909,-0.005988264214003834,-0.0049916011743941415,-0.0060672417673935455,-0.005952276136459607,-0.004990786196961251,-0.00517769924049543,-0.0049039145404978805,-0.0051261920041561606,-0.006191130541654462,-0.0040954179214376775,-0.0040849320512133394,-0.004348667436394938,-0.005200681014493535,-0.005822846273771298,-0.004909996701632127,-0.005244818088659394,-0.005110854493840691,-0.00757480327647086,-0.005168540922219988,-0.005203564466967115,-0.005143061839655581,-0.0061073542230305105,-0.0050270418908526,-0.005964608803745343,-0.005095854499410629,-0.004962984989011468,-0.004958904871429639,-0.0049822743979606645,-0.005077173038620928,-0.005048833868185771,-0.005085038415169049,-0.0052447343936358705,-0.004482998953482151,-0.004128746472516768,-0.004150363869919624,-0.004989751692247892,-0.004427163798592171,-0.005002190274640884,-0.0052445728032036,-0.004409451543519692,-0.0058184696505936395,-0.004269053965721185,-0.005095815174695179,-0.004979242462669849,-0.0060170327133805485,-0.005841281797548336,-0.005151497040316289,-0.004830162634392637,-0.004995446088232283,-0.006090831880583093,-0.005024549860952102,-0.004230499785836821,-0.004829605354396638,-0.005528883544605493,-0.006759631398101974,-0.0056438650947978715,-0.004849001281750568,-0.005194143958763744,-0.004387423293949801,-0.005209707423924391,-0.004443944096759978,-0.004405698046461557,-0.0049757204688001145,-0.004929799950449031,-0.00495253615745312,-0.005164601163784254,-0.006026564526955715,-0.005204077606863964,-0.005697353046223682,-0.00512734125456593,-0.0045029731098533655,-0.004993998992733044,-0.00499273081897935,-0.006050644025389931,-0.005207873240304232,-0.005218660584861148,-0.004135145869215471,-0.006157846343133858,-0.00578549475948597,-0.00627746445892145,-0.005010318822155575,-0.00499266177892963,-0.0052449195237204696,-0.005209769195116542,-0.005762825312965181,-0.006126783256578379,-0.004914790425351497,-0.00515089905574985,-0.006172503988844597,-0.005078095447074234,-0.004441914257458228,-0.004483121577965383,-0.0049859721303357925,-0.005019962897140447,-0.00639674876781216,-0.004503378009233948,-0.006516874236556051,-0.005049648266801781,-0.005102289030433973,-0.005336548129679175,-0.005102659611591045,-0.00507592809751293,-0.0063133929157811585,-0.0045759247023997255,-0.00441434518797925,-0.004958207435114032,-0.005390716708980127,-0.005866809445058487,-0.004995007291335462,-0.005040718245641074,-0.006286853062025616,-0.004993456346607491,-0.00639206627648322,-0.005194289271941782,-0.004621362868569879,-0.005053582345895572,-0.005058542197142311,-0.005254901474109326,-0.005116143470895395,-0.005191021008401915,-0.004332912953070132,-0.005136318481854456,-0.005018687635891103,-0.004527486608668727,-0.004288414604770163,-0.00649439449094137,-0.005315821034792038,-0.005117332033241272,-0.005847713004906714,-0.00446881623085222,-0.005182516108374089,-0.005273779638252418,-0.004980227039272903,-0.005268112558538802,-0.004424532771477483,-0.00505962097344809,-0.005199151767836421,-0.006025328784716851,-0.005137134585318188,-0.006259638719414859,-0.005129590337981596,-0.004355199892005426,-0.00447403612205639,-0.00435538823048254,-0.00422468681378112,-0.005175307544644006,-0.00445425450365532,-0.005098212597199594,-0.005265648840178412,-0.00439849464077413,-0.005799030673678646,-0.005211291394134284,-0.0045377125631538,-0.006296257786255238,-0.006249812959754421,-0.005349996082407436,-0.006475102822823304,-0.0050825071736631325,-0.0051887260077179715,-0.005484949463935039,-0.004214001562037808,-0.006215617341683966,-0.0052692835962433225,-0.004513755065849857,-0.00615502838311718,-0.006384553838492357,-0.0054506410419394805,-0.004471285020626143,-0.00438000933385129,-0.005249692480303345,-0.0044539760079695305,-0.005926278823542395,-0.006221619577767913,-0.004188576829077297,-0.00520399092212475,-0.005252670640479258,-0.0050677992453623645,-0.005126405881140317,-0.00506472132860067,-0.004505678721816385,-0.005221463477619393,-0.005908514192244069,-0.006351228885069995,-0.005340290090511283,-0.005178805802168686,-0.005047364203990574,-0.004331957498877644,-0.0057942942350748755,-0.005152429407807366,-0.004341430931074034,-0.00486473123202245,-0.005147853080706729,-0.00454400484457124,-0.005945473711386004,-0.005156084616944205,-0.00515952321183821,-0.0066799436676782216,-0.0043073083990328815,-0.004931898717819511,-0.005118826220437933,-0.004465316920367177,-0.004350107441085762
3,-13164169.376180798,-13164169.376180798,-13164169.3761808,-13164169.3761808,-13164169.3761808,-13164169.376180802,-13164169.376180802,-13164169.376180802,-13164169.376180803,-13164169.376180803,-13164169.376180803,-13164169.376180805,-13164169.376180805,-13164169.376180805,-13164169.376180807,-13164169.376180807,-13164169.376180807,-13164169.376180809,-13164169.376180809,-13164169.376180809,-13164169.37618081,-13164169.37618081,-13164169.37618081,-13164169.376180813,-13164169.376180813,-13164169.376180813,-13164169.376180815,-13164169.376180815,-13164169.376180815,-13164169.376180816,-13164169.376180816,-13164169.376180818,-13164169.376180818,-13164169.376180818,-13164169.37618082,-13164169.37618082,-13164169.37618082,-13164169.376180822,-13164169.376180822,-13164169.376180822,-13164169.376180824,-13164169.376180824,-13164169.376180824,-13164169.376180826,-13164169.376180826,-13164169.376180826,-13164169.376180828,-13164169.376180828,-13164169.376180828,-13164169.37618083,-13164169.37618083,-13164169.37618083,-13164169.376180831,-13164169.376180831,-13164169.376180831,-13164169.376180833,-13164169.376180833,-13164169.376180833,-13164169.376180835,-13164169.376180835,-13164169.376180835,-13164169.376180837,-13164169.376180837,-13164169.376180837,-13164169.376180839,-13164169.376180839,-13164169.376180839,-13164169.37618084,-13164169.37618084,-13164169.37618084,-13164169.376180843,-13164169.376180843,-13164169.376180843,-13164169.376180844,-13164169.376180844,-13164169.376180844,-13164169.376180846,-13164169.376180846,-13164169.376180846,-13164169.376180848,-13164169.376180848,-13164169.376180848,-13164169.37618085,-13164169.37618085,-13164169.37618085,-13164169.376180852,-13164169.376180852,-13164169.376180852,-13164169.376180854,-13164169.376180854,-13164169.376180854,-13164169.376180856,-13164169.376180856,-13164169.376180856,-13164169.376180857,-13164169.376180857,-13164169.376180857,-13164169.37618086,-13164169.37618086,-13164169.37618086,-13164169.376180861,-13164169.376180861,-13164169.376180861,-13164169.376180863,-13164169.376180863,-13164169.376180863,-13164169.376180865,-13164169.376180865,-13164169.376180865,-13164169.376180867,-13164169.376180867,-13164169.376180869,-13164169.376180869,-13164169.376180869,-13164169.37618087,-13164169.37618087,-13164169.37618087,-13164169.376180872,-13164169.376180872,-13164169.376180872,-13164169.376180874,-13164169.376180874,-13164169.376180874,-13164169.376180876,-13164169.376180876,-13164169.376180876,-13164169.376180878,-13164169.376180878,-13164169.376180878,-13164169.37618088,-13164169.37618088,-13164169.37618088,-13164169.376180882,-13164169.376180882,-13164169.376180882,-13164169.376180883,-13164169.376180883,-13164169.376180883,-13164169.376180885,-13164169.376180885,-13164169.376180885,-13164169.376180887,-13164169.376180887,-13164169.376180887,-13164169.37618089,-13164169.37618089,-13164169.37618089,-13164169.376180891,-13164169.376180891,-13164169.376180891,-13164169.376180893,-13164169.376180893,-13164169.376180893,-13164169.376180895,-13164169.376180895,-13164169.376180895,-13164169.376180897,-13164169.376180897,-13164169.376180897,-13164169.376180898,-13164169.376180898,-13164169.376180898,-13164169.3761809,-13164169.3761809,-13164169.3761809,-13164169.376180902,-13164169.376180902,-13164169.376180902,-13164169.376180904,-13164169.376180904,-13164169.376180904,-13164169.376180906,-13164169.376180906,-13164169.376180906,-13164169.376180908,-13164169.376180908,-13164169.376180908,-13164169.37618091,-13164169.37618091,-13164169.37618091,-13164169.376180911,-13164169.376180911,-13164169.376180911,-13164169.376180913,-13164169.376180913,-13164169.376180913,-13164169.376180915,-13164169.376180915,-13164169.376180915,-13164169.376180917,-13164169.376180917,-13164169.376180917,-13164169.376180919,-13164169.376180919,-13164169.376180919,-13164169.37618092,-13164169.37618092,-13164169.37618092,-13164169.376180923,-13164169.376180923,-13164169.376180923,-13164169.376180924,-13164169.376180924,-13164169.376180924,-13164169.376180926,-13164169.376180926,-13164169.376180926,-13164169.376180928,-13164169.376180928,-13164169.376180928,-13164169.37618093,-13164169.37618093,-13164169.37618093,-13164169.376180932,-13164169.376180932,-13164169.376180932,-13164169.376180934,-13164169.376180934,-13164169.376180934,-13164169.376180934,-13164169.376180936,-13164169.376180936,-13164169.376180936,-13164169.376180938,-13164169.376180938,-13164169.376180938,-13164169.37618094,-13164169.37618094,-13164169.37618094,-13164169.376180941,-13164169.376180941,-13164169.376180941,-13164169.376180943,-13164169.376180943,-13164169.376180943,-13164169.376180945,-13164169.376180945,-13164169.376180945,-13164169.376180947,-13164169.376180947,-13164169.376180947,-13164169.376180949,-13164169.376180949,-13164169.376180949,-13164169.37618095,-13164169.37618095,-13164169.37618095,-13164169.376180952,-13164169.376180952,-13164169.376180952,-13164169.376180954,-13164169.376180954,-13164169.376180954,-13164169.376180956,-13164169.376180956,-13164169.376180956,-13164169.376180958,-13164169.376180958,-13164169.376180958,-13164169.37618096,-13164169.37618096,-13164169.37618096,-13164169.376180962,-13164169.376180962,-13164169.376180962,-13164169.376180964,-13164169.376180964,-13164169.376180964,-13164169.376180965,-13164169.376180965,-13164169.376180965,-13164169.376180967,-13164169.376180967,-13164169.376180967,-13164169.37618097,-13164169.37618097,-13164169.37618097,-13164169.376180971,-13164169.376180971,-13164169.376180971,-13164169.376180973,-13164169.376180973,-13164169.376180973,-13164169.376180975,-13164169.376180975,-13164169.376180975,-13164169.376180977,-13164169.376180977,-13164169.376180977,-13164169.376180978,-13164169.376180978,-13164169.376180978,-13164169.37618098,-13164169.37618098,-13164169.37618098,-13164169.376180982,-13164169.376180982,-13164169.376180982,-13164169.376180984,-13164169.376180984,-13164169.376180984,-13164169.376180984,-13164169.376180986,-13164169.376180986,-13164169.376180986,-13164169.376180988,-13164169.376180988,-13164169.376180988,-13164169.37618099,-13164169.37618099,-13164169.37618099,-13164169.376180992,-13164169.376180992,-13164169.376180992,-13164169.376180993,-13164169.376180993,-13164169.376180993,-13164169.376180995,-13164169.376180995,-13164169.376180995,-13164169.376180997,-13164169.376180997,-13164169.376180997,-13164169.376180999,-13164169.376180999,-13164169.376180999,-13164169.376181,-13164169.376181,-13164169.376181,-13164169.376181003,-13164169.376181003,-13164169.376181003,-13164169.376181005,-13164169.376181005,-13164169.376181005,-13164169.376181006,-13164169.376181006,-13164169.376181006,-13164169.376181008,-13164169.376181008,-13164169.376181008,-13164169.37618101,-13164169.37618101,-13164169.37618101,-13164169.376181012,-13164169.376181012,-13164169.376181012,-13164169.376181012,-13164169.376181014,-13164169.376181014,-13164169.376181014,-13164169.376181016,-13164169.376181016,-13164169.376181016,-13164169.376181018,-13164169.376181018,-13164169.376181018,-13164169.37618102,-13164169.37618102,-13164169.37618102,-13164169.376181021,-13164169.376181021,-13164169.376181021,-13164169.376181023,-13164169.376181023,-13164169.376181023,-13164169.376181025,-13164169.376181025,-13164169.376181025,-13164169.376181027,-13164169.376181027,-13164169.376181027,-13164169.376181029,-13164169.376181029,-13164169.376181029,-13164169.37618103,-13164169.37618103,-13164169.37618103,-13164169.376181033,-13164169.376181033,-13164169.376181033,-13164169.376181034,-13164169.376181034,-13164169.376181034,-13164169.376181034,-13164169.376181036,-13164169.376181036,-13164169.376181036,-13164169.376181038,-13164169.376181038,-13164169.376181038,-13164169.37618104,-13164169.37618104,-13164169.37618104,-13164169.376181042,-13164169.376181042,-13164169.376181042,-13164169.376181044,-13164169.376181044,-13164169.376181044,-13164169.376181046,-13164169.376181046,-13164169.376181046,-13164169.376181047,-13164169.376181047,-13164169.376181047,-13164169.37618105,-13164169.37618105,-13164169.37618105,-13164169.376181051,-13164169.376181051,-13164169.376181051,-13164169.376181053,-13164169.376181053,-13164169.376181053,-13164169.376181055,-13164169.376181055,-13164169.376181055,-13164169.376181055,-13164169.376181057,-13164169.376181057,-13164169.376181057,-13164169.376181059,-13164169.376181059,-13164169.376181059,-13164169.37618106,-13164169.37618106,-13164169.37618106,-13164169.376181062,-13164169.376181062,-13164169.376181062,-13164169.376181064,-13164169.376181064,-13164169.376181064,-13164169.376181066,-13164169.376181066,-13164169.376181066,-13164169.376181068,-13164169.376181068,-13164169.376181068,-13164169.37618107,-13164169.37618107,-13164169.37618107,-13164169.376181072,-13164169.376181072,-13164169.376181072,-13164169.376181072,-13164169.376181073,-13164169.376181073,-13164169.376181073,-13164169.376181075,-13164169.376181075,-13164169.376181075,-13164169.376181077,-13164169.376181077,-13164169.376181077,-13164169.37618108,-13164169.37618108,-13164169.37618108,-13164169.376181081,-13164169.376181081,-13164169.376181081,-13164169.376181083,-13164169.376181083,-13164169.376181083,-13164169.376181085,-13164169.376181085,-13164169.376181085,-13164169.376181087,-13164169.376181087,-13164169.376181087,-13164169.376181088,-13164169.376181088,-13164169.376181088,-13164169.376181088,-13164169.37618109,-13164169.37618109,-13164169.37618109,-13164169.376181092,-13164169.376181092,-13164169.376181092,-13164169.376181094,-13164169.376181094,-13164169.376181094,-13164169.376181096,-13164169.376181096,-13164169.376181096,-13164169.376181098,-13164169.376181098,-13164169.376181098,-13164169.3761811,-13164169.3761811,-13164169.3761811,-13164169.376181101,-13164169.376181101,-13164169.376181101,-13164169.376181101,-13164169.376181103,-13164169.376181103,-13164169.376181103,-13164169.376181105,-13164169.376181105,-13164169.376181105,-13164169.376181107,-13164169.376181107,-13164169.376181107,-13164169.376181109,-13164169.376181109,-13164169.376181109,-13164169.37618111,-13164169.37618111,-13164169.37618111,-13164169.376181113,-13164169.376181113,-13164169.376181113,-13164169.376181114,-13164169.376181114,-13164169.376181114,-13164169.376181114,-13164169.376181116,-13164169.376181116,-13164169.376181116,-13164169.376181118,-13164169.376181118,-13164169.376181118,-13164169.37618112,-13164169.37618112,-13164169.37618112,-13164169.376181122,-13164169.376181122,-13164169.376181122,-13164169.376181124,-13164169.376181124,-13164169.376181124,-13164169.376181126,-13164169.376181126,-13164169.376181126,-13164169.376181128,-13164169.376181128,-13164169.376181128,-13164169.376181128,-13164169.37618113,-13164169.37618113,-13164169.37618113,-13164169.376181131,-13164169.376181131,-13164169.376181131,-13164169.376181133,-13164169.376181133,-13164169.376181133,-13164169.376181135,-13164169.376181135,-13164169.376181135,-13164169.376181137,-13164169.376181137,-13164169.376181137,-13164169.376181139,-13164169.376181139,-13164169.376181139,-13164169.37618114,-13164169.37618114,-13164169.37618114,-13164169.37618114,-13164169.376181142,-13164169.376181142,-13164169.376181142,-13164169.376181144,-13164169.376181144,-13164169.376181144,-13164169.376181146,-13164169.376181146,-13164169.376181146,-13164169.376181148,-13164169.376181148,-13164169.376181148,-13164169.37618115,-13164169.37618115,-13164169.37618115,-13164169.376181152,-13164169.376181152,-13164169.376181152,-13164169.376181152,-13164169.376181154,-13164169.376181154,-13164169.376181154,-13164169.376181155,-13164169.376181155,-13164169.376181155,-13164169.376181157,-13164169.376181157,-13164169.376181157,-13164169.37618116,-13164169.37618116,-13164169.37618116,-13164169.376181161,-13164169.376181161,-13164169.376181161,-13164169.376181161,-13164169.376181163,-13164169.376181163,-13164169.376181163,-13164169.376181165,-13164169.376181165,-13164169.376181165,-13164169.376181167,-13164169.376181167,-13164169.376181167,-13164169.376181168,-13164169.376181168,-13164169.376181168,-13164169.37618117,-13164169.37618117,-13164169.37618117,-13164169.376181172,-13164169.376181172,-13164169.376181172,-13164169.376181172,-13164169.376181174,-13164169.376181174,-13164169.376181174,-13164169.376181176,-13164169.376181176,-13164169.376181176,-13164169.376181178,-13164169.376181178,-13164169.376181178,-13164169.37618118,-13164169.37618118,-13164169.37618118,-13164169.376181182,-13164169.376181182,-13164169.376181182,-13164169.376181182,-13164169.376181183,-13164169.376181183,-13164169.376181183,-13164169.376181185,-13164169.376181185,-13164169.376181185,-13164169.376181187,-13164169.376181187,-13164169.376181187,-13164169.376181189,-13164169.376181189,-13164169.376181189,-13164169.37618119,-13164169.37618119,-13164169.37618119,-13164169.376181193,-13164169.376181193,-13164169.376181193,-13164169.376181193,-13164169.376181195,-13164169.376181195,-13164169.376181195,-13164169.376181196,-13164169.376181196,-13164169.376181196,-13164169.376181198,-13164169.376181198,-13164169.376181198,-13164169.3761812,-13164169.3761812,-13164169.3761812,-13164169.3761812,-13164169.376181202,-13164169.376181202,-13164169.376181202,-13164169.376181204,-13164169.376181204,-13164169.376181204,-13164169.376181206,-13164169.376181206,-13164169.376181206,-13164169.376181208,-13164169.376181208,-13164169.376181208,-13164169.37618121,-13164169.37618121,-13164169.37618121,-13164169.37618121,-13164169.376181211,-13164169.376181211,-13164169.376181211,-13164169.376181213,-13164169.376181213,-13164169.376181213,-13164169.376181215,-13164169.376181215,-13164169.376181215,-13164169.376181217,-13164169.376181217,-13164169.376181217,-13164169.376181219,-13164169.376181219,-13164169.376181219,-13164169.376181219,-13164169.37618122,-13164169.37618122,-13164169.37618122,-13164169.376181222,-13164169.376181222,-13164169.376181222,-13164169.376181224,-13164169.376181224,-13164169.376181224,-13164169.376181226,-13164169.376181226,-13164169.376181226,-13164169.376181228,-13164169.376181228,-13164169.376181228,-13164169.376181228,-13164169.37618123,-13164169.37618123,-13164169.37618123,-13164169.376181232,-13164169.376181232,-13164169.376181232,-13164169.376181234,-13164169.376181234,-13164169.376181234,-13164169.376181236,-13164169.376181236,-13164169.376181236,-13164169.376181236,-13164169.376181237,-13164169.376181237,-13164169.376181237,-13164169.37618124,-13164169.37618124,-13164169.37618124,-13164169.376181241,-13164169.376181241,-13164169.376181241,-13164169.376181243,-13164169.376181243,-13164169.376181243,-13164169.376181243,-13164169.376181245,-13164169.376181245,-13164169.376181245,-13164169.376181247,-13164169.376181247,-13164169.376181247,-13164169.376181249,-13164169.376181249,-13164169.376181249,-13164169.37618125,-13164169.37618125,-13164169.37618125,-13164169.376181252,-13164169.376181252,-13164169.376181252,-13164169.376181252,-13164169.376181254,-13164169.376181254,-13164169.376181254,-13164169.376181256,-13164169.376181256,-13164169.376181256,-13164169.376181258,-13164169.376181258,-13164169.376181258,-13164169.37618126,-13164169.37618126,-13164169.37618126,-13164169.37618126,-13164169.376181262,-13164169.376181262,-13164169.376181262,-13164169.376181263,-13164169.376181263,-13164169.376181263,-13164169.376181265,-13164169.376181265,-13164169.376181265,-13164169.376181267,-13164169.376181267,-13164169.376181267,-13164169.376181267,-13164169.376181269,-13164169.376181269,-13164169.376181269,-13164169.37618127,-13164169.37618127,-13164169.37618127,-13164169.376181273,-13164169.376181273,-13164169.376181273,-13164169.376181275,-13164169.376181275,-13164169.376181275,-13164169.376181275,-13164169.376181277,-13164169.376181277,-13164169.376181277,-13164169.376181278,-13164169.376181278,-13164169.376181278,-13164169.37618128,-13164169.37618128,-13164169.37618128,-13164169.37618128,-13164169.376181282,-13164169.376181282,-13164169.376181282,-13164169.376181284,-13164169.376181284,-13164169.376181284,-13164169.376181286,-13164169.376181286,-13164169.376181286,-13164169.376181288,-13164169.376181288,-13164169.376181288,-13164169.376181288,-13164169.37618129,-13164169.37618129,-13164169.37618129,-13164169.376181291,-13164169.376181291,-13164169.376181291,-13164169.376181293,-13164169.376181293,-13164169.376181293,-13164169.376181295,-13164169.376181295,-13164169.376181295,-13164169.376181295,-13164169.376181297,-13164169.376181297,-13164169.376181297,-13164169.376181299,-13164169.376181299,-13164169.376181299,-13164169.3761813,-13164169.3761813,-13164169.3761813,-13164169.376181303,-13164169.376181303,-13164169.376181303,-13164169.376181303,-13164169.376181304,-13164169.376181304,-13164169.376181304,-13164169.376181306,-13164169.376181306,-13164169.376181306,-13164169.376181308,-13164169.376181308,-13164169.376181308,-13164169.376181308,-13164169.37618131,-13164169.37618131,-13164169.37618131,-13164169.376181312,-13164169.376181312,-13164169.376181312,-13164169.376181314,-13164169.376181314,-13164169.376181314,-13164169.376181316,-13164169.376181316,-13164169.376181316,-13164169.376181316,-13164169.376181317,-13164169.376181317,-13164169.376181317,-13164169.37618132,-13164169.37618132,-13164169.37618132,-13164169.376181321,-13164169.376181321,-13164169.376181321,-13164169.376181321,-13164169.376181323,-13164169.376181323,-13164169.376181323,-13164169.376181325,-13164169.376181325,-13164169.376181325,-13164169.376181327,-13164169.376181327,-13164169.376181327,-13164169.376181329,-13164169.376181329,-13164169.376181329,-13164169.376181329,-13164169.37618133,-13164169.37618133,-13164169.37618133,-13164169.376181332,-13164169.376181332,-13164169.376181332,-13164169.376181334,-13164169.376181334,-13164169.376181334,-13164169.376181334,-13164169.376181336,-13164169.376181336,-13164169.376181336,-13164169.376181338,-13164169.376181338,-13164169.376181338,-13164169.37618134,-13164169.37618134,-13164169.37618134,-13164169.37618134,-13164169.376181342,-13164169.376181342,-13164169.376181342,-13164169.376181344,-13164169.376181344,-13164169.376181344,-13164169.376181345,-13164169.376181345,-13164169.376181345,-13164169.376181345,-13164169.376181347,-13164169.376181347,-13164169.376181347,-13164169.37618135,-13164169.37618135,-13164169.37618135,-13164169.376181351,-13164169.376181351,-13164169.376181351,-13164169.376181353,-13164169.376181353,-13164169.376181353,-13164169.376181353,-13164169.376181355,-13164169.376181355,-13164169.376181355,-13164169.376181357,-13164169.376181357,-13164169.376181357,-13164169.376181358,-13164169.376181358,-13164169.376181358,-13164169.376181358,-13164169.37618136,-13164169.37618136,-13164169.37618136,-13164169.376181362,-13164169.376181362,-13164169.376181362,-13164169.376181364,-13164169.376181364,-13164169.376181364,-13164169.376181364,-13164169.376181366,-13164169.376181366,-13164169.376181366,-13164169.376181368,-13164169.376181368,-13164169.376181368,-13164169.37618137,-13164169.37618137,-13164169.37618137,-13164169.37618137,-13164169.376181372,-13164169.376181372,-13164169.376181372,-13164169.376181373,-13164169.376181373,-13164169.376181373,-13164169.376181375,-13164169.376181375,-13164169.376181375,-13164169.376181375,-13164169.376181377,-13164169.376181377,-13164169.376181377,-13164169.376181379,-13164169.376181379,-13164169.376181379,-13164169.37618138,-13164169.37618138,-13164169.37618138,-13164169.37618138,-13164169.376181383,-13164169.376181383,-13164169.376181383,-13164169.376181385,-13164169.376181385,-13164169.376181385,-13164169.376181386,-13164169.376181386,-13164169.376181386,-13164169.376181386,-13164169.376181388,-13164169.376181388,-13164169.376181388,-13164169.37618139,-13164169.37618139,-13164169.37618139,-13164169.376181392,-13164169.376181392,-13164169.376181392,-13164169.376181392,-13164169.376181394,-13164169.376181394,-13164169.376181394,-13164169.376181396,-13164169.376181396,-13164169.376181396,-13164169.376181398,-13164169.376181398,-13164169.376181398,-13164169.376181398,-13164169.3761814,-13164169.3761814,-13164169.3761814,-13164169.376181401,-13164169.376181401,-13164169.376181401,-13164169.376181403,-13164169.376181403,-13164169.376181403,-13164169.376181403,-13164169.376181405,-13164169.376181405,-13164169.376181405,-13164169.376181407,-13164169.376181407,-13164169.376181407,-13164169.376181407,-13164169.376181409,-13164169.376181409,-13164169.376181409,-13164169.37618141,-13164169.37618141,-13164169.37618141,-13164169.376181412,-13164169.376181412,-13164169.376181412,-13164169.376181412,-13164169.376181414,-13164169.376181414,-13164169.376181414,-13164169.376181416,-13164169.376181416,-13164169.376181416,-13164169.376181418,-13164169.376181418,-13164169.376181418,-13164169.376181418,-13164169.37618142,-13164169.37618142,-13164169.37618142,-13164169.376181422,-13164169.376181422,-13164169.376181422,-13164169.376181424,-13164169.376181424,-13164169.376181424,-13164169.376181424,-13164169.376181426,-13164169.376181426,-13164169.376181426,-13164169.376181427,-13164169.376181427,-13164169.376181427,-13164169.376181427,-13164169.37618143,-13164169.37618143,-13164169.37618143,-13164169.376181431,-13164169.376181431,-13164169.376181431,-13164169.376181433,-13164169.376181433,-13164169.376181433,-13164169.376181433,-13164169.376181435,-13164169.376181435
