,0,1,2,3,4,5,6,7,8,9,10,11,12,13,14,15,16,17,18,19,20,21,22,23,24,25,26,27,28,29,30,31,32,33,34,35,36,37,38,39,40,41,42,43,44,45,46,47,48,49,50,51,52,53,54,55,56,57,58,59,60,61,62,63,64,65,66,67,68,69,70,71,72,73,74,75,76,77,78,79,80,81,82,83,84,85,86,87,88,89,90,91,92,93,94,95,96,97,98,99,100,101,102,103,104,105,106,107,108,109,110,111,112,113,114,115,116,117,118,119,120,121,122,123,124,125,126,127,128,129,130,131,132,133,134,135,136,137,138,139,140,141,142,143,144,145,146,147,148,149,150,151,152,153,154,155,156,157,158,159,160,161,162,163,164,165,166,167,168,169,170,171,172,173,174,175,176,177,178,179,180,181,182,183,184,185,186,187,188,189,190,191,192,193,194,195,196,197,198,199,200,201,202,203,204,205,206,207,208,209,210,211,212,213,214,215,216,217,218,219,220,221,222,223,224,225,226,227,228,229,230,231,232,233,234,235,236,237,238,239,240,241,242,243,244,245,246,247,248,249,250,251,252,253,254,255,256,257,258,259,260,261,262,263,264,265,266,267,268,269,270,271,272,273,274,275,276,277,278,279,280,281,282,283,284,285,286,287,288,289,290,291,292,293,294,295,296,297,298,299,300,301,302,303,304,305,306,307,308,309,310,311,312,313,314,315,316,317,318,319,320,321,322,323,324,325,326,327,328,329,330,331,332,333,334,335,336,337,338,339,340,341,342,343,344,345,346,347,348,349,350,351,352,353,354,355,356,357,358,359,360,361,362,363,364,365,366,367,368,369,370,371,372,373,374,375,376,377,378,379,380,381,382,383,384,385,386,387,388,389,390,391,392,393,394,395,396,397,398,399,400,401,402,403,404,405,406,407,408,409,410,411,412,413,414,415,416,417,418,419,420,421,422,423,424,425,426,427,428,429,430,431,432,433,434,435,436,437,438,439,440,441,442,443,444,445,446,447,448,449,450,451,452,453,454,455,456,457,458,459,460,461,462,463,464,465,466,467,468,469,470,471,472,473,474,475,476,477,478,479,480,481,482,483,484,485,486,487,488,489,490,491,492,493,494,495,496,497,498,499,500,501,502,503,504,505,506,507,508,509,510,511,512,513,514,515,516,517,518,519,520,521,522,523,524,525,526,527,528,529,530,531,532,533,534,535,536,537,538,539,540,541,542,543,544,545,546,547,548,549,550,551,552,553,554,555,556,557,558,559,560,561,562,563,564,565,566,567,568,569,570,571,572,573,574,575,576,577,578,579,580,581,582,583,584,585,586,587,588,589,590,591,592,593,594,595,596,597,598,599,600,601,602,603,604,605,606,607,608,609,610,611,612,613,614,615,616,617,618,619,620,621,622,623,624,625,626,627,628,629,630,631,632,633,634,635,636,637,638,639,640,641,642,643,644,645,646,647,648,649,650,651,652,653,654,655,656,657,658,659,660,661,662,663,664,665,666,667,668,669,670,671,672,673,674,675,676,677,678,679,680,681,682,683,684,685,686,687,688,689,690,691,692,693,694,695,696,697,698,699,700,701,702,703,704,705,706,707,708,709,710,711,712,713,714,715,716,717,718,719,720,721,722,723,724,725,726,727,728,729,730,731,732,733,734,735,736,737,738,739,740,741,742,743,744,745,746,747,748,749,750,751,752,753,754,755,756,757,758,759,760,761,762,763,764,765,766,767,768,769,770,771,772,773,774,775,776,777,778,779,780,781,782,783,784,785,786,787,788,789,790,791,792,793,794,795,796,797,798,799,800,801,802,803,804,805,806,807,808,809,810,811,812,813,814,815,816,817,818,819,820,821,822,823,824,825,826,827,828,829,830,831,832,833,834,835,836,837,838,839,840,841,842,843,844,845,846,847,848,849,850,851,852,853,854,855,856,857,858,859,860,861,862,863,864,865,866,867,868,869,870,871,872,873,874,875,876,877,878,879,880,881,882,883,884,885,886,887,888,889,890,891,892,893,894,895,896,897,898,899,900,901,902,903,904,905,906,907,908,909,910,911,912,913,914,915,916,917,918,919,920,921,922,923,924,925,926,927,928,929,930,931,932,933,934,935,936,937,938,939,940,941,942,943,944,945,946,947,948,949,950,951,952,953,954,955,956,957,958,959,960,961,962,963,964,965,966
0,-2800.4707413264205,-2788.7790375080253,-2821.5588399446383,-2795.6139098081967,-2808.7173745497153,-2785.6447232832647,-2774.5843998271685,-2788.2831261444308,-2811.8511304986678,-2763.583350036011,-2759.766361004941,-2546.5218348537232,-2552.9802610437237,-2771.188161617442,-2768.882456402592,-2760.1099740093437,-2676.1901265174906,-2541.2649323508513,-2575.9812562024604,-2785.9246497543027,-2650.0843254659203,-2567.7861935787864,-2544.1067327373985,-2543.280241044177,-2767.9310215189257,-2559.3718048057804,-2825.016917146851,-2788.8726504414144,-2550.598473214019,-2784.72674148587,-2671.6668601849933,-2795.8258168438656,-2746.3585834815476,-2773.9173228315885,-2770.1735017833475,-2561.834361736871,-2567.1735675880395,-2559.7617805468926,-2588.4366346612633,-2576.937149039773,-2949.4487316477216,-2786.5024135390327,-2784.9183396358662,-2805.7783671982647,-2548.268126880909,-2714.896010202244,-2705.5938557238974,-2546.256997372173,-2578.073615020852,-2826.124504015885,-2672.644327503088,-2557.4816065710365,-2577.080246712534,-2670.3817277783874,-2677.8159497462693,-2702.3791965956484,-2797.9302764039426,-2551.3028089935588,-2537.6212192256053,-2683.1833864818163,-2636.9211275177545,-2718.9790151488237,-2731.339336375179,-2707.1146227286013,-2809.5623999944023,-2737.0048420926655,-2577.670995843952,-2593.5841459696735,-2814.8143767873903,-2814.818269603381,-2568.515726255298,-2798.619660946277,-2832.644248476694,-2572.881926203734,-2585.489357109438,-2707.6194209596465,-2719.277997927041,-2648.5267887466384,-2602.883258366462,-2631.6287527180557,-2712.2147953820922,-2672.1562529043617,-2802.840929494221,-2565.0591031349377,-2561.1852811308167,-2563.855456381703,-2545.7034844808218,-2826.5525839892166,-2579.7659869460626,-2642.4445124432923,-2713.607900760369,-2552.3011534463085,-2608.535657976361,-2605.9103984852113,-2610.8017485474243,-2582.1620893955705,-2699.1260605855136,-2552.9683756263116,-2560.0189272747525,-2378.4764595947645,-2382.9201681372915,-2368.538680654609,-2572.2686822904793,-2596.743943429666,-2758.341686989109,-2700.2045410513,-2592.8896161457924,-2829.81596244362,-2562.811017084127,-2796.277577934697,-2695.3843488896414,-2555.9088384223405,-2572.119711796451,-2531.1272174067653,-2653.21914557771,-2699.164066368668,-2759.2667644914536,-2786.9328993952636,-2785.517420727917,-2802.6730923926143,-2746.1976232708494,-2596.864760282997,-2588.142460876506,-2730.971948392708,-2713.3743873422336,-2568.91809014077,-2548.5810845599854,-2646.1010771183564,-2675.465227525476,-2743.676372423105,-2712.3211648880524,-2600.6006885543875,-2737.014078363052,-2707.812169488068,-2568.443308585553,-2731.8068530363867,-2706.973812276732,-2551.5059393154274,-2672.2908513891352,-2590.107202345042,-2702.394512681026,-2717.8984107791666,-2725.127628261187,-2777.3570786644727,-2764.908809270401,-2610.6328433846256,-2599.976614681851,-2680.5572656863715,-2591.5067086714093,-2679.9902972157925,-2584.342787770651,-2589.1131821586505,-2554.397572954525,-2719.3816510499055,-2380.4917147629935,-2542.4952727185882,-2772.7096503426856,-2756.013363377957,-2724.1055651465417,-2781.0607809082144,-2727.691852971744,-2741.851521423078,-2738.6745051877233,-2693.553003871621,-2711.1009986021736,-2535.1040654758185,-2661.810575261071,-2568.0911528550696,-2569.759682382597,-2670.288576764583,-2766.1286887681495,-2810.974411361765,-2730.415599307976,-2618.4751651819024,-2576.8771305460336,-2775.812627668269,-2748.8373647260096,-2686.1263638478713,-2679.3315286656557,-2555.265646391484,-2541.533820485183,-2548.131539031355,-2583.3430077125004,-2600.276233912809,-2787.615350334004,-2751.1758830894037,-2763.735326834629,-2739.419592509056,-2728.7094046105526,-2680.3850855913115,-2687.842925043373,-2426.453289852663,-2382.0637503398634,-2370.7705062457294,-2401.6505106929876,-2598.521426588216,-2583.4649413870416,-2455.5609945061574,-2616.8044989716227,-2776.0751197833633,-2579.24555018566,-2760.2325180388343,-2723.528030816245,-2399.6014430441455,-2532.1864102504874,-2556.445223245849,-2397.7683918290554,-2597.048737517444,-2425.2504160032804,-2612.056725733141,-2612.147362180693,-2585.848181332511,-2720.661116360602,-2772.218380325522,-2745.7410744312747,-2559.8561109682146,-2393.7785743897566,-2388.284250686555,-2388.0598869651776,-2622.2838623822363,-2594.3856025105442,-2400.1393832918325,-2419.412740369063,-2593.167401739943,-2613.9634353954843,-2370.6007510807453,-2366.229222109797,-2704.5454691146797,-2558.3502258164967,-2375.5698005471168,-2574.3740505906158,-2550.57914387665,-2584.68106109087,-2382.2785161563397,-2383.9177480211865,-2470.2860593703545,-2762.4580664009623,-2604.151884094829,-2763.521190937142,-2382.2159731351653,-2411.1559405046946,-2386.833258255958,-2376.363350926308,-2599.414677107334,-2637.559732056911,-2419.6302054269327,-2412.858279793338,-2620.942931465577,-2587.1890028909856,-2713.2386776368935,-2569.90962263942,-2598.47868547411,-2752.3907572686967,-2613.349461965907,-2384.643746770673,-2613.4965446877018,-2374.906807371655,-2748.1577768571956,-2380.901722131264,-2376.3838497774304,-2405.1598474493226,-2626.0571036693873,-2386.4809695935173,-2393.4309265419033,-2598.30913577069,-2596.3203780311933,-2590.049599935379,-2393.528237824321,-2387.6189993554985,-2390.3471776548504,-2576.6207438244587,-2583.844917100696,-2434.44050441308,-2596.898428102314,-2730.424905569397,-2717.13186288174,-2745.658500628673,-2399.9981239364033,-2416.6914309116646,-2597.0367382065638,-2397.8630631431365,-2397.0115639790633,-2402.686198602142,-2642.550753272147,-2401.930886264344,-2769.10874743273,-2607.154189149296,-2399.738407967515,-2397.9300986815297,-2397.620971067273,-2436.7158490380566,-2595.177948822423,-2413.2886964418603,-2623.805508055263,-2379.4696198987785,-2573.9363414239083,-2604.4045567955295,-2566.6777671523014,-2718.987536561998,-2707.0206568321746,-2393.6303002073273,-2553.6278488707662,-2565.5929550766455,-2380.3042481825482,-2620.4624122344444,-2403.0472307282803,-2390.150137267944,-2393.903757565753,-2596.142502684584,-2387.673986347582,-2746.1935661389957,-2402.6247916265884,-2390.1281726569537,-2387.3463258846064,-2614.3665752858283,-2391.7125788341536,-2399.1257386443503,-2377.310036258135,-2563.2226927563397,-2700.299097627598,-2373.5232070090483,-2374.6798928192916,-2375.7334591591643,-2401.115522066867,-2390.7947014259694,-2404.5703089526583,-2728.156298970614,-2570.969825466613,-2666.1215474445466,-2405.245782918216,-2382.3200860482157,-2376.344959949393,-2397.054280211193,-2413.7216880124083,-2432.0617780862844,-2428.0403454560997,-2584.3920029371407,-2680.3528329017226,-2408.1649896250997,-2397.6246131978587,-2406.341363470607,-2377.6590710198548,-2417.8668922673587,-2455.3110000312877,-2411.6593819077384,-2418.8113862757764,-2429.5138940063493,-2407.711913909778,-2808.6707975821064,-2721.6732989120933,-2565.3060047492404,-2380.086923817382,-2561.5142084609333,-2391.775766753451,-2612.61704572333,-2390.792776090457,-2397.4466960681366,-2574.53361666971,-2614.3097768893444,-2759.757131519529,-2602.1835530567687,-2677.6881883614083,-2568.808409732764,-2416.475809794636,-2578.6041788253556,-2619.8119572449677,-2404.015128264062,-2613.623354845366,-2618.4011821747754,-2765.332675469044,-2576.7556238965003,-2747.2443999197217,-2707.4679219462655,-2560.784757805267,-2671.294382795947,-2719.492957715742,-2619.3524099888587,-2770.325031175836,-2707.116314590673,-2724.279409592216,-2565.5131836016585,-2370.505434306854,-2369.2266617053538,-2398.2945203711365,-2400.7662752760543,-2388.504638337128,-2628.561122009444,-2443.895431852364,-2398.925039571495,-2380.2360078242004,-2383.0441692621416,-2744.7060267913666,-2748.0414492291425,-2377.0029683340463,-2386.9735530292996,-2408.3765973125646,-2370.2071316360907,-2397.7116448753272,-2619.8478962051204,-2395.6019836213486,-2398.7632995988915,-2422.2312308465894,-2389.5167321060953,-2562.630608695836,-2580.3146012612456,-2384.2333037203784,-2386.096939476999,-2395.7057154294403,-2600.0866409201826,-2595.55897779273,-2615.210427393556,-2571.4854349287593,-2728.3749535500033,-2373.7466040811196,-2555.940718046281,-2578.406744819901,-2609.2996351497395,-2599.3514949811038,-2413.060274538844,-2622.4913116917332,-2384.712038886854,-2704.8270754437926,-2614.8851948685347,-2578.925211977739,-2386.372125283247,-2376.298221529622,-2415.104056310721,-2572.5585577200764,-2588.9892971296713,-2396.1532100994727,-2729.1031536855235,-2761.1173029308948,-2403.255041168752,-2385.159132673372,-2597.4827819860575,-2598.575871275773,-2738.9739737666378,-2761.237002544034,-2580.9132877091497,-2704.2740872062504,-2615.147387169295,-2387.1358631921044,-2724.2951705638416,-2382.4760285754,-2612.5017716791517,-2593.6660023591203,-2745.916278938557,-2763.796742279084,-2692.9127308463844,-2717.9860795015393,-2391.115482426787,-2554.490509941033,-2610.944252813689,-2406.66464913213,-2396.3939018183187,-2418.258847303516,-2614.621098005768,-2395.4219955797466,-2376.141177515428,-2377.21806757777,-2758.7817850967044,-2570.6324869807913,-2373.7624420001966,-2378.6011772216334,-2606.0404572964,-2392.296081742161,-2395.0371744486583,-2405.113697920768,-2603.951295071427,-2609.088818667044,-2369.6581589275174,-2387.67522210379,-2381.871704412065,-2382.659423186963,-2576.89672670921,-2730.3183587048,-2400.1789176390967,-2617.6814013405206,-2599.9884241973023,-2728.2149706183686,-2735.7769497581357,-2577.1106995515756,-2591.690567984042,-2656.265084644686,-2595.233608636723,-2387.206095205607,-2787.1896562532324,-2741.706892051942,-2392.8413833529626,-2383.637169795212,-2611.6467683897977,-2564.2686024915874,-2747.2216000281583,-2796.898767228788,-2599.8193554274626,-2762.9030941866804,-2742.977955163723,-2606.5024441849287,-2733.3346916601004,-2738.0234621947566,-2727.4108903933943,-2739.2443632138397,-2777.8117574183802,-2594.304904635553,-2706.05077673421,-2706.7816019073975,-2738.115962998972,-2724.933336026484,-2724.968569652213,-2543.0143167579085,-2581.923734081269,-2730.625985731615,-2617.3878962185477,-2708.569746091533,-2740.863895772087,-2752.1577525454377,-2697.609352538556,-2746.5896892665396,-2746.4774999649544,-2760.2993842684864,-2600.3511245227883,-2387.005703983819,-2391.162049287806,-2411.120872741908,-2579.7580484972696,-2596.042117076742,-2586.6173289186636,-2389.994663978173,-2595.067479670183,-2610.4856305826615,-2579.4138282559393,-2747.3501260653784,-2582.780188805556,-2605.203357014832,-2737.9951430968235,-2737.7803353111617,-2766.959342367382,-2389.070298676051,-2399.677472431042,-2382.2527141037776,-2390.9216301262036,-2426.4391302987024,-2400.8435292639515,-2403.861317278916,-2596.6347294177235,-2720.196325893702,-2368.607036258578,-2609.7438472437057,-2390.0953570693846,-2409.5258048089577,-2559.3572677457555,-2634.3687737571913,-2575.2852381756984,-2600.4075235205805,-2600.699934751462,-2731.3451973104807,-2734.4141456875095,-2589.2709720902594,-2583.529253827495,-2594.953402690437,-2568.2532838758934,-2713.8271414057876,-2625.241763050583,-2611.218336861074,-2735.388626755817,-2615.332634556888,-2739.148923615011,-2706.8609106128533,-2592.366792796781,-2784.6059842357404,-2754.1217020986364,-2566.762465067773,-2703.128730519186,-2775.307899625474,-2570.540694597522,-2575.0184603488847,-2717.387919334771,-2707.1353273930536,-2371.09908014332,-2671.2636728275015,-2725.610123500213,-2674.569067992525,-2665.81355379107,-2370.5149633892242,-2744.805124334094,-2713.148490247769,-2713.143047812826,-2702.0954385121054,-2560.143014248753,-2364.723554675267,-2529.7357688413276,-2567.8177426325983,-2556.7600066317295,-2585.4702382704345,-2598.177810304881,-2722.572558137985,-2705.101660148247,-2721.6759370855248,-2776.016154785237,-2703.264166608655,-2726.255151380931,-2738.148111218682,-2724.385404915226,-2536.754205955115,-2528.4606785582423,-2406.7389496290325,-2578.6555880103015,-2588.062620327696,-2374.445227596366,-2561.6220683344764,-2390.514389065937,-2597.0349446232785,-2592.6590072484646,-2769.972442562652,-2693.224844751688,-2372.7649954949334,-2359.0487151422567,-2555.554770289233,-2666.0489723004107,-2556.159768205845,-2384.8984414051624,-2396.9639400156716,-2579.8014874194823,-2387.704354698144,-2603.5999478942176,-2750.8841492654274,-2754.9595704386534,-2377.605772541664,-2722.4063625309464,-2702.300488646443,-2573.0379908481336,-2753.1464016553978,-2578.0579029879877,-2364.362393235874,-2716.838411522337,-2573.339349807499,-2600.2343877661497,-2579.244321956242,-2768.590645744578,-2744.4682645665243,-2728.6431658636234,-2622.4542105946543,-2742.4353852478143,-2757.3344566171486,-2725.625163349039,-2602.398476037121,-2738.612378156479,-2713.694330343793,-2742.651875540988,-2600.9135088241537,-2725.3454884326748,-2735.58627416309,-2570.4642111115986,-2742.2327219541394,-2571.0945515139033,-2732.867069457373,-2733.8679441484164,-2791.337206516435,-2773.988386369458,-2659.843330524346,-2802.7078534072994,-2707.854913719568,-2733.0743636726224,-2586.941384984973,-2576.3373776060525,-2576.9537963694033,-2730.003282432742,-2587.4041603989567,-2587.458588383283,-2587.2809554512514,-2707.6983182901186,-2709.198456504643,-2698.541369516354,-2410.9435018125655,-2772.7126412790763,-2667.0973356425775,-2569.6310294413142,-2665.801715900246,-2686.976224886038,-2789.470528490941,-2551.1358637218877,-2572.400322621501,-2715.804908448925,-2587.268189435634,-2698.4421302092996,-2558.2525116863444,-2383.306640193438,-2670.628796057278,-2713.789418045676,-2774.9275767072522,-2599.084913119531,-2740.0100778138935,-2601.1672479799154,-2732.1727099986747,-2364.073752850455,-2581.1019144232378,-2689.917771384687,-2703.7458367117297,-2744.1779800658164,-2749.8615887399274,-2689.1407363568796,-2590.4018399581423,-2736.116142756472,-2597.941071773729,-2758.1092735543675,-2756.033433578452,-2749.6206072354075,-2734.680713719822,-2757.4221847075273,-2711.976260478271,-2602.2691085859146,-2705.263781493945,-2747.119103103202,-2763.9174727632853,-2706.141876551458,-2733.1891492138734,-2741.2515419912866,-2575.3405256868887,-2710.1447681768636,-2574.750613942295,-2575.824393962601,-2699.660878205002,-2585.1853065545256,-2747.311306807761,-2726.3167156360955,-2730.36932060454,-2367.336255167901,-2699.236856307226,-2691.694948455482,-2552.3453926306656,-2567.18863934387,-2700.9925923934898,-2710.7003053688727,-2748.798335670306,-2717.6436184291947,-2714.0310987200323,-2767.817930825846,-2731.3672577306525,-2763.9875400667747,-2709.5621886832205,-2581.2518970015594,-2594.0531318299936,-2584.1162657568148,-2698.9798745601797,-2722.916288516102,-2584.824195371596,-2370.0256577398013,-2370.959230509548,-2647.000910818139,-2722.5312053137627,-2761.10345747892,-2742.828115960369,-2738.4851075328,-2678.412420623694,-2754.831541031381,-2560.6686316674222,-2724.0988111309666,-2569.7701561564213,-2590.6013851820626,-2712.230758287761,-2577.9651940234075,-2574.3357625928134,-2708.0095029689473,-2569.0714721378517,-2669.1745612066707,-2737.192679957133,-2593.8550240926306,-2703.922984662654,-2757.8529027706804,-2726.462237715654,-2697.1865392930886,-2546.8496152745042,-2726.516272240949,-2599.5456616891784,-2375.422990852372,-2405.3047182464607,-2364.2473957243974,-2388.8278127992644,-2375.460327260409,-2608.2293506562396,-2402.1443045036426,-2723.748794155074,-2576.911496532906,-2696.9997971244516,-2713.828394261244,-2790.7906398512973,-2585.14716969396,-2569.150156188437,-2549.36847096318,-2535.5000557412286,-2369.3410728235576,-2387.3762344676134,-2378.5140205595067,-2568.908386924926,-2721.9109392548526,-2691.8482058342934,-2699.303950974241,-2703.0741569418396,-2564.878502701283,-2699.254020951561,-2669.8774318513842,-2642.960844957952,-2559.464747769137,-2627.453947935944,-2566.1729296407057,-2696.3484424623366,-2772.7069061381526,-2714.144624452072,-2732.4079736218073,-2746.6004904192237,-2697.6538392451134,-2709.320662971142,-2729.640316154955,-2560.1503004231677,-2729.097247935201,-2712.3752673256436,-2707.230751801302,-2721.4248703666503,-2761.060684690829,-2370.017889307224,-2363.3642780986975,-2730.5706373879734,-2685.649848934391,-2590.1817992552774,-2541.381656341111,-2778.645771901006,-2597.2278348666855,-2699.796562325931,-2546.032465503349,-2739.186583197372,-2583.6945419477843,-2577.9740400348937,-2719.778630223181,-2741.172295473101,-2682.72252306918,-2720.5159844131263,-2742.9668035806494,-2566.645954948548,-2568.0426180064883,-2562.764345169214,-2694.860233908907,-2705.4577862050423,-2733.4059984678233,-2702.624191037687,-2645.7627932112114,-2663.307788112572,-2748.35924390771,-2730.6150643952496,-2713.9514692502103,-2754.740130732283,-2737.49047016264,-2586.594830556607,-2705.4182942657576,-2710.408986871759,-2538.433855722177,-2549.7310481228515,-2681.057944618137,-2606.4981356127837,-2703.1735022563234,-2755.7678155831613,-2754.2800006558664,-2699.32852399081,-2686.8067602285314,-2717.9371465546383,-2552.3798355012686,-2725.7892471003106,-2365.371621764921,-2684.326802865484,-2705.5471876957536,-2363.091694804612,-2745.545181625058,-2687.2229235491723,-2699.5480038696,-2580.259506403905,-2768.929520056924,-2574.7546791717223,-2731.329044372558,-2737.633749606542,-2709.500156618365,-2703.508450915505,-2765.91470530143,-2708.918853243302,-2739.434305940903,-2557.483140381864,-2562.8717992421884,-2684.8934680423463,-2581.3909105880957,-2720.2661579369983,-2731.0024709233126,-2674.930295055324,-2578.140804809907,-2713.756501202748,-2696.1843482162644,-2740.695676760102,-2572.2389421533912,-2546.943540689604,-2706.2970185271815,-2684.239511006965,-2571.7831970402412,-2747.2201123565014,-2584.372434545655,-2745.8853154922117,-2561.1505694310194,-2543.2580695928127,-2714.367053774566,-2381.3498677430284,-2593.2382722064367,-2719.233414754853,-2750.4195821833778,-2732.962446817733,-2680.5474275755937,-2363.284104554341,-2586.2336955293613,-2748.7005725599183,-2746.50163203639,-2691.5495522290107,-2731.616504845401,-2538.6305637398727,-2721.2748730139087,-2367.3260609927506,-2579.567753759447,-2720.6536529786954,-2565.6278423227777,-2730.5657267024458,-2701.2715755401437,-2686.2837865119286,-2568.2131242112105,-2546.899251030034,-2719.7048662650163,-2579.833927662525,-2571.2251168001876,-2538.5065922229337,-2767.9300259419874,-2363.507126253617,-2576.598863390037,-2711.601908287449,-2722.0199897048797,-2563.613725097097,-2677.256414161836,-2711.5828414868224,-2575.9061563292103,-2569.6452807683863,-2737.3272235398795,-2739.168967131726,-2719.7593456118516,-2733.6967477292897,-2686.6091569199707,-2740.3487168448487,-2768.9308678886146,-2732.4791683186236,-2582.6848620657865,-2557.090278752989,-2372.0677312829253,-2592.7207385069455,-2577.9703516475734,-2586.076125748787,-2571.804276984412,-2541.4925847438362,-2729.725252018677,-2576.077106371266,-2675.783209899253,-2574.4091700749896,-2639.723022140768,-2713.9147538573925,-2723.016011208454,-2741.4978989817023,4683.642362855633
1,342.380458049728,342.38117374391186,342.3804451509374,342.3805401074437,342.38069475451647,342.3805172225509,342.3806708856991,342.3807157851469,342.38057443885225,342.3805218052849,342.3805025230673,343.38157159613644,343.3818742735429,342.380764463718,342.38056505683795,342.38045173285394,342.3805381594325,343.3817066459781,343.3816919360728,342.3806724427728,342.38053262451336,343.3818777118117,343.38159156483516,343.38204870133563,342.3806119521321,343.3816360952342,342.3805531318907,342.3809251870518,343.3816315076586,342.3804314473222,342.38046033476735,342.38052836598035,342.3808598766562,342.3804692639593,342.38097049987186,343.3817110062474,343.3815592644175,343.38169401466814,343.3816271523229,343.3815990391451,341.37962978950185,342.38060760754274,342.3806161784107,342.38044332239156,343.3822298067659,342.3807173670549,342.3807327858224,343.3817727270271,343.38191048741106,342.3807807683448,342.3806526489259,343.38160858823335,343.38193601734577,342.3805447976103,342.38051290627305,342.3808057986185,342.3809359212071,343.38157371210957,343.38157374770196,342.3811800861316,342.3805668144719,342.3804965304072,342.38111225501814,342.38042769405223,342.3804447340091,342.3805778138668,343.3819835805203,343.3817378541327,342.3805297723875,342.38088097642816,343.3816563154859,342.38112547611007,342.3804938434926,343.38167357419036,343.38192118657435,342.3807516605804,342.38046904679237,342.38058141786837,343.3819670295431,343.381665138977,342.3804711752925,342.3810723272661,342.38073317614214,343.38154203669205,343.3820580095717,343.3815687242873,343.38153904659697,342.38046773118543,343.3817436410483,342.38069259730327,342.38063754673186,343.38158449733584,343.38161088108683,343.38166329662107,343.38166224582375,343.3822398586192,342.38079784649835,343.38164180180013,343.3816016740516,344.3833931023074,344.3831845215772,344.38267849260905,343.3818004451865,343.3819779105671,342.3808813894873,342.38063995782045,343.38169097367745,342.380510125015,343.38161589723774,342.38058317714984,342.38063138403874,343.38179506834683,343.38219844110785,343.38228680185574,342.3810223999326,342.3808672777144,342.38079544609496,342.38114596930535,342.38071170136556,342.3808483398192,342.38112103141634,343.3817221715335,343.3818423264866,342.3805354651567,342.3805776769948,343.381598281069,343.38183531395026,342.380452038716,342.38091578300197,342.38074134832846,342.3813086046299,343.38168391312365,342.3804907114778,342.38083176768663,343.38230536768657,342.3804455726381,342.3807999078624,343.3818105025833,342.381091579105,343.38164657383294,342.38049100912093,342.3805543185421,342.3809467716182,342.38056288746793,342.38090299031575,343.3817339626817,343.38199527892743,342.38058895985466,343.38156529877773,342.3805405654043,343.38157227655205,343.38161702435855,343.38163568579347,342.3804970197407,344.38268795443935,343.381815875135,342.38060950397005,342.38111324208626,342.3810091505526,342.38065318347714,342.3805845480232,342.3809660564562,342.3809144640879,342.3807402914496,342.3804557483567,343.38203405889993,342.3810023105357,343.382261064575,343.3815668780486,342.3805094583115,342.3808569914762,342.3805110464014,342.381186029566,343.3817082418885,343.3816525042237,342.3805378326341,342.3806704873471,342.38044504692533,342.3806382483227,343.3817396218546,343.3818479639675,343.38159562871385,343.38191026297426,343.3820240905768,342.3805668802886,342.3805738196598,342.3805948390039,342.380761922655,342.38067336070355,342.38046312877657,342.3804561700315,344.3832646132317,344.3834271036925,344.3830002392677,344.3826793519274,343.38180888428286,343.3817581772897,344.3827329273749,343.381831463468,342.38089988813357,343.38172316145585,342.38071593108026,342.3807191071535,344.3831030194412,343.3819465910651,343.38247314823354,344.38285757340583,343.3816087072629,344.382762824314,343.38187534701416,343.3816184850675,343.3816434698943,342.3807722407679,342.38042518478704,342.3805680993366,343.3820843019541,344.38282749896774,344.3830135529021,344.3831531695756,343.382219533279,343.38158302242357,344.38351442507275,344.3827289901357,343.38167841381545,343.3816558179769,344.3826877680434,344.3829408581983,342.38092147894446,343.3816390205113,344.38274122714023,343.3817830515602,343.3815891511897,343.38154044472776,344.3826538319546,344.382688867194,344.382990730401,342.3807859614391,343.3815778317017,342.38074494453167,344.38293374180256,344.3829519013753,344.3828708239835,344.38337866426565,343.38241598838323,343.3819396260334,344.3827862009652,344.3831949316496,343.38186813734814,343.3823874532206,342.38066331125117,343.3815933983675,343.38178785062854,342.3806408508417,343.38173498400755,344.3828973729572,343.3816269181185,344.3832975466981,342.38151143537135,344.38301013759826,344.38265041642074,344.3827281729942,343.38156103064165,344.38297724304675,344.38276511903575,343.3818284901169,343.3821255221426,343.38170039050135,344.38313131786805,344.3827111683077,344.3828187123914,343.3816435927516,343.381538879943,344.38331905096646,343.3818961634989,342.38054295487603,342.38043613296907,342.3806120818232,344.3827428788595,344.3838929806201,343.3816064896957,344.3827807079162,344.38282984427167,344.3830002323741,343.38190674117226,344.3827266469994,342.3804843060383,343.3817556629735,344.38304303252943,344.3830166651612,344.38274294692485,344.3828106260561,343.38166094162494,344.3831870028982,343.3815825177533,344.3827379889099,343.3816985161322,343.38154361600317,343.3820389855332,342.38133619678484,342.3809677567716,344.3828954204174,343.38201263603537,343.38209504131936,344.3832718269926,343.3819471118335,344.38302652739145,344.38301014174516,344.38354582516894,343.3818525596976,344.38315692731123,342.3806424999415,344.38290971142425,344.38275555676984,344.3827296508286,343.3824573755944,344.38268265096013,344.3826766808128,344.38355175663344,343.3817678725106,342.3806539599674,344.382652407878,344.3830153314651,344.382941842855,344.38272248037117,344.38268447765785,344.3826590485729,342.38099460217506,343.3824961210446,342.3804639384807,344.382736953082,344.3833530018907,344.3830651538696,344.3831665398005,344.3830033548402,344.3828203684609,344.3830882163423,343.38195070375474,342.38048885720906,344.38276306740215,344.3826552361411,344.38272413597764,344.3826856415811,344.38286187386836,344.38269057333264,344.38302023117404,344.3832453321818,344.3828981278125,344.3833056558734,342.3806765973681,342.38106118808395,343.38174562675493,344.3826726042133,343.38167824862046,344.3831074537815,343.3818222268544,344.3827430386802,344.3831038417434,343.381732793155,343.3822675508609,342.3808183472593,343.3816477274155,342.3807121868421,343.3815579935182,344.38265252369735,343.38200461507876,343.381552371103,344.38273728573995,343.38180391301074,343.38154517629783,342.3808455062827,343.3816299741117,342.3811168597441,342.3808744854542,343.38182087596545,342.38058400750435,342.3808797457554,343.38199220267734,342.3806394052345,342.3812473052627,342.38076778638373,343.38194449301477,344.38280857775953,344.38276781190075,344.383185733674,344.3831401019119,344.3831596458776,343.38174251084837,344.38267173329496,344.3827212236226,344.3828217613701,344.38278042093737,342.38063398465914,342.3807864407465,344.3834762153964,344.3828282297899,344.3832413927132,344.3827428051705,344.3828426303581,343.3818063083264,344.382657216253,344.38279721493427,344.3827381816662,344.38291767067096,343.38161807936416,343.38173704968426,344.3829517367756,344.383062746954,344.3829312182873,343.38234559112414,343.3815837079777,343.38165928984364,343.38213360115725,342.38124437278503,344.3828634026901,343.38171119047445,343.38185946143864,343.3817121643848,343.38159636600676,344.3826729775212,343.38165884190954,344.38272199538375,342.38085285561476,343.3819005458948,343.3824263547421,344.3829624527294,344.3826707383958,344.3827081528166,343.38183026569527,343.38184965153005,344.38275074305295,342.3804859297668,342.3804641436053,344.38309593483626,344.383140785411,343.3815887056618,343.381569270995,342.3809254638441,342.38049463945066,343.382327283493,342.3806257952707,343.3817078979037,344.3827141421983,342.38123553861067,344.38268854673805,343.3818028715651,343.3815717168564,342.38083797045033,342.38045804104513,342.3805186823488,342.38054587767544,344.3827670989986,343.3821533192001,343.38160160485563,344.3832199055595,344.38272506018,344.38278612745603,343.3818170575691,344.3831222572379,344.38268148381894,344.38272272430834,342.38079641004197,343.38174641577683,344.38349435375795,344.3829608034153,343.381713061076,344.38296082432555,344.38267738115604,344.3830181075045,343.38187655032715,343.38166595590485,344.38270395641837,344.382792157224,344.3833527091827,344.38313831456054,343.38162716971465,342.3808163748226,344.3828653674876,343.3821432126458,343.3821664146899,342.3804288152642,342.3806704440884,343.38180295763766,343.381544744891,342.38118466943985,343.38222023786096,344.3826716258304,342.38123289302195,342.3806385461892,344.3831951827512,344.38278054547897,343.38191091805487,343.3816065219202,342.3807513972204,342.38049902562204,343.3819606218342,342.3807755050572,342.3806382180966,343.3816938277443,342.3805462326741,342.3807987795323,342.3805250347928,342.3804638644831,342.3806978087367,343.3817843745515,342.38046201214627,342.3805498118933,342.38061023642894,342.38071451988463,342.3805555046169,343.38164621423317,343.38168814496134,342.38088445761105,343.38153690447785,342.3805269604482,342.3812133294335,342.38096534753066,342.3809446598226,342.3805596965766,342.38069752492277,342.3805190531848,343.3817444251911,344.3829869224753,344.38298268001626,344.3827318091505,343.3815579913914,343.38162589571755,343.3815499588142,344.3829954224031,343.3816257511141,343.3821219395059,343.3819027171301,342.3806706962278,343.38160796741465,343.3820114224372,342.3809969912477,342.38044724901744,342.38048044003654,344.38271124844937,344.3831717960584,344.38292611455756,344.3836498517076,344.38283566570084,344.38269274953865,344.383310509995,343.3820977769816,342.38060110644915,344.3831362054123,343.38238123468085,344.3832325074124,344.38300801562775,343.38246766948413,343.3820953401921,343.3818824257363,343.38181988068806,343.3819235297225,342.38075479263546,342.38074664272847,343.38153615060475,343.3815399159095,343.3817451401651,343.381537830268,342.3806736892929,343.38191097075696,343.3817225161736,342.38051167504676,343.3822285634573,342.3805064460962,342.38057784572317,343.3816272669927,342.3806184412843,342.3804964340785,343.3819650111457,342.3807770150818,342.3805453677355,343.38169333962924,343.3817746685233,342.3808948427978,342.3809848946024,344.38316714699096,342.3805675367009,342.3805443675997,342.38054620909816,342.380675007016,344.38269527792437,342.380996181784,342.3808253180318,342.38051914738367,342.38048412950235,343.3818826405811,344.3826482254933,343.38157470634235,343.3815855905718,343.3817899185273,343.38156863605747,343.38155471658786,342.3804940652542,342.3805976243993,342.38054570373447,342.38069667820633,342.380652363697,342.38044609293564,342.3811738686303,342.38088374893516,343.3820151458379,343.38197124370834,344.3826902341041,343.381906335135,343.3822791744859,344.38284383521807,343.3816414340493,344.3827842088026,343.3821360108626,343.38161641584475,342.3804404233439,342.3804563316391,344.3828575967697,344.3828857726533,343.3815440181844,342.3807689269918,343.3819565825695,344.3826858722595,344.38272289505284,343.3816443040799,344.3827660239998,343.38167043982463,342.38046324606114,342.3805649440521,344.3827721789268,342.3805436608555,342.380641668709,343.3817452481644,342.38085967612585,343.38188157848936,344.3834142627436,342.3808327607195,343.381676118499,343.38211878182796,343.3823205629196,342.38070092080477,342.38076699564505,342.3809866286546,343.38204972931266,342.3812446399384,342.3806836831228,342.38049568761187,343.3816759480444,342.3804608925316,342.38062773784634,342.380795748209,343.381759277629,342.3805057614904,342.38043064568336,343.3816915514501,342.38066296839776,343.38162204517954,342.3807149673482,342.3804965579839,342.380626879187,342.38058085673646,342.38059846811115,342.38067480237635,342.3806654968266,342.3804394345893,343.3819501118999,343.3816620240367,343.3815526608163,342.3804374600704,343.3816341105488,343.3815682862678,343.3815419008517,342.3805760748358,342.38076810860633,342.3807863443121,344.3828705948837,342.3809828124523,342.38053158482535,343.38176403321773,342.38081739826055,342.38049399148224,342.38066050816695,343.38171228107996,343.381815036539,342.38062124696364,343.3821761622278,342.38065825986786,343.38178387500216,344.38268611818637,342.3808786284622,342.380539057684,342.3805386344676,343.3818095252154,342.38096214777295,343.38199707586966,342.38081485031523,344.38316247875156,343.38160116641905,342.3807032955853,342.3806325809787,342.3806074103742,342.3815223141148,342.3807631575037,343.3816350955663,342.38053146359726,343.3817619656284,342.380699692619,342.380463684693,342.38053090289475,342.3804512967086,342.38061829681334,342.38046144973663,343.38159938703615,342.38110701864434,342.380431394833,342.3805677208995,342.3805728323624,342.3804924682969,342.38048531367417,343.381659213153,342.3805074321869,343.38155771053783,343.3816601888185,342.38053499128563,343.3817205625322,342.3808789917764,342.38051100499126,342.38046850060323,344.3827778279331,342.38043086285114,342.38087058399435,343.3815637915012,343.3818260206538,342.38066349519374,342.380459584956,342.38048412831154,342.3813232227082,342.3806357758957,342.3812486846235,342.38049604625826,342.3812258519299,342.38061327098836,343.381589386782,343.3818679469789,343.38192089634435,342.38044804332037,342.3805276643645,343.381640649866,344.3827242955585,344.3827384853256,342.38051669236484,342.38052065077636,342.3810283635589,342.38056086718484,342.38098026623214,342.3804251996497,342.3806532068119,343.3820327500471,342.38057071290586,343.38175236595436,343.3821579853696,342.3805196723407,343.3820717007272,343.3816646106206,342.381588051591,343.38172415220265,342.38045776278676,342.38074422543514,343.38166215824526,342.3810618444383,342.380881375014,342.38076009336123,342.38059764204337,343.3820961881628,342.3804602495116,343.38176605844313,344.38305557182844,344.3828738201156,344.3826637548676,344.3831427617263,344.38334197755665,343.3815844030627,344.3826546698546,342.38084220201574,343.3817426936008,342.3810469366377,342.3806668750886,342.3804645462568,343.38159350178717,343.3815579074074,343.38192829151564,343.3815424675707,344.3829591960377,344.38266419127814,344.3828788219687,343.3817164201142,342.3805292172522,342.3804719238737,342.3804677073652,342.3805976615428,343.3815944608103,342.3804724283296,342.38073421412093,342.3806761772307,343.3817062809692,342.3806504323467,343.38194121921543,342.38082258205054,342.3804354727224,342.38085063520094,342.3804504530568,342.38056123536336,342.380550044544,342.3807035179682,342.3809727552986,343.38202006404833,342.38049453936463,342.38060446818645,342.38063138772515,342.3805182757874,342.38063779882066,344.38289374982753,344.38291193295447,342.3807916812067,342.38118820055917,343.38185252272154,343.3816198424197,342.38054721111314,343.38214100828566,342.38056774254534,343.3816553132764,342.38043299860374,343.38159554132403,343.38159601163306,342.3805657095402,342.380559237087,342.3807128372266,342.3812173065919,342.3806192908408,343.38181209614527,343.38206563966725,343.38168657118257,342.3807215493751,342.38061032368597,342.3809090281943,342.3805691046138,342.3804251181104,342.38082940532155,342.3807957463483,342.3807751383907,342.38098022637786,342.3806590650614,342.38057849375883,343.381580900837,342.38058685140686,342.3805416383004,343.38186395160056,343.3820418896103,342.38059715229184,343.3818654137179,342.38105705960515,342.3804520931893,342.3804605802639,342.38070965731305,342.3804504986693,342.3804880643376,343.38239825829714,342.3804280137816,344.382871323472,342.3804726569503,342.38050878372366,344.3831513714694,342.380509800175,342.380568434328,342.3804870306018,343.38180050677573,342.3805821241603,343.3816509573999,342.3807520448889,342.38048255419267,342.38057536312533,342.38048812844306,342.38045577161733,342.3804256692497,342.3808012391786,343.38230632582736,343.38202374935474,342.3806437959959,343.38189915190605,342.3805191847474,342.3808104601305,342.380487470466,343.38158409388313,342.3807341439974,342.38075756715114,342.38132425171545,343.3817560293552,343.38194805148316,342.3806741745299,342.38051548078624,343.38204195621415,342.38068356360805,343.38167628406825,342.3813860685509,343.3821343723307,343.3816044780661,342.38055895693566,344.3830686413215,343.3815593851017,342.38051702544686,342.38045114635054,342.3804741695671,342.38042436178074,344.38289922731275,343.38156092365654,342.38058962935963,342.3807978849032,342.38042646893075,342.3805224401693,343.3816566471594,342.3805219495938,344.3828390746946,343.3815633587208,342.3804762888231,343.38174182549625,342.380916103763,342.3805456101958,342.3805037946237,343.3815536192863,343.3816174350109,342.3805790146205,343.3819827897314,343.38171436888956,343.38181281568836,342.3805038144079,344.3830098255197,343.38219756250015,342.38042458895137,342.3804933075221,343.3818507802613,342.38054911021214,342.3807052166503,343.3816013521696,343.38157112751145,342.3804718720737,342.3810167523309,342.3804746425528,342.38050012250943,342.38056552975365,342.38043474095065,342.38063572034736,342.38051247741043,343.3818301993103,343.38169160889254,344.3829452226535,343.3817536521929,343.38157828133893,343.3816726846788,343.38154520929675,343.38182058296206,342.38062006985564,343.3817868541966,342.38071437643197,343.3818912629437,342.38056483489083,342.3806595500743,342.3806944012812,342.3805926271036,297.3305739464216
2,-0.004796263925183422,-0.0046293778418988255,-0.0046843922132066675,-0.005040781174326509,-0.005044479928190126,-0.004586882746697763,-0.004471154457629968,-0.0045850206733414195,-0.004675549625777845,-0.004325218335063617,-0.004224300153810569,-0.003948654165677884,-0.003944149124683737,-0.004604632006456363,-0.004519334141447635,-0.004420109645401708,-0.0037703616988496516,-0.0039559146448661705,-0.004448180581011877,-0.004610745041635703,-0.0036795537869506005,-0.004085190250621814,-0.004168113324151536,-0.004259878089984937,-0.0052265444171319085,-0.004116582999300344,-0.005032880049458056,-0.004553645339641,-0.004016937180376406,-0.0046791631100377585,-0.003997798335625147,-0.004713380138714919,-0.005085953310245554,-0.0050914926560781705,-0.004930480174176986,-0.004221839808474495,-0.004264655790705798,-0.004157283399958819,-0.004271368802017826,-0.004624121149353388,-0.0056278763347270356,-0.0048461003053056565,-0.004786329617821172,-0.004717432663290838,-0.00412788118263222,-0.005676392920202384,-0.005851036624949213,-0.004468415348098506,-0.004370967630561196,-0.005072571869479124,-0.004369143473107693,-0.004122457382239785,-0.00416021419255124,-0.004181942130366543,-0.00416627656221559,-0.003981444141358826,-0.0046517989402865695,-0.004111388587077455,-0.0042545315276941945,-0.005718795313289034,-0.0052686575941659555,-0.006175416162479657,-0.005578899214842359,-0.005169735914528716,-0.005552273677267333,-0.005190216872408705,-0.0042125842098661775,-0.004384634479676047,-0.004658567383252993,-0.004660364244928754,-0.0042588886863161955,-0.004528407881533183,-0.004729159414854609,-0.004410288258050904,-0.004548123232687919,-0.005722437006043536,-0.0060872451179163215,-0.004984886603259881,-0.004583082336611904,-0.004884253462583443,-0.004307788753178343,-0.004409834568630872,-0.004996871187370383,-0.004116591300436638,-0.004177048754576462,-0.004200575732747121,-0.003902074056401744,-0.005014394636110004,-0.0046453155909283225,-0.005325814816898373,-0.005811031408975994,-0.004405125797330652,-0.004600876036183923,-0.004536703640448209,-0.004695631077232473,-0.004369565143619231,-0.004639779518312401,-0.0043393727700372624,-0.005003552103232768,-0.004359887112367244,-0.004367234954634923,-0.0040782387709793625,-0.004472621404430624,-0.004597635833089798,-0.005260203062546079,-0.0045288286294992985,-0.004459663497008463,-0.004814195620080815,-0.004110478555257653,-0.004929753211002454,-0.004133084609723351,-0.00405166315592009,-0.0043587735493436095,-0.0044155451881214055,-0.005145659834269528,-0.0052255563814590485,-0.005625843306488229,-0.005733274798824545,-0.005793817416205311,-0.00612629849050413,-0.0050188665424099705,-0.004543913755950423,-0.004468795946087961,-0.004510879447111417,-0.0042648994852994,-0.004372038593220556,-0.004276608802538266,-0.005023424428877148,-0.005505699663371535,-0.005435308196778421,-0.0051300845292293765,-0.004702027710062475,-0.005261021030269633,-0.004891021035337472,-0.004258392760166146,-0.004602796002696521,-0.004521835110007353,-0.004336520987322933,-0.00533693586648347,-0.0049435560858647025,-0.005526644586405385,-0.005394105553606593,-0.005195552891670002,-0.005852893198633741,-0.005398499150745403,-0.004887113210126682,-0.004351880097600908,-0.004659832175097537,-0.004525517391486219,-0.0049306774223223365,-0.0042960214940801515,-0.004467305156042253,-0.004250969235301754,-0.0057645086493450055,-0.004315383021786882,-0.004683846409178184,-0.006703174416321819,-0.00565304955530753,-0.0052242884114038724,-0.005796372912207681,-0.004683724837608923,-0.005475233149886138,-0.005493091667630777,-0.004358401348246841,-0.0044233464552722755,-0.004286087073799282,-0.005301792355241736,-0.004887743981532085,-0.004876726494470644,-0.005363174906856029,-0.005636658615143568,-0.005805089228004937,-0.005126074839909308,-0.004887931016364565,-0.004669053331326977,-0.005514810262790741,-0.005243569495904803,-0.005037299710209348,-0.005136302611505729,-0.005224221352761931,-0.004798614185258164,-0.0046496514959577144,-0.004654436706548364,-0.004772892354836148,-0.006065323471460589,-0.005487054899780593,-0.005860720136870503,-0.004663663673028524,-0.00463392403210696,-0.005228978754688477,-0.005421035259447057,-0.004939679669508398,-0.004249809006591344,-0.004118036411538742,-0.004326552404671476,-0.004567048150827454,-0.005834128722915138,-0.005042537842306261,-0.005153917044341544,-0.005187273457652709,-0.004530159010142661,-0.005390109971372895,-0.005449644408516014,-0.004346901223492692,-0.0045248651177157845,-0.004676161659635026,-0.004318787731601274,-0.004807454393852657,-0.004560950579293097,-0.005131739307230755,-0.004883437579760563,-0.00473187360398647,-0.004795070919964798,-0.005363309774065154,-0.005402563947057422,-0.004600104795852661,-0.004367569311164123,-0.00434845269959956,-0.004227666597140837,-0.00489406987619533,-0.00467118930050092,-0.004273082835834871,-0.004668338815695584,-0.004701104403305824,-0.0047783934473411985,-0.003931669889833015,-0.003909580488844511,-0.004830678774925265,-0.004653937193035448,-0.004283190798573459,-0.004770210300656859,-0.004590488340141205,-0.004760513593160727,-0.004105042365338069,-0.004095514769981222,-0.0052618502598176685,-0.005181087017362876,-0.004512074116273638,-0.005414790343478234,-0.004233946338592191,-0.004778516479444516,-0.0042224019187630385,-0.004183709773010198,-0.004685259128080081,-0.005153232593308196,-0.0046250698897743504,-0.004385126362157796,-0.004911400866919462,-0.004454043267379828,-0.004804253209112478,-0.004680017529874737,-0.004916118648106982,-0.005643496989487376,-0.005888799011415436,-0.004168431938646498,-0.005165729128700054,-0.003973605915875376,-0.0052743061960082134,-0.004219949367627218,-0.0041773047337469275,-0.0043837224759040285,-0.005203916180391263,-0.004200987516885834,-0.004236653434201277,-0.004619308402990055,-0.004627185655789566,-0.00470547597788774,-0.004304278275454223,-0.004352270268214618,-0.004361215758102784,-0.004709125139115904,-0.004582897003508005,-0.004536179460587245,-0.005882786366647407,-0.00494258764608364,-0.0045559112713344785,-0.005512787764425574,-0.00441804768197748,-0.004800997574155686,-0.0049758371843988845,-0.004308162554683976,-0.004306145015821835,-0.004295837825534628,-0.0052753781978405094,-0.0042459933216788355,-0.00503366183216505,-0.0048158379846821794,-0.00430339033046101,-0.004331387352556193,-0.0043246659526866285,-0.00494560494033326,-0.004668875700392288,-0.004388483620806722,-0.005046045698661904,-0.004141342355796819,-0.004558411477969938,-0.004682160220283143,-0.0041821249731062125,-0.005031420774265432,-0.005245802470065959,-0.004351755921385027,-0.0047988888174143075,-0.004613352239534497,-0.004165602788533645,-0.005032128636629284,-0.004286685284271511,-0.004233669700890511,-0.004241270462646854,-0.004555841607431595,-0.004114774111673775,-0.005596616908448299,-0.004418423445116141,-0.004325289940949567,-0.004368107366241844,-0.005122623181411378,-0.004248463791638744,-0.004297669907733392,-0.004008417267812052,-0.004182107933221751,-0.005202372635697005,-0.00424443223489907,-0.004300282266630683,-0.004216367098516613,-0.004438076525119589,-0.004221312407934915,-0.004320433434316315,-0.004585416113379012,-0.004506087783150693,-0.005010401645992115,-0.004402751744649823,-0.004330054799657042,-0.004208167276019701,-0.004306132257547299,-0.0045221191635785715,-0.004619614757605267,-0.004537090112541454,-0.004447020315393684,-0.004641963042052664,-0.004401626713733926,-0.004310158191911602,-0.004514823398542024,-0.004192227195052579,-0.0044445574033496115,-0.0050448256257979735,-0.004348801556574493,-0.004639160308036811,-0.004744918869798104,-0.004344265674487808,-0.00541602219981601,-0.00525065621575279,-0.004721260426796386,-0.004284249295651019,-0.004745342008865618,-0.004357272347961763,-0.004840608724992718,-0.004235152519294906,-0.004346194371575274,-0.0045307007613565415,-0.00489510050258454,-0.005206849110664814,-0.004672667724796804,-0.005073641963364458,-0.004738025673281278,-0.004685355816491761,-0.004668789672620634,-0.005085440356183995,-0.0043481713629226005,-0.004883930306556901,-0.005077734009226772,-0.005507055422026045,-0.004255176951854324,-0.005352526935675224,-0.005493416530628624,-0.0046568078801607045,-0.004912383892657011,-0.00529525238737179,-0.004900308745272779,-0.006140108366083488,-0.005096741779189893,-0.004772351339284726,-0.004465659471874382,-0.004161572612676121,-0.004253819031741174,-0.004502783600142354,-0.0043938531882227495,-0.004193128388344456,-0.006036149147364183,-0.004882423396812266,-0.004291954028209218,-0.00415131114054126,-0.004152227596171042,-0.0049799337087551585,-0.004993231350859051,-0.004174239812430482,-0.004401646373850662,-0.004941224901566758,-0.004131621486795649,-0.0043005156063688,-0.004956700837248081,-0.004415329879160398,-0.004307857238950941,-0.004504996196638345,-0.004202112258065154,-0.004125454393702307,-0.0045609932977433145,-0.004213573713347479,-0.004292522651402811,-0.004304858586468181,-0.005786547439661376,-0.004783206885399978,-0.004852545360710974,-0.004490310946922828,-0.005051221363725754,-0.004135819450888669,-0.004814947856922369,-0.0049776406507919,-0.0049645209186522056,-0.005049110404988998,-0.004555456053962506,-0.004985072918662011,-0.004085988900870392,-0.004823603939765812,-0.004809236807576193,-0.004810864024785001,-0.004265058039791506,-0.004183924105904183,-0.00452937132553261,-0.0045190766753869325,-0.004568694880128635,-0.004239400901806088,-0.0050685529090717255,-0.004981692311472757,-0.004345801356592045,-0.004191444480858441,-0.004781461163925398,-0.004661156635771092,-0.00531947394179807,-0.005442568946748467,-0.0042671096225355,-0.004885078342691702,-0.005074345717750649,-0.004216198507730737,-0.0052074499917170195,-0.004140183643150128,-0.005075531365897343,-0.0046362866457210685,-0.005277374046030354,-0.005264581263499706,-0.0050402430262228475,-0.005655457119934683,-0.004398679642004389,-0.004716558679987201,-0.006097847091888458,-0.004298969829134121,-0.004174659266198621,-0.004437865741445897,-0.0049036410162906115,-0.0042573126125894515,-0.004021645001626362,-0.004028524894338876,-0.005629136897019602,-0.004769324642900266,-0.004107330483175582,-0.004189150500733966,-0.005062171407380667,-0.004195295423620752,-0.004251198607170535,-0.0043068655308985794,-0.004692786871040007,-0.0048248626831526985,-0.003918029480257281,-0.004167157086150145,-0.004160213978625041,-0.0042096129616553905,-0.004662870513678862,-0.005113424842050502,-0.004416142653982525,-0.005074349237532565,-0.0046060079816300946,-0.0049450974492368715,-0.0050634415848555105,-0.0049276969193387445,-0.005082869186869476,-0.00514297662371037,-0.004796598167354786,-0.004224360652495097,-0.005550492894371269,-0.004934216590416521,-0.00421855725162893,-0.004113283774193478,-0.004938686693200832,-0.004115695561135143,-0.005185126767297512,-0.006073660865297906,-0.0048898009530039714,-0.005385378416592204,-0.00522777458442474,-0.004865957939365762,-0.00532625350636244,-0.004953293065349871,-0.0046055359984103345,-0.005354885273190902,-0.006144310600050894,-0.00433507947447889,-0.004978442521524904,-0.0054114988291074795,-0.005453582404416824,-0.004810428066621681,-0.004997764608662047,-0.004566113904628612,-0.004707894865528998,-0.00544338097651417,-0.004878190991981394,-0.005009651320987947,-0.0052873382540923304,-0.005185082663916782,-0.005188960030998561,-0.005629500101135985,-0.004963916398683003,-0.005472500500611828,-0.005223640826026401,-0.0042951335765934115,-0.00435852270090704,-0.004628560387923052,-0.004571526942829001,-0.0046092419653647795,-0.004584971630946103,-0.004180949867158236,-0.004744399985949253,-0.004912579251715375,-0.004383690744670134,-0.005212630108305009,-0.004486835876046262,-0.004959399193416193,-0.005270406675284944,-0.004865519984977126,-0.005404950802816236,-0.004217990611123971,-0.00437271281904098,-0.004326461712953112,-0.0042721518836175264,-0.004724083492322053,-0.0043104785500152195,-0.0045571377649135545,-0.004723728931468005,-0.0050348297590901096,-0.003928501779355614,-0.004790818369737408,-0.0042401088061241946,-0.004504396460864589,-0.004617298879355545,-0.006144548053966399,-0.004610799953867677,-0.00474562509407495,-0.004828654793265559,-0.004778446447124667,-0.004767071281473209,-0.0046557750495132555,-0.004596699716216032,-0.004841060148010798,-0.004238278759050505,-0.004872409215841026,-0.005079587532170206,-0.004921850424689898,-0.004824463290357514,-0.004793409831246081,-0.005530637691799102,-0.0050176496728039305,-0.004413744104524253,-0.0053672937481177305,-0.0056358792085247685,-0.004367893746246207,-0.004351295969731677,-0.005879281383558723,-0.00443088093175356,-0.004347706597312019,-0.004582771846697072,-0.004851550881065088,-0.004107019097013014,-0.004915205738085704,-0.00536858245220343,-0.005091460061954244,-0.004705100047571622,-0.0040004889236625405,-0.005633671577408185,-0.004584159686458725,-0.004480658324572502,-0.004587201286314974,-0.004574349580632535,-0.004084227617092928,-0.004574162629366638,-0.004703244072994544,-0.0045051825398285065,-0.004695952571190415,-0.004801547598060063,-0.005193509680436128,-0.005031681970571095,-0.005199577063964673,-0.006068072530122828,-0.0043462864911916425,-0.00456242186323383,-0.005266252120805044,-0.005565929429096823,-0.004624585658891595,-0.0047551863786194914,-0.004471016359585586,-0.004721407435861241,-0.004656712234373294,-0.0040264190006363615,-0.0043532740692367195,-0.004214718208244152,-0.0048049530348440415,-0.004739978250355669,-0.005512500049397598,-0.004733395087823121,-0.003963130639981183,-0.003842739589499593,-0.004469276930768,-0.005080391000856087,-0.004830077389721004,-0.004234511465992882,-0.004313235237798661,-0.004726187084239729,-0.0042789770112237465,-0.0049291628138032504,-0.004859515891957665,-0.00507759186424899,-0.004161988392238977,-0.005715343546060904,-0.0052492504955009185,-0.004670678712058182,-0.006032276419356415,-0.00452573695529428,-0.003906757070389241,-0.004933147054830383,-0.004648339575551168,-0.0047971650921004695,-0.0046285517663314495,-0.005883358499312754,-0.0051418190094999735,-0.004941663167405237,-0.005201621017491206,-0.005857133387819409,-0.005415102399507148,-0.0043979429840622555,-0.004758929237202734,-0.005486847199271618,-0.005308135792001972,-0.0044926991934241,-0.004742801491625502,-0.00533886706333911,-0.0053360045774752994,-0.004286609780608786,-0.00472378502532479,-0.0044654411078237964,-0.005649516148573731,-0.004681060299713046,-0.00568812481945637,-0.005838991668419104,-0.005092930367522897,-0.0049643163307470295,-0.004272216018867654,-0.005192854144877459,-0.004555037738743272,-0.004454451182001914,-0.004311878242301682,-0.005345072989810763,-0.004459859919249464,-0.004349588062620078,-0.004459024990728752,-0.005092105675445348,-0.005226226086296803,-0.005035695631925191,-0.0044487109061063755,-0.00561500797725036,-0.004765443233699845,-0.004233533367068401,-0.0041586565670195304,-0.004175641512962219,-0.004870386461208057,-0.004187328802225038,-0.004299818762853989,-0.004300140015722884,-0.0044049477197005355,-0.005150628594538592,-0.004826915480434417,-0.004287951119545398,-0.00501131185766757,-0.005008252244086997,-0.005502202224292318,-0.004765868074784375,-0.005279018666623305,-0.004834603744487168,-0.00456361049998132,-0.003874138252959607,-0.004525879885919293,-0.005121259107716571,-0.004918410064249626,-0.0054817904792942825,-0.005845361984983405,-0.004741248959877347,-0.004408306614504886,-0.004512371332119011,-0.004888517773295957,-0.005793566466712758,-0.0055277281483211765,-0.0053828632562765225,-0.005521722911901708,-0.005749674525903113,-0.004551143155996039,-0.0047696326613565964,-0.0049886441059553265,-0.00561786119942274,-0.005684467203530817,-0.004540104031473463,-0.005144014175065435,-0.00554071850423026,-0.004299954940023502,-0.004192661805717537,-0.00431639322644733,-0.004384035313933607,-0.004272436460314952,-0.004306501793697294,-0.005199285871517321,-0.005402805814038772,-0.005619336205322801,-0.003966079431769075,-0.004607113140209068,-0.004332333107558505,-0.004321537454365578,-0.0041991014619706035,-0.004177375946788553,-0.004522470639309512,-0.005383511934478794,-0.005837688540288458,-0.005123515196739589,-0.006040836076659349,-0.005537165241330406,-0.005917924503502026,-0.004591252829842517,-0.004448882638500373,-0.00445546932223528,-0.004419939885003065,-0.004417972783923381,-0.004604834430609429,-0.004469161417578742,-0.003984881834143272,-0.004126871957846989,-0.005119560364569315,-0.005634198191235686,-0.0057542434377768825,-0.005542811680546571,-0.005596797466226049,-0.004921671058119888,-0.005577009303373073,-0.0042350459999860104,-0.004624877150890333,-0.0043261355172133815,-0.004553344153623581,-0.004431089473753237,-0.004208353303915167,-0.004327149920739667,-0.005309706926218899,-0.004815184785637332,-0.005448342582626512,-0.005413410104725608,-0.004810384248408689,-0.0050493290251820535,-0.0055108841265363645,-0.005173952069813065,-0.0043214828259195035,-0.004020777966648566,-0.005103302142255084,-0.0048743538479728106,-0.004178239682416137,-0.004876171024488933,-0.0042284337253372115,-0.004338678515382173,-0.004115002512333355,-0.005900441275500166,-0.0043265764548157115,-0.0051266147933262465,-0.004674832892871824,-0.004895244550713426,-0.004706012971743017,-0.005199325484330231,-0.004427699218186753,-0.004669411151924672,-0.004721579878910216,-0.004585887071058072,-0.004133040352597938,-0.00421197177548618,-0.0041831805731147075,-0.004589277503111281,-0.0052735771334046135,-0.004585390211934571,-0.004211610576031911,-0.004267088404477919,-0.004130685850746115,-0.004269027097916738,-0.004401266041749432,-0.005073736572833899,-0.004769247655315534,-0.004972605762463149,-0.004596144319235217,-0.004685499989279739,-0.0055072014221437225,-0.00516496127766177,-0.005143582604381309,-0.0054131598449421335,-0.004754043714520643,-0.004892873122661867,-0.005155730382416887,-0.0041802810191887705,-0.004507576631434035,-0.004632361426775341,-0.005184897598625676,-0.005264347961981664,-0.005382285700565299,-0.003949665347765993,-0.003895706529495217,-0.005115411350110882,-0.0048137030775951386,-0.004377934537611487,-0.003887006943848093,-0.005515047564544927,-0.0045340936691308205,-0.004527102383600632,-0.00399753747463083,-0.004697173314136271,-0.004485062680278311,-0.004367735332149451,-0.004262811842098774,-0.004643710941501304,-0.004617958695838829,-0.0049651058185181205,-0.005466544212083864,-0.004314994742889489,-0.004303296113030086,-0.004199786784399657,-0.00410794110080731,-0.0040444529432224945,-0.004195971930591493,-0.004266968071773198,-0.004516015456697668,-0.004389901948954051,-0.0055337941114285355,-0.005240332175347625,-0.005145021496999003,-0.005489865658925244,-0.005328434177558489,-0.004347217447296146,-0.0045307199494619525,-0.005117781293639418,-0.004033881450905123,-0.004060959905333241,-0.004907170239656874,-0.004859187163429537,-0.0050185037272027925,-0.00541462486824508,-0.0055954424538029,-0.004695624950234685,-0.004977026139810254,-0.004712589488652424,-0.003967814376654234,-0.004577683194060314,-0.003959145638980263,-0.004889689910891114,-0.005332699376199146,-0.003939321272249648,-0.005273503568599458,-0.005021696032382606,-0.0046627192781013085,-0.004285332754352531,-0.004965296403985069,-0.004631134978692831,-0.00532575284363187,-0.005485149827828223,-0.005279589859380538,-0.005105012467492683,-0.005712071694486031,-0.004694551651671859,-0.004549751019376201,-0.00421657167058655,-0.004545295908238892,-0.0053316845886555156,-0.004683723711219391,-0.0051013069669422085,-0.0044892490387371375,-0.0047340963895086945,-0.00449651689028672,-0.004726713270008942,-0.004509861535884202,-0.00514995405685025,-0.00422643432691442,-0.003996166478245561,-0.00508810496202117,-0.004840315803014492,-0.004566609088709416,-0.005190093365248329,-0.004546696720697947,-0.005393520232195299,-0.004113070878314831,-0.004063263169218305,-0.004942107021741583,-0.004236670458133332,-0.004849488755471989,-0.004803940086032716,-0.005454043594622475,-0.0051120979685867355,-0.004607623377779144,-0.0038614530370177508,-0.004339869315565154,-0.00523778150573004,-0.00555628832020638,-0.004367894498347211,-0.004633359805257043,-0.0038768143305828074,-0.004747958129251466,-0.003950116770810429,-0.004308188482969542,-0.00440808470511822,-0.004130629699812548,-0.005236390289105572,-0.004367674124836396,-0.0042481953429665134,-0.0042874823363310294,-0.003885402538361141,-0.004832358454783182,-0.004346097721983341,-0.0041340962236025205,-0.003881557660341004,-0.005142415850636867,-0.00395135723711154,-0.004293012960620056,-0.00429891332840328,-0.004345932433510605,-0.004233343397310927,-0.004453957305744079,-0.005217335846697736,-0.004355676886498748,-0.004376778833927856,-0.004395974774812579,-0.004697969202160373,-0.004844965727586489,-0.00557723920137747,-0.005335479759214387,-0.005635950546145262,-0.005540810854748077,-0.005077844813427094,-0.004404115817306644,-0.004253254161856807,-0.003985412942693979,-0.004453236506406492,-0.004304805582087806,-0.004406629198892544,-0.0042724418136338375,-0.003954920428694779,-0.004620841086058624,-0.004413291045639145,-0.0048492314323630124,-0.0047573617245164936,-0.004997848145839698,-0.005370607546235131,-0.005073671791909774,-0.005585085889193685,-0.009954613662597625
3,-13164169.376182523,-13164169.37618252,-13164169.376182519,-13164169.376182519,-13164169.376182517,-13164169.376182517,-13164169.376182515,-13164169.376182515,-13164169.376182513,-13164169.376182513,-13164169.376182511,-13164169.37618251,-13164169.37618251,-13164169.376182508,-13164169.376182508,-13164169.376182506,-13164169.376182506,-13164169.376182504,-13164169.376182502,-13164169.376182502,-13164169.3761825,-13164169.3761825,-13164169.376182498,-13164169.376182498,-13164169.376182497,-13164169.376182497,-13164169.376182495,-13164169.376182493,-13164169.376182493,-13164169.376182491,-13164169.376182491,-13164169.37618249,-13164169.37618249,-13164169.376182487,-13164169.376182487,-13164169.376182485,-13164169.376182484,-13164169.376182484,-13164169.376182482,-13164169.376182482,-13164169.37618248,-13164169.37618248,-13164169.376182478,-13164169.376182476,-13164169.376182476,-13164169.376182474,-13164169.376182474,-13164169.376182472,-13164169.376182472,-13164169.37618247,-13164169.37618247,-13164169.376182469,-13164169.376182467,-13164169.376182467,-13164169.376182465,-13164169.376182465,-13164169.376182463,-13164169.376182463,-13164169.376182461,-13164169.376182461,-13164169.37618246,-13164169.376182457,-13164169.376182457,-13164169.376182456,-13164169.376182456,-13164169.376182454,-13164169.376182454,-13164169.376182452,-13164169.37618245,-13164169.37618245,-13164169.376182448,-13164169.376182448,-13164169.376182446,-13164169.376182446,-13164169.376182444,-13164169.376182444,-13164169.376182443,-13164169.37618244,-13164169.37618244,-13164169.376182439,-13164169.376182439,-13164169.376182437,-13164169.376182437,-13164169.376182435,-13164169.376182435,-13164169.376182433,-13164169.376182431,-13164169.376182431,-13164169.37618243,-13164169.37618243,-13164169.376182428,-13164169.376182428,-13164169.376182426,-13164169.376182426,-13164169.376182424,-13164169.376182422,-13164169.376182422,-13164169.37618242,-13164169.37618242,-13164169.376182418,-13164169.376182418,-13164169.376182416,-13164169.376182415,-13164169.376182415,-13164169.376182413,-13164169.376182413,-13164169.37618241,-13164169.37618241,-13164169.376182409,-13164169.376182409,-13164169.376182407,-13164169.376182405,-13164169.376182405,-13164169.376182403,-13164169.376182403,-13164169.376182402,-13164169.376182402,-13164169.3761824,-13164169.3761824,-13164169.376182398,-13164169.376182396,-13164169.376182396,-13164169.376182394,-13164169.376182394,-13164169.376182392,-13164169.376182392,-13164169.37618239,-13164169.37618239,-13164169.376182389,-13164169.376182387,-13164169.376182387,-13164169.376182385,-13164169.376182385,-13164169.376182383,-13164169.376182383,-13164169.376182381,-13164169.376182381,-13164169.37618238,-13164169.376182377,-13164169.376182377,-13164169.376182375,-13164169.376182375,-13164169.376182374,-13164169.376182374,-13164169.376182372,-13164169.376182372,-13164169.37618237,-13164169.376182368,-13164169.376182368,-13164169.376182366,-13164169.376182366,-13164169.376182364,-13164169.376182364,-13164169.376182362,-13164169.376182362,-13164169.37618236,-13164169.376182359,-13164169.376182359,-13164169.376182357,-13164169.376182357,-13164169.376182355,-13164169.376182355,-13164169.376182353,-13164169.376182353,-13164169.376182351,-13164169.37618235,-13164169.37618235,-13164169.376182348,-13164169.376182348,-13164169.376182346,-13164169.376182346,-13164169.376182344,-13164169.376182344,-13164169.376182342,-13164169.376182342,-13164169.37618234,-13164169.376182338,-13164169.376182338,-13164169.376182336,-13164169.376182336,-13164169.376182334,-13164169.376182334,-13164169.376182333,-13164169.376182333,-13164169.37618233,-13164169.376182329,-13164169.376182329,-13164169.376182327,-13164169.376182327,-13164169.376182325,-13164169.376182325,-13164169.376182323,-13164169.376182323,-13164169.376182321,-13164169.37618232,-13164169.37618232,-13164169.376182318,-13164169.376182318,-13164169.376182316,-13164169.376182316,-13164169.376182314,-13164169.376182314,-13164169.376182312,-13164169.37618231,-13164169.37618231,-13164169.376182308,-13164169.376182308,-13164169.376182307,-13164169.376182307,-13164169.376182305,-13164169.376182305,-13164169.376182303,-13164169.376182303,-13164169.376182301,-13164169.3761823,-13164169.3761823,-13164169.376182297,-13164169.376182297,-13164169.376182295,-13164169.376182295,-13164169.376182294,-13164169.376182294,-13164169.376182292,-13164169.37618229,-13164169.37618229,-13164169.376182288,-13164169.376182288,-13164169.376182286,-13164169.376182286,-13164169.376182284,-13164169.376182284,-13164169.376182282,-13164169.37618228,-13164169.37618228,-13164169.376182279,-13164169.376182279,-13164169.376182277,-13164169.376182277,-13164169.376182275,-13164169.376182275,-13164169.376182273,-13164169.376182273,-13164169.376182271,-13164169.37618227,-13164169.37618227,-13164169.376182267,-13164169.376182267,-13164169.376182266,-13164169.376182266,-13164169.376182264,-13164169.376182264,-13164169.376182262,-13164169.37618226,-13164169.37618226,-13164169.376182258,-13164169.376182258,-13164169.376182256,-13164169.376182256,-13164169.376182254,-13164169.376182254,-13164169.376182253,-13164169.376182253,-13164169.37618225,-13164169.376182249,-13164169.376182249,-13164169.376182247,-13164169.376182247,-13164169.376182245,-13164169.376182245,-13164169.376182243,-13164169.376182243,-13164169.376182241,-13164169.37618224,-13164169.37618224,-13164169.376182238,-13164169.376182238,-13164169.376182236,-13164169.376182236,-13164169.376182234,-13164169.376182234,-13164169.376182232,-13164169.376182232,-13164169.37618223,-13164169.376182228,-13164169.376182228,-13164169.376182226,-13164169.376182226,-13164169.376182225,-13164169.376182225,-13164169.376182223,-13164169.376182223,-13164169.37618222,-13164169.37618222,-13164169.376182219,-13164169.376182217,-13164169.376182217,-13164169.376182215,-13164169.376182215,-13164169.376182213,-13164169.376182213,-13164169.376182212,-13164169.376182212,-13164169.37618221,-13164169.37618221,-13164169.376182208,-13164169.376182206,-13164169.376182206,-13164169.376182204,-13164169.376182204,-13164169.376182202,-13164169.376182202,-13164169.3761822,-13164169.3761822,-13164169.376182199,-13164169.376182197,-13164169.376182197,-13164169.376182195,-13164169.376182195,-13164169.376182193,-13164169.376182193,-13164169.376182191,-13164169.376182191,-13164169.37618219,-13164169.37618219,-13164169.376182187,-13164169.376182185,-13164169.376182185,-13164169.376182184,-13164169.376182184,-13164169.376182182,-13164169.376182182,-13164169.37618218,-13164169.37618218,-13164169.376182178,-13164169.376182178,-13164169.376182176,-13164169.376182174,-13164169.376182174,-13164169.376182172,-13164169.376182172,-13164169.37618217,-13164169.37618217,-13164169.376182169,-13164169.376182169,-13164169.376182167,-13164169.376182167,-13164169.376182165,-13164169.376182163,-13164169.376182163,-13164169.376182161,-13164169.376182161,-13164169.37618216,-13164169.37618216,-13164169.376182158,-13164169.376182158,-13164169.376182156,-13164169.376182156,-13164169.376182154,-13164169.376182152,-13164169.376182152,-13164169.37618215,-13164169.37618215,-13164169.376182148,-13164169.376182148,-13164169.376182146,-13164169.376182146,-13164169.376182145,-13164169.376182145,-13164169.376182143,-13164169.376182143,-13164169.37618214,-13164169.376182139,-13164169.376182139,-13164169.376182137,-13164169.376182137,-13164169.376182135,-13164169.376182135,-13164169.376182133,-13164169.376182133,-13164169.376182131,-13164169.376182131,-13164169.37618213,-13164169.376182128,-13164169.376182128,-13164169.376182126,-13164169.376182126,-13164169.376182124,-13164169.376182124,-13164169.376182122,-13164169.376182122,-13164169.37618212,-13164169.37618212,-13164169.376182118,-13164169.376182117,-13164169.376182117,-13164169.376182115,-13164169.376182115,-13164169.376182113,-13164169.376182113,-13164169.376182111,-13164169.376182111,-13164169.37618211,-13164169.37618211,-13164169.376182107,-13164169.376182105,-13164169.376182105,-13164169.376182104,-13164169.376182104,-13164169.376182102,-13164169.376182102,-13164169.3761821,-13164169.3761821,-13164169.376182098,-13164169.376182098,-13164169.376182096,-13164169.376182096,-13164169.376182094,-13164169.376182092,-13164169.376182092,-13164169.37618209,-13164169.37618209,-13164169.376182089,-13164169.376182089,-13164169.376182087,-13164169.376182087,-13164169.376182085,-13164169.376182085,-13164169.376182083,-13164169.376182081,-13164169.376182081,-13164169.37618208,-13164169.37618208,-13164169.376182077,-13164169.376182077,-13164169.376182076,-13164169.376182076,-13164169.376182074,-13164169.376182074,-13164169.376182072,-13164169.376182072,-13164169.37618207,-13164169.376182068,-13164169.376182068,-13164169.376182066,-13164169.376182066,-13164169.376182064,-13164169.376182064,-13164169.376182063,-13164169.376182063,-13164169.37618206,-13164169.37618206,-13164169.376182059,-13164169.376182059,-13164169.376182057,-13164169.376182055,-13164169.376182055,-13164169.376182053,-13164169.376182053,-13164169.376182051,-13164169.376182051,-13164169.37618205,-13164169.37618205,-13164169.376182048,-13164169.376182048,-13164169.376182046,-13164169.376182046,-13164169.376182044,-13164169.376182042,-13164169.376182042,-13164169.37618204,-13164169.37618204,-13164169.376182038,-13164169.376182038,-13164169.376182036,-13164169.376182036,-13164169.376182035,-13164169.376182035,-13164169.376182033,-13164169.376182033,-13164169.37618203,-13164169.376182029,-13164169.376182029,-13164169.376182027,-13164169.376182027,-13164169.376182025,-13164169.376182025,-13164169.376182023,-13164169.376182023,-13164169.376182022,-13164169.376182022,-13164169.37618202,-13164169.37618202,-13164169.376182018,-13164169.376182016,-13164169.376182016,-13164169.376182014,-13164169.376182014,-13164169.376182012,-13164169.376182012,-13164169.37618201,-13164169.37618201,-13164169.376182009,-13164169.376182009,-13164169.376182007,-13164169.376182007,-13164169.376182005,-13164169.376182003,-13164169.376182003,-13164169.376182001,-13164169.376182001,-13164169.376182,-13164169.376182,-13164169.376181997,-13164169.376181997,-13164169.376181995,-13164169.376181995,-13164169.376181994,-13164169.376181994,-13164169.376181992,-13164169.37618199,-13164169.37618199,-13164169.376181988,-13164169.376181988,-13164169.376181986,-13164169.376181986,-13164169.376181984,-13164169.376181984,-13164169.376181982,-13164169.376181982,-13164169.37618198,-13164169.37618198,-13164169.376181979,-13164169.376181977,-13164169.376181977,-13164169.376181975,-13164169.376181975,-13164169.376181973,-13164169.376181973,-13164169.376181971,-13164169.376181971,-13164169.37618197,-13164169.37618197,-13164169.376181968,-13164169.376181968,-13164169.376181966,-13164169.376181966,-13164169.376181964,-13164169.376181962,-13164169.376181962,-13164169.37618196,-13164169.37618196,-13164169.376181958,-13164169.376181958,-13164169.376181956,-13164169.376181956,-13164169.376181955,-13164169.376181955,-13164169.376181953,-13164169.376181953,-13164169.37618195,-13164169.37618195,-13164169.376181949,-13164169.376181947,-13164169.376181947,-13164169.376181945,-13164169.376181945,-13164169.376181943,-13164169.376181943,-13164169.376181941,-13164169.376181941,-13164169.37618194,-13164169.37618194,-13164169.376181938,-13164169.376181938,-13164169.376181936,-13164169.376181934,-13164169.376181934,-13164169.376181932,-13164169.376181932,-13164169.37618193,-13164169.37618193,-13164169.376181928,-13164169.376181928,-13164169.376181927,-13164169.376181927,-13164169.376181925,-13164169.376181925,-13164169.376181923,-13164169.376181923,-13164169.376181921,-13164169.37618192,-13164169.37618192,-13164169.376181917,-13164169.376181917,-13164169.376181915,-13164169.376181915,-13164169.376181914,-13164169.376181914,-13164169.376181912,-13164169.376181912,-13164169.37618191,-13164169.37618191,-13164169.376181908,-13164169.376181908,-13164169.376181906,-13164169.376181904,-13164169.376181904,-13164169.376181902,-13164169.376181902,-13164169.3761819,-13164169.3761819,-13164169.376181899,-13164169.376181899,-13164169.376181897,-13164169.376181897,-13164169.376181895,-13164169.376181895,-13164169.376181893,-13164169.376181893,-13164169.376181891,-13164169.376181891,-13164169.37618189,-13164169.376181887,-13164169.376181887,-13164169.376181886,-13164169.376181886,-13164169.376181884,-13164169.376181884,-13164169.376181882,-13164169.376181882,-13164169.37618188,-13164169.37618188,-13164169.376181878,-13164169.376181878,-13164169.376181876,-13164169.376181876,-13164169.376181874,-13164169.376181873,-13164169.376181873,-13164169.37618187,-13164169.37618187,-13164169.376181869,-13164169.376181869,-13164169.376181867,-13164169.376181867,-13164169.376181865,-13164169.376181865,-13164169.376181863,-13164169.376181863,-13164169.376181861,-13164169.376181861,-13164169.37618186,-13164169.37618186,-13164169.376181858,-13164169.376181856,-13164169.376181856,-13164169.376181854,-13164169.376181854,-13164169.376181852,-13164169.376181852,-13164169.37618185,-13164169.37618185,-13164169.376181848,-13164169.376181848,-13164169.376181846,-13164169.376181846,-13164169.376181845,-13164169.376181845,-13164169.376181843,-13164169.376181843,-13164169.37618184,-13164169.376181839,-13164169.376181839,-13164169.376181837,-13164169.376181837,-13164169.376181835,-13164169.376181835,-13164169.376181833,-13164169.376181833,-13164169.376181832,-13164169.376181832,-13164169.37618183,-13164169.37618183,-13164169.376181828,-13164169.376181828,-13164169.376181826,-13164169.376181826,-13164169.376181824,-13164169.376181822,-13164169.376181822,-13164169.37618182,-13164169.37618182,-13164169.376181819,-13164169.376181819,-13164169.376181817,-13164169.376181817,-13164169.376181815,-13164169.376181815,-13164169.376181813,-13164169.376181813,-13164169.376181811,-13164169.376181811,-13164169.37618181,-13164169.37618181,-13164169.376181807,-13164169.376181806,-13164169.376181806,-13164169.376181804,-13164169.376181804,-13164169.376181802,-13164169.376181802,-13164169.3761818,-13164169.3761818,-13164169.376181798,-13164169.376181798,-13164169.376181796,-13164169.376181796,-13164169.376181794,-13164169.376181794,-13164169.376181792,-13164169.376181792,-13164169.37618179,-13164169.37618179,-13164169.376181789,-13164169.376181787,-13164169.376181787,-13164169.376181785,-13164169.376181785,-13164169.376181783,-13164169.376181783,-13164169.376181781,-13164169.376181781,-13164169.37618178,-13164169.37618178,-13164169.376181778,-13164169.376181778,-13164169.376181776,-13164169.376181776,-13164169.376181774,-13164169.376181774,-13164169.376181772,-13164169.376181772,-13164169.37618177,-13164169.376181768,-13164169.376181768,-13164169.376181766,-13164169.376181766,-13164169.376181765,-13164169.376181765,-13164169.376181763,-13164169.376181763,-13164169.37618176,-13164169.37618176,-13164169.376181759,-13164169.376181759,-13164169.376181757,-13164169.376181757,-13164169.376181755,-13164169.376181755,-13164169.376181753,-13164169.376181753,-13164169.376181751,-13164169.37618175,-13164169.37618175,-13164169.376181748,-13164169.376181748,-13164169.376181746,-13164169.376181746,-13164169.376181744,-13164169.376181744,-13164169.376181742,-13164169.376181742,-13164169.37618174,-13164169.37618174,-13164169.376181738,-13164169.376181738,-13164169.376181737,-13164169.376181737,-13164169.376181735,-13164169.376181735,-13164169.376181733,-13164169.376181731,-13164169.376181731,-13164169.37618173,-13164169.37618173,-13164169.376181727,-13164169.376181727,-13164169.376181725,-13164169.376181725,-13164169.376181724,-13164169.376181724,-13164169.376181722,-13164169.376181722,-13164169.37618172,-13164169.37618172,-13164169.376181718,-13164169.376181718,-13164169.376181716,-13164169.376181716,-13164169.376181714,-13164169.376181714,-13164169.376181712,-13164169.37618171,-13164169.37618171,-13164169.376181709,-13164169.376181709,-13164169.376181707,-13164169.376181707,-13164169.376181705,-13164169.376181705,-13164169.376181703,-13164169.376181703,-13164169.376181701,-13164169.376181701,-13164169.3761817,-13164169.3761817,-13164169.376181697,-13164169.376181697,-13164169.376181696,-13164169.376181696,-13164169.376181694,-13164169.376181694,-13164169.376181692,-13164169.376181692,-13164169.37618169,-13164169.376181688,-13164169.376181688,-13164169.376181686,-13164169.376181686,-13164169.376181684,-13164169.376181684,-13164169.376181683,-13164169.376181683,-13164169.37618168,-13164169.37618168,-13164169.376181679,-13164169.376181679,-13164169.376181677,-13164169.376181677,-13164169.376181675,-13164169.376181675,-13164169.376181673,-13164169.376181673,-13164169.376181671,-13164169.376181671,-13164169.37618167,-13164169.37618167,-13164169.376181668,-13164169.376181666,-13164169.376181666,-13164169.376181664,-13164169.376181664,-13164169.376181662,-13164169.376181662,-13164169.37618166,-13164169.37618166,-13164169.376181658,-13164169.376181658,-13164169.376181656,-13164169.376181656,-13164169.376181655,-13164169.376181655,-13164169.376181653,-13164169.376181653,-13164169.37618165,-13164169.37618165,-13164169.376181649,-13164169.376181649,-13164169.376181647,-13164169.376181647,-13164169.376181645,-13164169.376181645,-13164169.376181643,-13164169.376181642,-13164169.376181642,-13164169.37618164,-13164169.37618164,-13164169.376181638,-13164169.376181638,-13164169.376181636,-13164169.376181636,-13164169.376181634,-13164169.376181634,-13164169.376181632,-13164169.376181632,-13164169.37618163,-13164169.37618163,-13164169.376181629,-13164169.376181629,-13164169.376181627,-13164169.376181627,-13164169.376181625,-13164169.376181625,-13164169.376181623,-13164169.376181623,-13164169.376181621,-13164169.376181621,-13164169.37618162,-13164169.376181617,-13164169.376181617,-13164169.376181616,-13164169.376181616,-13164169.376181614,-13164169.376181614,-13164169.376181612,-13164169.376181612,-13164169.37618161,-13164169.37618161,-13164169.376181608,-13164169.376181608,-13164169.376181606,-13164169.376181606,-13164169.376181604,-13164169.376181604,-13164169.376181602,-13164169.376181602,-13164169.3761816,-13164169.3761816,-13164169.376181599,-13164169.376181599,-13164169.376181597,-13164169.376181597,-13164169.376181595,-13164169.376181595,-13164169.376181593,-13164169.376181591,-13164169.376181591,-13164169.37618159,-13164169.37618159,-13164169.376181588,-13164169.376181588,-13164169.376181586,-13164169.376181586,-13164169.376181584,-13164169.376181584,-13164169.376181582,-13164169.376181582,-13164169.37618158,-13164169.37618158,-13164169.376181578,-13164169.376181578,-13164169.376181576,-13164169.376181576,-13164169.376181575,-13164169.376181575,-13164169.376181573,-13164169.376181573,-13164169.37618157,-13164169.37618157,-13164169.376181569,-13164169.376181569,-13164169.376181567,-13164169.376181567,-13164169.376181565,-13164169.376181563,-13164169.376181563,-13164169.376181561,-13164169.376181561,-13164169.37618156,-13164169.37618156,-13164169.376181558,-13164169.376181558,-13164169.376181556,-13164169.376181556,-13164169.376181554,-13164169.376181554,-13164169.376181552
