,0,1,2,3,4,5,6,7,8,9,10,11,12,13,14,15,16,17,18,19,20,21,22,23,24,25,26,27,28,29,30,31,32,33,34,35,36,37,38,39,40,41,42,43,44,45,46,47,48,49,50,51,52,53,54,55,56,57,58,59,60,61,62,63,64,65,66,67,68,69,70,71,72,73,74,75,76,77,78,79,80,81,82,83,84,85,86,87,88,89,90,91,92,93,94,95,96,97,98,99,100,101,102,103,104,105,106,107,108,109,110,111,112,113,114,115,116,117,118,119,120,121,122,123,124,125,126,127,128,129,130,131,132,133,134,135,136,137,138,139,140,141,142,143,144,145,146,147,148,149,150,151,152,153,154,155,156,157,158,159,160,161,162,163,164,165,166,167,168,169,170,171,172,173,174,175,176,177,178,179,180,181,182,183,184,185,186,187,188,189,190,191,192,193,194,195,196,197,198,199,200,201,202,203,204,205,206,207,208,209,210,211,212,213,214,215,216,217,218,219,220,221,222,223,224,225,226,227,228,229,230,231,232,233,234,235,236,237,238,239,240,241,242,243,244,245,246,247,248,249,250,251,252,253,254,255,256,257,258,259,260,261,262,263,264,265,266,267,268,269,270,271,272,273,274,275,276,277,278,279,280,281,282,283,284,285,286,287,288,289,290,291,292,293,294,295,296,297,298,299,300,301,302,303,304,305,306,307,308,309,310,311,312,313,314,315,316,317,318,319,320,321,322,323,324,325,326,327,328,329,330,331,332,333,334,335,336,337,338,339,340,341,342,343,344,345,346,347,348,349,350,351,352,353,354,355,356,357,358,359,360,361,362,363,364,365,366,367,368,369,370,371,372,373,374,375,376,377,378,379,380,381,382,383,384,385,386,387,388,389,390,391,392,393,394,395,396,397,398,399,400,401,402,403,404,405,406,407,408,409,410,411,412,413,414,415,416,417,418,419,420,421,422,423,424,425,426,427,428,429,430,431,432,433,434,435,436,437,438,439,440,441,442,443,444,445,446,447,448,449,450,451,452,453,454,455,456,457,458,459,460,461,462,463,464,465,466,467,468,469,470,471,472,473,474,475,476,477,478,479,480,481,482,483,484,485,486,487,488,489,490,491,492,493,494,495,496,497,498,499,500,501,502,503,504,505,506,507,508,509,510,511,512,513,514,515,516,517,518,519,520,521,522,523,524,525,526,527,528,529,530,531,532,533,534,535,536,537,538,539,540,541,542,543,544,545,546,547,548,549,550,551,552,553,554,555,556,557,558,559,560,561,562,563,564,565,566,567,568,569,570,571,572,573,574,575,576,577,578,579,580,581,582,583,584,585,586,587,588,589,590,591,592,593,594,595,596,597,598,599,600,601,602,603,604,605,606,607,608,609,610,611,612,613,614,615,616,617,618,619,620,621,622,623,624,625,626,627,628,629,630,631,632,633,634,635,636,637,638,639,640,641,642,643,644,645,646,647,648,649,650,651,652,653,654,655,656,657,658,659,660,661,662,663,664,665,666,667,668,669,670,671,672,673,674,675,676,677,678,679,680,681,682,683,684,685,686,687,688,689,690,691,692,693,694,695,696,697,698,699,700,701,702,703,704,705,706,707,708,709,710,711,712,713,714,715,716,717,718,719,720,721,722,723,724,725,726,727,728,729,730,731,732,733,734,735,736,737,738,739,740,741,742,743,744,745,746,747,748,749,750,751,752,753,754,755,756,757,758,759,760,761,762,763,764,765,766,767,768,769,770,771,772,773,774,775,776,777,778,779,780,781,782,783,784,785,786,787,788,789,790,791,792,793,794,795,796,797,798,799,800,801,802,803,804,805,806,807,808,809,810,811,812,813,814,815,816,817,818,819,820,821,822,823,824,825,826,827,828,829,830,831,832,833,834,835,836,837,838,839,840,841,842,843,844,845,846,847,848,849,850,851,852,853,854,855,856,857,858,859,860,861,862,863,864,865,866,867,868,869,870,871,872,873,874,875,876,877,878,879,880,881,882,883,884,885,886,887,888,889,890,891,892,893,894,895,896,897,898,899,900,901,902,903,904,905,906,907,908,909,910,911,912,913,914,915,916,917,918,919,920,921,922,923,924,925,926,927,928,929,930,931,932,933,934,935,936,937,938,939,940,941,942,943,944,945,946,947,948,949,950,951,952,953,954,955,956,957,958,959,960,961,962,963,964,965,966,967,968,969,970,971,972,973,974,975,976,977,978,979,980,981,982,983,984,985,986,987,988,989,990,991,992,993,994,995,996,997,998,999,1000,1001,1002,1003,1004,1005,1006,1007,1008,1009,1010,1011,1012,1013,1014,1015,1016,1017,1018,1019,1020,1021,1022,1023,1024,1025,1026,1027,1028,1029,1030,1031,1032,1033,1034,1035,1036,1037,1038,1039,1040,1041,1042,1043,1044,1045,1046,1047,1048,1049,1050,1051,1052,1053,1054,1055,1056,1057,1058,1059,1060,1061,1062,1063,1064,1065,1066,1067,1068,1069,1070,1071,1072,1073,1074,1075,1076,1077,1078,1079,1080,1081,1082,1083,1084,1085,1086,1087,1088,1089,1090,1091,1092,1093,1094,1095,1096,1097,1098,1099,1100,1101,1102,1103,1104,1105,1106,1107,1108,1109,1110,1111,1112,1113,1114,1115,1116,1117,1118,1119,1120,1121,1122,1123,1124,1125,1126,1127,1128,1129,1130,1131,1132,1133,1134,1135,1136,1137,1138,1139,1140,1141,1142,1143,1144,1145,1146,1147,1148,1149,1150,1151,1152,1153,1154,1155,1156,1157,1158,1159,1160,1161,1162,1163,1164,1165,1166,1167,1168,1169,1170,1171,1172,1173,1174,1175,1176,1177,1178,1179,1180,1181,1182,1183,1184,1185,1186,1187,1188,1189,1190,1191,1192,1193,1194,1195,1196,1197,1198,1199,1200,1201,1202,1203,1204,1205,1206,1207,1208,1209,1210,1211,1212,1213,1214,1215,1216,1217,1218,1219,1220,1221,1222,1223,1224,1225,1226,1227,1228,1229,1230,1231,1232,1233,1234,1235,1236,1237,1238,1239,1240,1241,1242,1243,1244,1245,1246,1247,1248,1249,1250,1251,1252,1253,1254,1255,1256,1257,1258,1259,1260,1261,1262,1263,1264,1265,1266,1267,1268,1269,1270,1271,1272,1273,1274,1275,1276,1277,1278,1279,1280,1281,1282,1283,1284,1285,1286,1287,1288,1289,1290,1291,1292,1293,1294,1295,1296,1297,1298,1299,1300,1301,1302,1303,1304,1305,1306,1307,1308,1309,1310,1311,1312,1313,1314,1315,1316,1317,1318,1319,1320,1321,1322,1323,1324,1325,1326,1327,1328,1329,1330,1331,1332,1333,1334,1335,1336,1337,1338,1339,1340,1341,1342,1343,1344,1345,1346,1347,1348,1349,1350,1351,1352,1353,1354,1355,1356,1357,1358,1359,1360,1361,1362,1363,1364,1365,1366,1367,1368,1369,1370,1371,1372,1373,1374,1375,1376,1377,1378,1379,1380,1381,1382,1383,1384,1385,1386,1387,1388,1389,1390,1391,1392,1393,1394,1395,1396,1397,1398,1399,1400,1401,1402,1403,1404,1405,1406,1407,1408,1409,1410,1411,1412,1413,1414,1415,1416,1417,1418,1419,1420,1421,1422
0,-2618.1967839646845,-3356.1622275439586,-2298.666202475458,-2655.396372951207,-2611.9638323402414,-3387.6433778088085,-2668.396855444441,-2860.7048859357587,-2704.2722732329075,-3378.302510790261,-1926.6158116570982,-2642.310495924103,-3217.465768438795,-2654.1534036401385,-2696.280713909816,-2529.7585701483267,-2677.715397594223,-2870.150933627328,-2482.289686882047,-2851.7072954089654,-2479.78385807513,-2553.5700359317498,-2620.2131065312833,-2744.9035203058916,-2525.7091685970527,-2838.8981707133917,-2849.6892114705015,-2657.954059183512,-2629.562428207315,-2670.8456068391224,-2883.9770194315042,-2838.8167851732164,-2662.7092850044505,-2635.7994365415007,-2608.589350028614,-2658.2904348689,-2679.5704808221653,-2702.3953705296367,-3409.3735142975083,-2874.7221663516766,-2707.480459746442,-2529.8509995267023,-2670.0446971747056,-2691.179873908186,-2485.0449189079,-2706.923192227779,-2671.045377252839,-2662.3437153449545,-2682.8480610551755,-2694.101820737533,-1926.3180273112007,-2808.838135853393,-2936.0795103365085,-2695.9865935461253,-2686.9440463553256,-3143.5626362290395,-2448.478711374283,-2903.7883457507087,-3585.6083917230026,-2619.206302527507,-2681.719518452023,-2529.1177007446745,-2604.175876262957,-2500.643631208069,-2839.1930100182835,-2650.3090558164567,-2672.5671389478166,-3147.6086864418185,-3266.4274666458177,-2669.6288088257165,-2624.945845586107,-2928.527286737908,-2847.946419628066,-2677.187125624616,-3346.628182896639,-2896.5656118779943,-2666.1387260164156,-3055.210367442184,-2827.99279468196,-2665.872418304885,-2836.5129866295592,-2451.995665778388,-2438.3116165531883,-2840.8661300221615,-2852.408436778615,-2690.974478176011,-2939.2603785695173,-3354.9270117829774,-1927.2714318143553,-2686.0066144797265,-3312.5758727318553,-3404.7548802754905,-2687.437866391235,-2678.1467428410942,-2597.2792939425785,-2686.235913094344,-2844.8126517088153,-2629.7029448542276,-2882.769582571157,-2447.1709043904807,-2654.6622139009955,-2859.592184799282,-1922.8003469822913,-2632.0463989304394,-2638.262466522527,-2454.7038982486183,-3368.8775142022705,-2827.100034355625,-1931.510994218587,-3346.1188343126237,-2853.834571947144,-2715.363258083518,-2552.461781730044,-2825.6655486799914,-2651.17312060118,-2537.04691091602,-3005.885812004759,-2857.16167916912,-2614.8375225541536,-3348.5221123445626,-2602.560734866363,-2611.489414449763,-2673.5072807309907,-2872.252743686243,-2660.771896632479,-2672.0773131141186,-2836.8191944331325,-2861.844830747959,-2749.823546805896,-2797.890449881059,-3138.208167142141,-2510.0005723034587,-2604.179496427938,-2843.9564879964128,-2673.1008320750193,-2562.8642685613013,-2847.5811779845085,-3026.6467766286232,-3272.710224475683,-3278.672228885156,-2662.442721684695,-2830.585636141832,-2610.6981655835457,-2552.4205303171993,-3366.1220321758565,-2615.6312400679817,-1919.0767410483413,-2636.711861775499,-2814.204885827535,-2674.910583641601,-2609.4940318557406,-2822.918899727673,-2680.8442789018686,-2617.2604872990223,-2613.7693022538083,-2663.0777566895235,-2888.259024173202,-2812.4826717855594,-1920.5425527177479,-3403.816417127525,-2953.241805308878,-2678.307147030256,-2804.9936145627275,-3298.6568856772096,-2825.9554860937064,-1920.7662770610225,-2318.2854303896665,-2531.108602097521,-2444.738972717474,-3039.236718259153,-2878.3148392993958,-1927.517590349567,-3045.3631800133426,-2871.4333213858995,-2664.2475569874646,-3329.036148913239,-2677.255603841593,-1932.979597181916,-2834.523717219207,-2616.315082871513,-1923.0025036547202,-2856.375316903264,-2633.5632463311963,-1925.245590287525,-2820.7101094511954,-2807.442739049237,-2800.919223640682,-1924.298525169668,-2841.512222166833,-2598.3740675626022,-2637.938301984381,-2845.7960736882665,-2603.764852742258,-2883.791008130785,-2619.0515625558064,-2592.779712293332,-2658.6141080391567,-2840.488464051322,-2612.6412210205112,-2694.237204594639,-2856.53413686852,-2823.504066207096,-2658.310613021024,-2823.1841405192017,-2594.3844127471384,-2693.3678163228815,-2820.9103105729896,-2803.727756822859,-2907.4193137284815,-3149.4472113428524,-2623.5988066623518,-2656.898845785778,-2815.68557208639,-2669.4268718879907,-2641.861873143143,-2810.8215701218996,-2671.6913045014235,-2598.2695286014205,-3256.9835417687013,-2627.006079441548,-2766.0881670910962,-3256.8114138039064,-2642.084183437295,-2529.2395383236835,-2850.0414917369194,-2621.7319043605903,-1922.0964425444815,-2599.237807486764,-2896.4667840698153,-2808.781628827261,-2496.5385353575816,-1917.9329193945305,-2437.9181334870677,-3149.9458227943505,-3060.864941896151,-2665.249825551057,-3532.3587218830044,-2650.2416385934266,-2614.1080626970493,-2811.4294920853126,-1923.2516509991665,-3077.0353355417296,-3316.6770901481464,-2664.7171479688527,-3363.5055336729106,-3323.829909985514,-2496.6609807210625,-2590.876414962057,-2605.0042397211178,-1924.903221042407,-2648.0041794883696,-2850.3157074086685,-1929.005733923153,-2810.381420572043,-2803.2397941805184,-2915.453159947731,-2885.1155548969177,-3021.9481900967276,-2652.6074360880266,-2658.7949112836627,-2797.0166929970374,-2655.314754731473,-2683.6102635712937,-2807.5999237674673,-2832.946070328388,-2996.069801337744,-3061.841548863851,-2787.4988916546235,-2687.817806421142,-3150.847551020015,-3090.3628016374014,-2485.1051683856163,-2667.849053491843,-3285.010143799724,-2860.5451210964943,-2671.4708700095575,-2512.246975381712,-2868.2440232853505,-3339.3493406125635,-2791.6112159572936,-2607.396942634509,-1924.3639408960773,-2809.8382197302467,-2334.5992086597926,-2655.512673490467,-2787.6745569327563,-2596.643410302078,-2662.4712984278526,-2811.6563802113114,-2779.064472221911,-2872.1556013926092,-2901.4558160079937,-3335.249317998101,-2835.746082669648,-2728.5871129767315,-3296.685211885701,-2642.3907120337813,-2665.9179009228583,-2599.040174387219,-2467.6927835465094,-2664.7428439415926,-2647.082986408749,-3266.191833917237,-2874.6187416205894,-2652.93163240702,-3022.8491881392642,-2428.680072953783,-2434.9252268287496,-2810.1967470909585,-2546.399560048369,-2437.1911449709796,-2672.3182535054284,-3261.0725862001286,-2441.101199328431,-3275.266377760356,-3286.4962271764794,-2541.7367627755584,-2670.4716285523346,-3173.246604019133,-2742.854026244745,-2603.489206931899,-2818.4520571438075,-1930.9258998428888,-2318.3527517731336,-2592.3718365016,-1926.6122649779356,-2795.524107278396,-2646.935431704137,-1924.5279693315802,-2788.0669657748426,-2834.861772764341,-3080.3617483382513,-2587.3150177384455,-2645.0518245237618,-2638.2927915930914,-2587.1439967424517,-2902.7666422738,-2514.4613804646237,-2610.9942736166863,-2862.8644377396354,-2659.3269472254888,-3399.7413495080573,-1922.7140590451459,-2434.947018191888,-3391.4599997488235,-1922.673878739972,-2609.555198327784,-2819.2643854116786,-1921.502842157975,-2663.541243491065,-3171.5033504978132,-2647.634681028209,-2512.614728418476,-3296.329657498729,-2600.107400898749,-2729.123890566123,-2646.8507685172967,-2576.039680812502,-2742.0900714948134,-3400.977398954227,-3248.0695083424757,-2502.7326123306616,-2878.2120350328096,-2797.1716311952828,-2766.9487336016336,-2653.074388993935,-2959.953584856645,-2713.7814745067008,-2854.438281430648,-3261.0163179445276,-2693.452210163596,-1926.5734938991145,-2926.6206177416657,-2665.371147298058,-2730.325004084074,-3289.5848100368185,-2591.709982165538,-2516.932479049922,-2502.6469139512246,-2642.445534433332,-2836.712079653829,-1996.928074765096,-2665.68194399459,-2587.96211370442,-2784.8642580374367,-2715.3213507964315,-2883.1749929300686,-3316.9585062396905,-2464.847701661546,-3295.83738422691,-2812.5906231719214,-2792.3391393284596,-2818.0096059154052,-3084.6853558043945,-1918.7099530090939,-2653.423417764245,-3373.8591545813188,-2894.7999570179477,-3317.071174707445,-2567.9059550967477,-2994.3368055857663,-3176.631584465093,-2574.922871232377,-2680.583468713276,-3088.0034153754546,-2602.4857845363917,-2732.1380543202536,-2853.7367842536682,-2582.337549609109,-2717.8062702690277,-2448.619752562965,-3288.3569440625697,-1930.8045789086161,-3270.2593875992934,-3563.0151379603767,-2434.922687477035,-2584.7014166275503,-2601.135001529504,-2498.1827970096065,-2655.3842354511985,-2788.586154492073,-2841.8434884444728,-2715.029139247759,-2794.988852544162,-2806.585613007867,-2532.0210403779943,-2789.483609648225,-2713.6975304794896,-2868.6045003742843,-3366.9165029822593,-2812.4965887802796,-2672.0839639704514,-2618.0760905016177,-3615.5964567970827,-2742.13145218686,-2791.3309427176537,-2850.7519417271387,-2628.4450025420515,-3283.979818333789,-2633.1697384958197,-2628.7136575399636,-2972.696117417403,-2690.0257212439037,-2522.935196705296,-2814.754279806485,-2738.1233523055053,-3316.139587917283,-3301.4209081543286,-2652.0780960126713,-2813.5026320618495,-3083.1449795634885,-2663.5416282716665,-2432.6780199357568,-3063.7204499792756,-2664.4628166345983,-2642.743694786591,-2805.3496438503707,-2646.939667169022,-2636.3823611442135,-3288.780474281597,-2642.698233415751,-2719.992763594846,-3025.5961195910786,-2739.5429138228674,-2326.1093060884864,-2848.5032064603797,-2744.2789913937204,-3267.6857072099856,-2730.8453791290867,-2845.612689285507,-2811.2189934291,-2517.391997982423,-2500.932257556766,-3076.0513510767432,-2679.356178700969,-3267.708247457343,-2810.708199963048,-2696.606491673036,-2645.943665724302,-2821.6941858605333,-2657.245656740053,-2957.9391335132714,-2798.583852634838,-2648.208517025342,-3178.6285000137736,-2618.110801505257,-2670.7101713838047,-2769.5549572089217,-2681.4408987398087,-2679.3449496922553,-2616.748009416204,-2740.179643380805,-3536.078273197185,-2622.526042637822,-3011.822063589533,-3390.583188020862,-3579.499190196351,-2705.6886104561527,-2793.7261123376893,-2819.4337323617283,-2473.807585073648,-2606.214793373314,-2840.2094137913514,-2835.7028282460224,-2709.6769670590443,-2439.5596004969425,-2614.3402956497202,-2668.570438913509,-2624.645617084661,-2981.668492289911,-2897.2300996722506,-2849.425421926029,-2802.413841612276,-2653.4293674596934,-2530.859035554904,-2334.937845802624,-2823.059112915397,-2662.6356060503904,-2614.933465251982,-3383.9185320360143,-2499.071332572989,-2635.207810174856,-2621.2028926565254,-2494.689177299672,-2614.3172913564845,-3341.48833574859,-2847.2124642989374,-2490.1547445219153,-2963.264742290251,-2831.98368138774,-2467.1486493196417,-2690.582033370614,-3354.556185371298,-2654.7588839173804,-2724.1400184366194,-2814.664511445807,-2827.674407864613,-2707.3970331590053,-3355.017549994336,-2697.6601617570786,-2675.7928816923286,-2800.956390518825,-2345.585988524537,-2759.99173946017,-3289.1071656234794,-2642.0936860954735,-2609.3626700806085,-3351.067006196271,-2734.821633427958,-3063.6107353492353,-2812.5165557807504,-2653.6931201923894,-2985.902848123005,-3344.474461008479,-2699.489467785237,-3129.0018550167083,-3363.918697084306,-2476.616032757822,-3061.189682401254,-2859.4178459251593,-2502.125676665669,-2641.6182064661843,-3608.3046953290964,-2512.964651577076,-2830.609270297196,-2796.966851548074,-2500.8915374217354,-2834.0988537032376,-2524.7321389236545,-2693.4286357384362,-2694.406220722871,-3306.735823983804,-2896.932255964485,-2698.3759715255546,-2712.349240091565,-2679.2698467258106,-2630.183694776627,-2697.7213648569414,-2468.8027144918733,-2711.1846174568236,-2687.443271687057,-3059.7076410729237,-2525.399850440442,-2966.6381928261726,-2691.2934643829503,-2676.198522796568,-2964.5355234003437,-2829.7746316152325,-2637.282075008164,-2700.6380068836274,-2686.169050493798,-2005.7945168559274,-2605.267003817134,-2420.2293591445978,-2535.845008599909,-2736.2892665144714,-2634.9376897530024,-2791.0471118006803,-2700.584862929387,-2832.8575597668114,-2598.1426830314804,-2460.8658003672786,-2526.8189341854822,-3004.8729925331522,-3376.405409088551,-2463.482428494656,-3328.5317143052634,-3065.170513025152,-2695.9872367197245,-2969.5724637377043,-3147.821091726151,-2671.4334391348734,-2803.5043565494666,-2664.028156234189,-2522.6058711004566,-2329.090054046253,-3074.791132562544,-2906.4130249452633,-3322.1935173096595,-2510.0591386215783,-2458.216846935545,-2542.529447874861,-2462.3218528600974,-2506.7850865433697,-2569.4897487103053,-2507.4053440305747,-2765.4273170832607,-2779.6263340837195,-3020.2623214622486,-2752.1400452011535,-2853.8931687490995,-2690.1345639638084,-3559.901118226393,-2467.4661176840345,-2496.3250197746056,-2748.9406690597452,-2882.6378748279326,-2703.968136535486,-3186.3335567481104,-2943.479454863564,-3043.7752278800567,-3257.627815438788,-2760.3565981274023,-2327.7145850699635,-2634.6463606445272,-2505.16832189574,-2711.332717296452,-3066.1289322853727,-2539.4428516709936,-3251.4890328530983,-2646.2386136028226,-2651.039954272251,-2593.237462312484,-2513.416802357748,-2332.8531651951726,-2660.3855331497307,-3318.050553284985,-2793.696916340573,-3346.4101678721922,-2740.3700637242305,-2800.678502426223,-2818.0820550756025,-2511.084731441662,-2793.4538581879433,-2768.634069549741,-2505.8839770854133,-2639.974112309362,-2812.33849951135,-2906.190280641748,-2615.012574572466,-2567.999653487197,-2863.2169558921632,-2530.1506115695784,-2504.091609587549,-2815.707799713556,-2727.3850751104865,-2635.06475478988,-2980.684173996395,-2474.607360376158,-3373.6893811579257,-2528.567927320994,-2507.415671024223,-2680.54586590683,-3298.011927293641,-2453.2440580457437,-2486.3300226071187,-2698.8501427030387,-2512.9155359120755,-2623.4936232409686,-3066.9810062042684,-2722.8479132436646,-2832.0100806595574,-2802.680549223209,-2524.8196146903965,-2809.3662946018417,-3305.4689051944097,-2488.886321409624,-2788.9581763935885,-2792.81383775721,-2531.289792362072,-2940.0502412017627,-2624.346890777968,-2482.7930895150566,-2954.2445946231337,-2758.648331967567,-2491.007862917142,-3319.3339045560638,-2992.6593224261514,-2690.2480433524124,-2975.6683010453007,-2664.191786205938,-2966.1470405565633,-2859.3328748509534,-2674.865350336823,-2811.491893467872,-2702.9988347535354,-2693.5948748502497,-3307.9360462013715,-2452.1770509219377,-2629.9781279342064,-2593.2191528361727,-2734.409347113401,-2804.1382455679245,-3336.1115864805033,-2464.141659779359,-2678.1581554464065,-3131.0549867217037,-2467.4242597369293,-3149.2367307961495,-2614.8930851046757,-2490.739004330014,-2440.262093101204,-3388.098433833939,-2594.830919087786,-2512.4987606838145,-2688.1732758132034,-3415.5299733389365,-2873.3974389292275,-2725.9029562842697,-2799.8828743750305,-2879.257281669022,-2456.5293282470407,-2456.0460927125982,-2771.5639616604603,-2481.184503089213,-2805.6149550101645,-2493.989712765807,-2647.632609816283,-2331.253646485848,-2497.34025848983,-2745.523850733171,-3255.0100886017212,-2499.8288506693175,-2715.2434623968734,-3265.922010655697,-2472.9138870027896,-2644.746403503565,-2875.4186329778063,-2691.4928255087757,-2968.385020792277,-2706.5963108379337,-2024.780483066463,-2680.306991640055,-2604.605800708761,-2720.6712570668487,-2802.4986730098876,-2523.3702223594314,-2161.746856590801,-2807.304069455102,-2701.458886262645,-2665.7010135798955,-3285.4024097237307,-2643.2803632862974,-2484.614821328212,-2674.7739350604843,-2854.2798970297645,-2648.9217396690888,-2107.0314046143444,-2588.020288757432,-3348.329736454891,-2500.4961071344446,-2621.357096431995,-2576.5561605142893,-2727.2453407933176,-2620.376595659434,-3472.203474952625,-2737.679610731071,-2788.8564829850116,-2349.9794135278958,-2746.0624714948785,-2632.040666855838,-2589.9445528235974,-2519.308760155906,-2630.2885941252616,-2732.324929550014,-2498.449272776054,-3325.150999712954,-3298.844681821283,-2671.1545634713184,-2976.7147391193635,-3452.596488497747,-3778.3875815271667,-2721.4688828505086,-2807.9158908106187,-2859.555547473715,-2656.994775858233,-2758.273551113292,-2640.169709046422,-2669.5906713933273,-2505.9089231524504,-2481.2456654405296,-2806.90214054041,-2598.61434720759,-2685.3714509656897,-2588.003746808137,-3459.9872955502656,-2724.3557883489093,-2976.5581876383035,-2488.447355301717,-2621.6817452715254,-2587.526609516819,-2652.1194742181187,-2989.3844786076447,-2426.8770955955624,-2457.5424130517767,-2610.5235559959997,-2850.389347250225,-2504.8143440777408,-2585.89848351586,-3126.230067542327,-2684.5042381931003,-2647.066329035116,-3352.42881672503,-3085.528275634146,-2676.5752530133227,-2464.265568764655,-2774.382884782156,-2462.8488784276806,-2580.5531301823357,-2164.3620592319976,-2670.9860773006963,-2536.8915659005597,-3346.749997633463,-2893.7599309447064,-3349.122066158488,-2594.303123703074,-3346.2166225650476,-2463.105309773086,-3284.1157382019087,-2596.8275054768515,-2869.18375951227,-2527.8118791307684,-2643.59252076668,-2685.6983301369805,-3758.3889809359134,-2476.4776865122853,-2854.233056876561,-2985.3304490468613,-2500.3933403202395,-3133.211756926481,-2628.591201187089,-2876.04580447114,-2623.088008757033,-3123.813185024207,-2896.0611294430155,-2886.0305234243688,-2584.761368314778,-2727.1120044695363,-3420.2415199409093,-2633.7091304850373,-2736.808357475651,-3118.3231893484894,-2647.4304068279716,-2682.7172948737625,-2505.9050017204477,-2645.6653302914942,-2616.801321670222,-2672.629198662735,-2664.0179774038043,-2460.4018772378517,-2687.8551764969448,-3374.3446407334245,-2869.9460284569655,-2724.481200181327,-2639.629266105296,-2782.472619895231,-2699.3527229344727,-2758.907406968856,-2866.6812945557363,-2666.3834838714142,-3034.1474671684086,-2607.0332080953835,-2730.4830266433983,-3303.208094751241,-2830.5025712301235,-2708.497547003448,-2589.855599706991,-3332.539777655185,-2499.002387411283,-2584.248341814145,-2594.1352962897126,-2090.973209758041,-2832.215354774166,-3330.0502782302365,-2095.7787029896244,-2478.9093086212674,-2977.200670989704,-2093.2779294057696,-2586.0128739935985,-3321.122981099977,-2712.128063857037,-3026.83295330368,-2179.6885537534117,-2710.942199904408,-2579.973991839881,-2856.7601227773416,-2679.9495990405126,-2033.5303560077475,-2645.886214602866,-2865.2007702666706,-1918.7552960934856,-2458.7711951776546,-3285.0100992195967,-2459.58813042002,-2646.5989612513217,-2572.7237578615654,-2733.115596319854,-2636.884323645628,-2808.418452666219,-2469.3329230424906,-2585.246607609002,-2793.0518606058467,-2713.3175267432134,-3292.986643179266,-2834.058633526801,-2678.4010531516324,-3056.685212021793,-2644.5424981471506,-2494.2027954960445,-2654.4485380033466,-2637.7758356225963,-2602.494548187328,-2718.531216196532,-2858.041008664435,-2630.001110414668,-2647.024478142075,-2853.6194246127716,-2905.4215223321544,-2649.415650467676,-2673.3365017659057,-2588.6075203829996,-2597.38226560046,-2696.4415309844676,-3331.8488849648083,-2638.6103520180263,-2689.5419232821077,-2086.4946200619765,-2987.686443295458,-2901.7787027228474,-2479.610958411797,-2572.7680345605736,-2876.0781615765945,-2477.205236345976,-3120.514618532227,-2845.8614447434893,-2103.615192518365,-2631.6385879787235,-2875.9134039257297,-2091.9983529114875,-2633.6078728359357,-2600.0274565819136,-2727.258124376174,-2844.099886719944,-2823.8526683342743,-2071.070690153161,-2654.987586870756,-3333.7302280676377,-2658.0711400945106,-2466.486370723481,-2030.2983389894255,-2884.149663516759,-2728.071216871111,-2793.291519759553,-2631.85088232443,-2078.7508459937403,-3022.2006552161747,-3042.120860818031,-2705.7243180902383,-3295.2731287338556,-2852.805619687762,-2687.225553226002,-3009.894098930032,-2453.030301895196,-2690.763790931218,-2509.655686229883,-2479.023858719833,-2581.515648051006,-2959.1059802009004,-2996.5118161123423,-2598.6629397576025,-3031.1499229308993,-2711.6250052635114,-2793.1357506799086,-2585.735337406072,-2710.2490393442517,-2584.972920616195,-2850.102541029212,-2655.3215036004563,-2831.790424614068,-2852.9955563809185,-2667.5259898193976,-2096.601939151294,-2976.474383120503,-2884.5984140740925,-2699.7494409915125,-2620.775473240547,-2850.481754875482,-2084.7379803736667,-2682.0540103738153,-2811.85095315006,-2709.4195332232216,-2649.8309210579023,-2035.369988632933,-2097.8450880040737,-2732.1092920873793,-2788.5411840687516,-2647.226057014754,-2083.8407170742403,-2512.826032590588,-2853.3279911678387,-2977.868133949042,-2516.05905237559,-2893.675129103468,-2712.589187072614,-2982.1789115306783,-2853.2993864641026,-2987.5276419748643,-3358.569148333233,-2658.315911648653,-2497.4268962563024,-3313.111908922884,-2689.051608784456,-2611.619915960433,-2981.064481287576,-2103.2608865952475,-2623.789774052369,-2330.7427143361524,-2453.029289063219,-2505.4829446184744,-2474.4925659091373,-2633.88864629198,-2743.750421105118,-2911.2416416742185,-2639.0631075882757,-2985.4596532681653,-2960.550658322899,-2625.3476615073764,-2768.36580250499,-2864.0288896290867,-2458.0555117665067,-3306.8774157514736,-2812.890961845876,-2715.408320179313,-2623.6228275169724,-2579.996897080009,-2101.722539983174,-2635.614501886259,-3039.5836041918947,-2640.0252691320875,-2090.9100692540705,-2846.591388035253,-2882.759079515639,-2102.6729834105677,-2344.100719769351,-2598.2080025123164,-2694.9903182635185,-2623.0288214630787,-2839.7723685056926,-2088.6232772417816,-2819.20382501417,-2841.388119810617,-3358.157254107562,-2707.622039422484,-2688.656039803594,-3736.7589230973854,-2879.4617655665456,-2092.9482747197244,-2809.0802304696886,-3026.940220678126,-2715.0732653167574,-2644.8322089311255,-2640.8735731611696,-2090.530306987046,-2840.849932673289,-3035.7642754444532,-2428.354810729508,-2084.1197138467383,-2799.676374746838,-2654.9048824453334,-2716.327903745621,-3091.5873086516544,-3006.399522363411,-2719.5699889380394,-2469.9399642623966,-2550.9037487668465,-2701.299451897104,-2580.841119128491,-2820.1279653889073,-2699.965405699921,-2602.7222386021194,-2787.8427649196024,-2705.9927109424484,-2323.999403155451,-2620.6290571749205,-2705.066273711768,-2792.6588976891,-2637.48509131003,-2677.106224630812,-2810.781378152599,-2813.409710203278,-2695.0806505993173,-2663.072663228217,-2584.7265032781975,-2873.7256768336115,-2094.4184284176745,-2336.16572738722,-2857.2846335156128,-2722.2789277506945,-3320.076095841251,-3029.2444116472475,-2719.477265917962,-2701.2612048477317,-2592.8124326700513,-2082.821606755002,-2709.7275177678926,-2513.1682364045737,-2609.815441817871,-2650.479439859967,-2789.1610056296518,-2548.4658960370757,-2724.094413770008,-2680.8133987517276,-2541.7852959880365,-2090.22242444848,-2626.540606464491,-3270.462831915537,-2104.1959183829076,-3356.35096333501,-2068.962134060222,-2648.4021239962913,-2963.6253965136916,-2093.173878062429,-2632.7617265138742,-2329.5132701485118,-2712.0635658775277,-3289.998242610114,-2347.80743965254,-2716.396472378333,-2752.8690715683774,-2620.8386572504305,-2688.4615560610996,-2805.1276910760794,-2766.771020136453,-2897.5889837672644,-2652.114518439722,-2168.408505400123,-2846.98826351639,-2723.938232381823,-3101.6945537515485,-3046.0440629814993,-2866.6067112815504,-2701.950284493884,-2962.840439619822,-2825.6550713651645,-2686.2436326594025,-2672.979501313222,-2990.0039342608175,-2881.2442680650634,-2092.299145434809,-2819.228692077266,-2643.7421104874606,-2086.151639447195,-2585.379095015653,-2032.828283967899,-2093.6220626960703,-2685.384171409913,-2545.380482911868,-3009.768137724698,-2832.8399773730093,-3329.546881032268,-2731.151816257532,-3035.2567780919753,-2091.3203082991804,-2630.6858026790073,-2826.6710798886506,-2946.8722821595616,-2752.965331235022,-2838.2513568369204,-2714.6714304363873,-2851.4081659590925,-2592.1327128274065,-2695.594505951658,-2641.972265409675,-2854.664309019158,-2094.175855032325,-3274.127823889126,-3368.230918655013,-2942.1206158278464,-2599.9647323518943,-3061.1759145634483,-2098.8776271445886,-2860.5323965400053,-2847.9051869538994,-2654.21494769275,-2699.560778653455,-2650.911092849031,-2863.9491935750048,-2692.389087874158,-2079.6263727268306,-3094.816673437661,-2086.557803492736,-2577.017561662986,-2873.0162126124833,-2083.1764342284073,-2871.4190702899677,-2091.699550543551,-2595.1288097117917,-2607.253025167873,-2094.0857883369163,-2826.1387427698664,-2883.4545281579212,-2703.023436972976,-2804.8743932868915,-2845.7718252213404,-2874.934151399441,-2169.609146278215,-2073.31120018416,-2985.2839912415743,-2651.5792569389473,-2816.002659445767,-2770.7860859014418,-2094.9967635402386,-2541.333420160154,-2661.5392246552656,-2650.9276092388986,-2823.5251358115825,-2086.9280690198707,-2652.493494400219,-2076.3673131458786,-2652.507512662677,-2858.5849145868256,-3090.286840567159,-2687.5832600157237,-2831.384670741861,-2083.8117513068364,-2085.228274228676,-2096.155893040113,-3135.258390729257,-2640.2512915453212,-2847.1248885026125,-2652.969545531133,-2081.423649544549,-2853.5856190165473,-2086.9753348741674,-2083.4871062256766,-2886.602196009104,-2386.0775756707226,-2080.326833149402,-2872.447983671795,-2662.37131976391,-2092.6973755317345,-2581.5619382007094,-2082.7745729660523,-2678.877440866581,-3064.4213325046926,-2645.1712479359308,-2854.2033101320553,-3075.564594187534,-2083.9232961949956,-2769.827046641076,-2857.1597623940406,-2685.153233236223,-3125.88176432439,-2657.1218575871385,-2660.966632133874,-2591.27714547933,-2864.3173050431215,-2084.2524221359226,-3049.862761244019,-3076.370779625185,-2084.829180654038,-3431.672863386749,-2622.530883273273,-2095.80155373883,-3036.5647908378683,-2889.046434939197,-2701.4232084534924,-2769.811743912991,-2855.9452116488164,-2093.4962478928883,-3019.4837463878935,-2830.6195165569698,-2096.6225867863745,-2758.2348124141135,-2237.037766811433,-2078.4568925000476,-2800.13227643575,-2081.591136434007,-2850.4422388367348,-2391.2764238692184,-2100.0901410140173,-2865.0108879876766,-2082.754716796113,-2590.757836399625,-2839.4127252782146,-2694.3236780649368,-2770.032931711166,-3026.8604806672297,-2709.1226836971364,-2812.946820785225,-2082.811427387522,-2856.2972875267333,-2877.7612272819306,-2088.278002438106,-3429.6967597133385,-2864.9586437341436,-2080.234020072358,-2771.435925021235,-2895.7775028121164,-2880.044233677324,-3332.291248354009,-2892.7905692295335,-2075.425924422057,-2724.8211126323167,-2843.6410016969176,-2826.8434321854957,-2083.462384142532,-2599.1578603444555,-2076.90939063232,-2681.090628975495,-2998.345539662922,-2615.7568292366977,-2878.72109730317,-2967.3479770402296,-2664.465627688563,-3074.5611348410735,-3082.8445945948365,-2700.1627715127443,-2581.0096606679353,-2607.7185771909863,-2854.5612567504045,-2577.7178749814398,-2716.709883255959,-2846.3535554024056,-2635.875144348796,-2088.5385211536486,-2764.9427257702723,-2643.684419731861,-2078.6039961575702,-2769.1427569348393,-2085.278571796739,-2599.2364276222534,-2856.7132327903482,-2704.4625833184173,-2762.670613608404,-2814.0048307668794,-2092.3154841332575,-2582.437851985618,-2886.726893674173,-2090.3265064609473,-2810.6700020571307,-2657.107181507678,-2689.2918932249354,-2584.3380433761363,-2844.391725509965,-2684.5895151158907,-3701.23124780983,-2062.963177068528,-2672.984288167069,-2806.685294559946,-2656.6256462945234,-2670.010200281896,-2770.2838731768666,-2622.3892518383277,-2855.044307885668,-2990.017557562402,-2649.7835352283237,-2853.2781152663692,-2995.705858781231,-2667.6634219296648,-2693.226586704919,-2726.3537492413816,-2872.1834591868414,-2108.694867700224,-2830.8491818858715,-2617.19166113332,-2085.0975994151986,-2081.2406587230207,-2759.855699979544,-2708.6222424826497,-2842.5222300818277,-2821.4178891374027,-2710.3651275288794,-2751.8384262833088,-2691.7458020430463,-2087.445582118904,-2560.492672912157,-2699.307072888869,-2831.9278075961183,-2669.1515502939583,-2079.032787045767,-3316.9257833279376,-2075.9343816299006,-2083.937524074385,-3313.6981286200066,-2265.7296828067974,-2780.5815160393527,-2086.0762062603167,-2083.175184105509,-2767.238964419205,-2611.2429972847003,-2078.8091210569346,-2854.724371078511
1,345.3842107085169,342.38060827873164,347.3864451809385,345.3839544467718,345.3840230251461,342.3805804421711,345.3842966401402,344.3827785011774,345.3838200859553,342.38081595950166,349.3882968172353,345.3838431310958,342.38048215934646,345.3839927206835,345.3838300194613,345.3839460676658,345.3841096282265,344.3827359167757,345.3838254095144,344.3826487639493,346.3849889636647,345.38382862486094,345.38403158101096,345.38376374807643,345.3838766537611,344.3828697757456,344.38276458771446,345.3838385439118,345.3839275509909,345.38401861885416,344.38278506001984,344.38269481637263,345.3842195667685,345.3838599719404,345.3840162118599,345.38430247292865,345.3837677828141,345.38390646435425,342.3806852112924,344.38267201778893,345.38380011887455,345.3840194752497,345.3839264911569,345.38397581136485,345.3838721327755,344.3828778904392,345.38403090855763,345.3841057745302,344.38280904772967,344.3829636158204,349.3892875579186,344.3826676358159,343.3815723585352,345.3839678505786,345.38395346283045,342.3809671837551,346.38489320722,344.3826809003863,341.3794192409919,345.384104907906,345.383833732464,345.3838898073855,345.3839202402165,346.3854349557053,344.38289408762057,345.38402613531156,345.3841039238275,342.3804631794619,342.380475048863,345.38401741096493,345.3837889636418,343.3815919915939,344.3827845632706,345.3839195118128,342.38046632906986,344.3827860535636,345.3842634801777,343.38180554581015,344.38268606614986,345.38417804816254,344.3832796262296,346.3852065088076,346.3856305046987,344.38282001681176,344.38282456772225,345.38384645490055,344.38276518216634,342.38052353913264,349.3884834881321,345.383850475253,342.3805796288199,342.3807514264899,345.3837672071949,345.3837978408067,345.3837818041612,345.38406560042915,344.38280669380305,345.3840949010374,344.3828747599618,346.384920644282,345.38380131469046,344.38273881954035,349.3883517017137,345.38381860286177,345.3839214605098,346.38560139779423,342.3808258808858,344.3826990864772,349.3885084534059,342.3805827965222,344.3826996577965,345.3838486382279,345.38392106558695,344.38267766397706,345.3838932467109,345.38407104343844,344.3827930363732,344.3828239854683,345.38444665992927,343.3818338686706,345.3841007030828,345.38407124487645,345.3837898037625,344.3826963753246,345.38418788650375,345.38387305605653,344.3827516809261,344.38271237899806,345.3839397939996,344.382787491898,343.38171242648656,346.3849468742876,345.3840664506986,344.3826999794753,345.38386993707365,345.3840355612097,344.3827315131885,344.3827134718364,342.3806825111488,342.380489823273,345.38411539054914,344.382667057312,345.38395472759134,346.38504459655917,342.3806432017585,345.38418890026304,349.3882927534602,345.38382917194923,344.38343226624903,345.38413710565055,345.3844101973383,344.3827180464673,345.3837604608034,345.38419144443145,345.38380396005516,345.3840247651813,344.3828495559463,344.38265085780773,349.3886201939596,342.38075905471464,343.381725466347,345.3843684175939,344.3827281386163,342.38051671084924,344.38268732187487,349.3886952906125,346.3849839931872,345.38414901492933,346.3852134286396,343.3819888369355,344.3830262677126,349.3888273310321,343.3816466833536,344.38272116448155,345.3844266209409,342.380439863975,345.3839427860691,349.38849477064434,344.38293102040365,345.3838259554724,349.3884611538653,344.3827703006146,345.3837606970898,349.3885887799958,344.3826886634424,344.3827959722295,344.3826479832965,349.3882541050731,344.38272585568853,345.38387087588643,345.3843261817106,344.3829632498591,345.3841885328931,344.38283742890485,345.38411197773974,345.38398460506323,345.38379761327076,344.3826562983501,345.3837615053941,345.3840727795099,344.38268465654266,344.38270294351116,345.3841694854206,344.3829996788801,345.38394320681573,345.3839432518761,344.38272435347284,344.3826663937397,344.38318609464983,342.38045402748656,345.38407323620584,345.3840395450293,344.3834211673887,345.38387654485194,345.3838062872364,344.38278818717885,345.38376323169166,345.3838240632735,342.3806095550583,345.38380530333217,345.38391986364473,342.38074639966334,345.3837897431971,346.3848835138818,344.38274662432457,345.3839578065956,349.38831529500726,345.38462448903005,344.3826558391722,344.3831927081011,345.38399770022454,349.3882139017235,346.3849631464604,342.3806489607162,343.3819479585733,345.3839971432191,341.3794945276573,345.3838985436231,345.3840308600664,344.3829860382549,349.38873119585344,343.38157582972883,342.38048422727024,345.3841734562856,342.38068920566116,342.3804412186149,346.3854202369602,345.3840984315515,345.3843250420389,349.3883587298599,345.3839656623055,344.3830108209144,349.38835657053573,344.38283377134553,344.38269680444097,344.38299916486875,344.3829479770629,343.38157756422805,345.3839228328258,345.38383629846584,344.38304228407947,345.3839009440366,345.3837744577173,344.3828737347604,344.38291641913185,344.38266776540246,343.38156124627085,344.3826614581025,345.38447188059706,342.3808998330986,343.3816686001973,346.38498156141554,345.3837945963434,342.3804905861832,344.3829688500199,345.38381728875737,345.38378982653967,344.3827239751045,343.3815897732444,344.38310434686014,345.3839853351059,349.3882861108147,344.383129162439,346.38504961785833,345.3839413366105,344.38279153335003,345.3838171574194,345.3839485303253,344.38279616166915,344.38333366009283,344.38308369163866,344.38278779047255,342.38045488926116,344.3826661258653,345.3838067381324,342.3807253994609,345.38378960349434,345.38390083878363,345.3839007441221,346.385295642099,345.38379255679496,345.38429773922263,342.3807811354709,344.3826982412565,345.38381195284666,343.3817983962259,346.38549060353347,346.3850484346375,344.3826807883946,345.384336196496,346.3853257762001,345.38396245080366,342.3806733044747,346.38490146569956,342.38049964509804,342.3805035486622,346.38488617305006,345.38416708896307,342.3804589311468,345.3838377477311,345.3837917860938,344.38279222391157,349.3888730209295,346.3853147962206,345.3842561828026,349.38847907924225,344.38282578107646,345.3838289582837,349.38821281448253,344.38271060548334,344.38278676273524,343.38162189429534,345.384329898787,345.3845437731435,345.38377839823397,345.38433605766255,344.38271146943345,345.3839657672824,345.3839179314075,344.38288145592225,345.3837826404178,342.38055767222653,349.38870042496177,346.38494831041027,342.3804647868715,349.38834596699934,345.3838175056094,344.3831791494392,349.38821341939484,345.38376141233107,342.3807801636228,345.384190363475,346.38510399665745,342.38049232003044,345.383919647885,345.38430450164145,345.38441870282276,345.38376318382683,345.3840231727646,342.38072020775274,342.3804896892178,346.38488826082727,344.38298941725213,344.3830096981815,345.3838193625398,345.38386456823497,343.38160847814703,345.38384705493917,344.3827713725202,342.3804327114957,345.3837708107636,349.38843219573204,343.3815533373703,345.38394218491504,345.3840677629437,342.3804308384905,345.38405137418005,346.3852633749179,345.38383802561066,345.38382915960784,344.38279834038303,348.38733666125586,345.3838979961604,345.38391751582014,344.3827311172004,345.38397583852674,344.3829070717857,342.38053478944437,346.3850114526852,342.3806660198271,344.3826609843744,344.38321657941236,344.38270863664303,343.38187808013146,349.3885940444819,345.38387777101303,342.3806984127978,344.38277493108626,342.38057602600617,345.38388597744427,344.3827171946215,343.3817253656289,345.3838222826997,345.38410648124693,343.38179884129084,345.3845748418065,345.3837915872231,344.3827713742427,345.3839856301867,345.38414542534616,346.38510499560306,342.3804359905708,349.3890500432335,342.3807696728999,341.3793390452853,346.3850881871145,345.3842819816543,345.3840350161485,346.3849687600849,345.38384689189974,344.3828761326661,344.38279650204544,345.3838145814667,344.38295919523114,344.38266310036835,346.3854198335385,344.3826851942311,344.38289170129235,344.3827582160449,342.38054829894446,344.38287198768836,345.38408063588537,345.38427535036374,341.3793505809159,345.38390758178315,344.38315059630355,344.38272884972787,345.38397135642344,342.38045413054,345.3842810041158,345.3839121920166,343.38170083127886,345.3843448326932,345.38414349657273,344.3826522274627,345.3839893306287,342.38087540761677,342.38095756601837,345.3839983545555,344.3829998621772,343.3816189672185,345.3840436574312,346.3850414425567,343.38154067188304,345.38432829110707,345.3838680745527,344.3827161811919,345.38381247883746,345.3839826859102,342.38047329333983,345.3840812708834,344.3828658288148,343.38204845451367,345.38376150518116,346.38555615846496,344.3831909929321,345.3840463239082,342.3805656168879,345.38420847850074,344.38275233231303,344.3826934016453,346.3850685238605,345.38396233926244,343.3820342999246,345.38379620396967,342.38061359085793,344.38297393386017,345.3842870076217,345.3838938508504,344.38284736930814,345.38380520050424,343.3817876998962,344.3828370742884,345.3838470104748,342.38092466396444,345.3838789063048,345.3842022658252,344.38279415777566,345.38382929320466,344.3831216204456,345.3839942768796,345.38378845232285,341.3793768959315,345.38397008764576,344.3830926631334,342.38044855041784,341.3798712190463,345.3840214722784,344.3826775231174,344.3831172970672,346.3850313441333,345.38447904807526,344.38275409388797,344.38274255219414,345.3840007517697,346.3848993501665,345.3837958182869,345.38376799896105,345.3838180905299,343.38201031588153,344.38271913251816,344.38269236041896,344.38287301022143,345.3841464265854,346.38515460669305,346.38527636212876,344.38295897236657,345.3838678517676,345.38388570459836,342.3805739381597,346.38501796353944,345.3838212608976,345.3839862932058,346.38500025621266,345.3840321452635,342.3804897544781,344.3827326104109,346.38519294593596,343.3816350617212,344.3826551237046,346.38526511303144,345.38437684112984,342.38062104401826,345.38382580505197,345.38380989878124,344.38265009632175,344.38280729299777,345.3839085711423,342.38057479988964,344.3827819887422,345.38386445732476,344.3830804676519,346.384996548395,345.3840253991724,342.38045375476764,345.3841534561385,345.3840641310408,342.38055647228714,345.3837727458039,343.3815450899237,344.38294673351567,345.3844783320496,343.38158566733375,342.38065023337356,345.38406712275065,343.3815759755141,342.3804258938377,346.3851781570511,343.38215225959533,344.3829086093973,346.38487816728025,345.3846301697865,341.37949381902865,346.38500335131675,344.3830556122096,344.3827274202189,346.38489965393546,344.3826673946505,345.3840003645194,345.38396559620696,345.38399043104664,342.38063688784314,344.3827238314552,345.3840515892069,344.3829502399754,345.3837828234642,345.38377615189665,344.3830019574455,346.3848771512526,345.38392771818036,344.3829126310248,343.38155960805335,346.3850492198471,343.38158369861276,345.3838681213323,345.38389531528907,343.38175261323397,344.3827158615872,345.38407823408977,344.3827435507554,345.38393434967776,348.3876269618432,345.3837878956587,346.3850238288597,345.38422052433776,345.3842484897145,345.38387075533615,344.38314779505106,345.3839226424275,344.3831105579148,345.3839299081008,346.384990803379,346.38518850341313,343.3817606430814,342.38068015668875,346.38507786853796,342.3805290732853,343.3818720374816,345.3838450544106,343.38180070293464,343.38155054700843,345.383913868883,344.3830285646122,345.38381207962726,346.3849495603016,346.3850868691448,343.3816049178472,344.3831767202338,342.3805841802054,346.38533963033524,346.38503606996716,345.3839229879138,346.38493602221786,346.38490404533235,345.38426365737564,346.38500373796495,344.38292806218016,344.3827210622377,344.3827327428971,344.38270560656787,344.3827576816957,345.3839278555496,341.37932893676054,346.38501460225984,346.3856111588568,344.38318121139037,344.38280660456684,345.3840516840222,342.3806826460775,344.38281250314986,343.38189219584456,342.3805085951069,345.3838008089876,346.38509072447397,345.38392391774516,346.3853847743509,344.38301480303824,343.3816565838119,346.3849264976067,342.3805946014266,345.3840211346539,345.3839407660554,345.3841200109628,346.38501768520683,346.38541987058704,345.3842679416213,343.3815662682443,344.3826879653835,342.380696289632,345.3837823883483,344.3828899830507,344.3826494238735,346.3849278231545,344.38265579944925,344.38302427360975,346.3849163312333,345.38381672722403,344.3827922279948,344.38265809215295,345.3837866761056,345.3840416996031,344.3827768899356,346.3848875428718,345.3840935611506,344.38293350197944,345.3839954705482,345.3838108486939,343.38162218328375,346.38513793477136,342.38055373484235,345.38453241498127,346.38498233082856,345.3843651045608,342.38044568864916,346.3848799241555,346.3854722304795,344.38285457254204,346.3853671008525,345.38385553194814,343.3815478996963,345.38398764771443,344.38304180250543,344.3828486951114,346.3856586082805,344.3829949228563,342.38096649344897,346.38523259101805,344.3827593976512,344.3827790652967,346.38491859634945,343.3817256096673,345.3839330420118,346.385367180616,343.381626962308,344.38289726284654,346.3849068807477,342.380639492817,343.38157750219574,345.3840733544029,343.38160408810336,345.38380013747377,343.38169217018776,344.3826911661651,345.3837833535468,344.3829083650348,345.3840802279318,345.38383792997905,342.3806673620128,346.38553582436646,345.3839114222275,345.3842450669523,345.38386328891175,344.38269128238187,342.3804370260556,346.38500148687825,345.3840384566635,343.3815399937578,346.3850125105242,343.38177270078927,345.3841624869092,346.3853732427482,346.3853489651051,342.3804775035107,345.3839426232603,346.38491635176143,345.38377111681325,342.380639988271,344.3833035025128,345.38424713057265,344.38271421946257,344.3827658248199,346.3848990922314,346.3853362082224,344.382705031529,346.3853057403563,344.38289521129747,346.384893496287,345.3839133530127,346.3850421589154,346.38505225613653,345.38383431946465,342.38051012285285,346.3852705556184,345.38404531217924,342.3804541513236,346.3849925652017,345.38382189243504,344.3829414056668,345.3844326845744,343.38192547966554,345.3840216392298,348.3875427705596,345.38379995721806,345.3838843344986,344.3832279628382,344.38338194066955,346.38516916628834,347.38618207590343,344.38301354740406,345.38384511023963,345.38385674096077,342.3806340873419,345.3840218948622,346.3851615528025,345.38409202127093,344.38301425827467,345.38388931658466,348.3880605686407,345.3840151918958,342.38047584772806,346.38499100153234,345.38384646486526,345.38376288553195,345.3839581167998,345.38378164238003,342.38069493937235,345.38387558909284,344.38278674116276,346.3856261095276,345.3840748789816,345.38411556144627,345.38436345068175,346.38497829168324,345.38419435154503,344.38270215922853,346.3851533656536,342.38101169773034,342.3807228496348,345.3840946080272,344.38303783429313,342.38052072035396,341.3796104960127,345.38387556768305,344.38293946406856,344.38308463153777,345.383961578102,344.38288343599396,345.38385542720164,345.3840807139805,345.3838990348351,346.3855867072901,344.38278801706593,345.3840385071048,345.3846049286871,345.3837735546074,342.38046379420877,345.3837741802662,343.3815402354295,346.3849043206818,345.38385239132924,345.3840693007178,345.38406833286376,343.38165911292805,346.38505902610063,346.3849027123498,345.38400783139275,344.38289940594535,346.385157032043,345.3839863146897,343.38178977016776,345.38387128311774,345.3840820231993,342.38073668380844,343.38172061424626,345.384123655427,346.38504487022544,344.38271710799364,346.3851794787114,345.38423468404994,347.38639079504213,345.38384532680095,345.3839962326062,342.3808298481417,344.38282078532063,342.38051066718697,345.38402846778246,342.3808942215022,346.38489072739833,342.3805082169151,345.3838902733069,344.38277734547836,345.3844181483072,345.3839290446371,345.3839301491638,341.3793684886302,346.384878668188,344.38288285736866,343.38158318132224,346.3849785463535,343.38154979435643,345.38378544269955,344.3827218981694,345.38384783801627,343.38153710556725,344.3831514313982,344.38319563226986,345.384368185673,345.38394577554124,342.3804618467414,345.38381941322746,345.38423028831454,343.3815569464859,345.38378542298835,345.3840107007899,346.38492462774786,345.3838938629118,345.3838823427544,345.3842887002121,345.3842413466868,346.38537421100784,345.3838780925783,342.38085469845197,344.38291387265144,345.38377949804715,345.38384600814106,344.3828403485389,345.3839005152366,344.3827156403866,344.38269595468205,345.38382491703413,343.38175468555806,345.3839321057084,345.3842733262155,342.3805090438636,344.3826878136157,345.38418402804757,345.3839908531364,342.3804307640097,346.384902979594,345.383895742007,345.38417331916503,348.387207076899,344.3829096086844,342.3804526029246,348.38789727408727,346.38499290843174,343.38154792111385,348.38737190549557,345.3842695945278,342.3804463857872,345.38387836849427,343.38190638599895,347.38644249857583,345.38388723646216,345.3838172155763,344.38276369857925,345.38385633314044,348.3872353519521,345.383856510427,344.3834799029646,349.38877226708934,346.38502839172577,342.3805941698074,346.3850666163636,345.38396783932785,345.38390436563566,345.38377282004643,345.383784560395,344.3829858049601,346.3858597409675,345.3838626108239,344.3827076781936,345.38385338976434,342.3809482349126,344.3828714405099,345.3840095002247,343.38167026114934,345.3840560447811,346.3850797566655,345.38463369920373,345.384111717515,345.3837836239017,345.3841439563834,344.38265632045704,345.38384532214354,345.3839936227834,344.3826761772143,344.3827763393804,345.38395742559624,345.383765784649,345.3840868019251,345.38381565216696,345.3839774624042,342.3805294064955,345.38390310045935,345.3838477888405,348.3876706994786,343.38159357363116,344.38283418995184,346.3849015615582,345.3837894434193,344.3827176342889,346.3854971475476,343.3817521786281,344.38306807497344,348.3871479514586,345.3840239211062,344.38277646473745,348.3871540431983,345.3838732366435,345.384235174597,345.3844342819593,344.3830019628025,344.3831769998584,348.3875833105962,345.3837990825229,342.38063048238547,345.38376795707376,346.3850728889449,348.38860991444716,344.38283430500763,345.3838054017567,344.382665342628,345.38382067096177,348.38723037559515,343.3820688606518,343.3816400472395,345.38386908798424,342.38067352595635,344.3827295425484,345.384160917676,343.38208313774237,346.3849021105516,345.3840956957823,345.3837886013402,346.38550776543894,345.38435175465537,343.38177037153974,344.3826847210875,345.3839361089579,343.3819277826934,345.3838214921578,344.3828031618038,345.38402455841225,345.38377447406947,345.38414925057975,344.3826488396486,345.3843982170613,344.38303432664316,344.3829097998719,345.3841430883756,348.38724529323,343.381789393466,344.38320859556916,345.3840536917633,345.38392715622854,344.38282025542895,348.38814886024176,345.3838999667637,344.38265082938693,345.3838832660201,345.3842034859193,348.38747004488096,348.3872501999596,345.38378835150667,344.38300474908476,345.38392753923785,348.38711109169435,345.3845471218847,344.38291178496297,344.3827772156418,345.3840325634965,344.3827859596493,345.3840849293552,343.38168657768455,344.38309797305584,344.3827772224123,342.3807995855277,345.38412329222194,346.3858086179105,342.3806214002057,345.38402213571635,345.3838171194184,343.3817684905243,348.38718319371907,345.3837920243095,346.3849977093076,346.3849898724961,345.38425114400036,346.38490375932923,345.38381472671796,344.38268705163165,344.3827388102602,345.3838564056182,343.3818789087571,344.382787682654,345.38403948835725,344.38277114756676,344.3827858258876,346.3851221547609,342.3807940872809,344.38271539327417,345.3841249509346,345.38391478932925,345.38390644968126,348.38738749372175,345.38382576389955,343.38204774166326,345.3840464010175,348.38721045882704,344.38305163678325,344.3826937437742,348.38717270195,346.38499618060735,345.38389677372527,345.38385144766073,345.3838691401444,344.3828249883104,348.38730022427836,344.3826946147129,344.382712334306,342.3806409117098,345.3838136204688,345.38378942642305,341.379458334621,344.3829183780531,348.3871039791809,344.38291582261076,343.38154551438174,345.3838932770327,345.38405688650795,345.3838491028329,348.3875378993179,344.38273152734723,343.3819341422542,346.3849182709502,348.38711045255735,344.3828042946019,345.384042525229,345.38391513455844,343.3815884308047,343.3817720146809,345.38390011868825,346.3854893021479,345.3840754980651,345.3838467030305,345.3839193313745,344.38296677323456,345.38423637651255,345.38376267794376,344.3826864405106,345.38384347973346,346.3850297068026,345.3843220850713,345.3842860742708,344.38281643722223,345.3838272542905,345.3837993301286,344.38283019382874,344.3830899821629,345.3840658365101,345.3839722435695,345.38378804540645,344.3829982509586,348.3872287905521,346.3851786992325,344.3831458340544,345.38394440784805,342.3811642194942,343.3816065254765,345.38384241096173,345.383847569604,345.38394315437677,348.3874011479105,345.38437288337076,345.3837929685342,345.3838724604013,345.3838633435077,344.3826700308945,345.3838345867989,345.3840441263555,345.3840124691239,345.38388327920876,348.387865913563,345.3841394305137,342.3806054159716,348.3877802412649,342.3806836619715,348.3874352800104,345.3842210814458,343.38165796067284,348.38725496089654,345.3838621758163,346.3850294412743,345.38406432542047,342.38046245403655,346.3849693194793,345.38394903417554,344.3826534623331,345.38378204706197,345.3839370781688,344.38326447204975,344.38318282778977,344.3828014832477,345.3838609080575,347.3868639543269,344.3828116322322,345.3838778967444,343.38154002883823,343.38160751303326,344.38280443776546,345.38419474325343,343.3816470937275,344.38317504786494,345.3839791618332,345.3840989399227,343.38165642159413,344.3827546497122,348.38725779104703,344.3828151071749,345.38431365301807,348.3871836558745,345.38392159813947,348.3876013106318,348.3871161160273,345.38385001236054,345.3839978261671,344.38277390864596,344.38309478266564,342.3807076506975,345.3841229909057,343.3817452547832,348.38721426220036,345.38396990924525,344.382835309929,344.3830617751443,344.38274092222883,344.3826943210582,345.383966740994,344.38275026847697,345.38384287653895,345.3844823305237,345.3838681213216,344.38283136461075,348.3871506407636,342.38046417138935,342.3806161363358,344.3826816740479,345.3838484716704,343.3816218310232,348.38810212323216,344.382685840814,344.3829750601758,345.38406462090927,345.3838243570811,345.38404282556627,344.3827430364959,345.3844232385534,348.3872422668963,343.3816334529146,348.3877227947163,345.38393536413673,344.3827594145442,348.3875683911908,344.3826940218398,348.3879248992967,345.3839333221046,345.38388921108344,348.3874248456676,344.38281381052883,344.3828807268435,345.3837916433642,344.3826745801618,344.38304893110933,344.38283433937755,347.38623022405477,348.38729927031164,343.3816561591288,345.3838767984592,344.3826888574457,344.3827447671594,348.3874058114893,345.38422857551313,345.3838117645345,345.3839866217579,344.3828405883581,348.3875755713225,345.3838201171516,348.38778484024493,345.383821856438,344.38278554580836,343.3815533402596,345.3838944878593,344.38328265492504,348.3872144718007,348.387437392356,348.3874140142784,343.3816379713241,345.3838268003403,344.38302037451183,345.38388102232744,348.3874575600772,344.38272906199103,348.38720458228676,348.38775263379307,344.3833523266481,346.3849417292035,348.3872799883491,344.3827503593684,345.384063914528,348.3871666362723,345.38385659077744,348.38724291979605,345.3843892217681,343.382015355527,345.3844760686503,344.382693627237,343.38188643803375,348.38785852390725,344.3829219887242,344.38274747307213,345.3840426387676,343.38156612999654,345.3838445573422,345.3837966911622,345.38444237033747,344.38301734257345,348.3874030309402,343.38186462172644,343.3817778927711,348.387628712501,342.38090831737304,345.38390525810007,348.38735658829705,343.38180442247386,344.3827436754644,345.38378367305495,344.38296733721904,344.38270857660393,348.3876541737436,343.38183223871494,344.38289752196476,348.38746674888887,344.3827272479025,347.38611403092006,348.38717147599147,344.38275866240224,348.3871253470009,344.382658237365,346.38488253624735,348.3873611622143,344.38279040219754,348.3874519382968,345.38387557421675,344.38284303893175,345.38401787883964,344.3830007002475,343.3819164229421,345.3838886568608,344.382812428851,348.3873414125953,344.38277578625906,344.3829448139163,348.3872978871884,342.3804528033881,344.38275808974305,348.38719941506326,344.38324791486514,344.38266857603384,344.3828518574409,342.3806217454959,344.3831315459257,348.38737745336334,345.3839527881654,344.3826996827167,344.3830295229948,348.3877395086538,345.3838374753912,348.38746353131967,345.3838676869582,343.3818394335131,345.3838468162478,344.382732573281,343.38170036778,345.3837827737459,343.3822749621941,343.38164862522285,345.38411333750173,345.38430116787634,345.3841491020389,344.38265802442623,345.38389384345606,345.3839389147743,344.38290751243346,345.3838664983552,348.38744224992627,344.38344827032284,345.384341481792,348.38729272222923,344.3826570794281,348.3879323652831,345.3837682868569,344.3827742209058,345.38376353227767,344.3829053638786,344.3829477525592,348.3872684688904,345.38378314752225,344.38273175503696,348.38713959301674,344.382959146776,345.3837695292735,345.3838226698646,345.383855509631,344.38317441141174,345.3838145770759,341.37951222532155,348.38811540089506,345.3837866585547,344.3827198386791,345.3838269410173,345.38389620021684,344.38319277697883,345.3842218114728,344.3826538289886,343.3816383968274,345.38391005515984,344.38295703422517,343.38167249908423,345.3841592160343,345.38381304449933,344.38351222891447,344.38268086141863,348.3871837606875,344.38283731545033,345.38417938332697,348.3874809020472,348.3872184250972,344.3828729410994,345.3838132908728,344.3829899764046,344.3828476259255,345.38386135922923,344.382768396537,345.3839674947203,348.3873930008675,345.38421399209676,345.383791073892,344.3827907292343,345.3841008856826,348.3871050488964,342.38054117790284,348.3877808678482,348.38731038369303,342.3806432626009,347.3860919443227,344.3833913571117,348.3872770753795,348.387628594533,344.38326471985124,345.38410144806534,348.38761882114756,344.3828641322578
2,-0.0032991461464876746,-0.004229253800460435,-0.0031457827746226787,-0.0033088597327471945,-0.0032183128655406904,-0.004312143227234264,-0.0033979700677854515,-0.003470301498829805,-0.003642502349819235,-0.004245858317705194,-0.002594499372941147,-0.003430409965372133,-0.003785099428205758,-0.0034136858098413234,-0.003632256194778909,-0.002966929847403652,-0.003553594689204772,-0.003671356799927394,-0.0029711720130317504,-0.0035087673646508315,-0.0034924986984391513,-0.002979755718667488,-0.0031585866877501733,-0.003581158365852549,-0.0029312916606480926,-0.0034464664584895324,-0.0036080738420612764,-0.003290863194577694,-0.0031996480896408367,-0.0033491281577816196,-0.0035237471328860947,-0.0034433175052356038,-0.0033110584820312565,-0.00337917596267184,-0.0032145164784604186,-0.0033675786715320548,-0.003423942451471184,-0.0037041358283295585,-0.004294461798783249,-0.003618013898677707,-0.0037826134487139126,-0.002944013184911246,-0.0034217833539227317,-0.003516206402959578,-0.002960685323851789,-0.003194532218360865,-0.0035433454155486908,-0.0034891328877466256,-0.0032589558257906715,-0.0029541770515813747,-0.0025866591475983756,-0.003190524558062024,-0.003426809642619467,-0.00363309369994408,-0.0036292421891480995,-0.003820248847409582,-0.003123886456268713,-0.003590225474564664,-0.004362534367922866,-0.0031954118111912197,-0.0035300111778582633,-0.0029610408032233098,-0.003183146135722459,-0.0033301448433740825,-0.003545918436935611,-0.0032223029155177083,-0.00334804937322232,-0.0037771150797411934,-0.00393773636935941,-0.003320249194211335,-0.0030974922896946457,-0.0034645056469291328,-0.0035834815749622288,-0.0033507981763050317,-0.004123383825820205,-0.0036527387640576336,-0.0035285602787523108,-0.0037245011569278304,-0.0033832731703380137,-0.003325032228592163,-0.0034493868403835384,-0.003064028585865785,-0.003119420361578772,-0.0034730948027462292,-0.003493732226622624,-0.0035973529641608877,-0.003985960980562033,-0.004157431710369847,-0.0026490501447080806,-0.003721667355538206,-0.004080233158825216,-0.004510863100904853,-0.003557959258102681,-0.003578331893875202,-0.003192216810088817,-0.003546906741595144,-0.0034785706390840997,-0.0031620372239360376,-0.003583814024596254,-0.0031250396426922827,-0.0034332115324473694,-0.003538167721542587,-0.002602711962893308,-0.0033621117585219584,-0.0032172343878618735,-0.0032521196522862683,-0.004291134661400701,-0.0033925111499423137,-0.002657542552975766,-0.004120155773456625,-0.0035860678325664893,-0.0036730299292427643,-0.003025986358323427,-0.003376243059830849,-0.0034359883042160383,-0.002974854346234849,-0.004338654105158133,-0.003645573607130119,-0.003226627904179843,-0.004990828126939331,-0.003227805792190808,-0.003166257393009243,-0.003460299400411387,-0.0035858455958192653,-0.003327042550003423,-0.003442160867948444,-0.003471333405776336,-0.003550940649530325,-0.0038119197173041657,-0.0033046587794848484,-0.003971605597508669,-0.003399760309824352,-0.003205501394453474,-0.0035059121639783655,-0.00350203681015012,-0.0030262660707045972,-0.003509816956328287,-0.004470602619012068,-0.004007929229608164,-0.003913069194871474,-0.003397267119182048,-0.0034435353874813514,-0.003124030330071556,-0.003505674339915803,-0.004283702621092186,-0.003188811410138769,-0.002578280519540204,-0.0033365279466731584,-0.003331307640407472,-0.0035042392721957257,-0.0032131839436124196,-0.003398118553825701,-0.0034950217381485055,-0.003175383764715595,-0.0031677572663919903,-0.0032342178689083794,-0.0035702996587849162,-0.0034265916720518344,-0.002563251589111024,-0.004502754853008098,-0.0034679852405427453,-0.003335852660023172,-0.0031928024903983255,-0.0039781088404460315,-0.0032618692164482458,-0.0025716087450897178,-0.002651840258796799,-0.003005929919746701,-0.003163263858766071,-0.0037120037730158503,-0.003563621886957301,-0.002608001105277029,-0.0037043960850176943,-0.003496515632504924,-0.003383960745432711,-0.004221548633704823,-0.003406072623727425,-0.0026406560120246355,-0.003536768926608818,-0.0032053119775827935,-0.0026174073084988987,-0.0035501965052477523,-0.003313181729080177,-0.002585398737719677,-0.003293971207480085,-0.0033426694382085623,-0.0033138239137239455,-0.0025722959887819774,-0.0035365712171225596,-0.0031345164800202535,-0.0032035430533421585,-0.0033391333657602717,-0.0031416156789111165,-0.0035671424451378534,-0.0032850240135718794,-0.00311073669845288,-0.003363579084922742,-0.003518174916976892,-0.0031735647283130885,-0.003695928906952005,-0.0035876737463035667,-0.003510772279582751,-0.003566678441414699,-0.0034447995810302375,-0.003136657429046033,-0.0036447941955977323,-0.0034755581226356877,-0.0033132074815654896,-0.004113635287605747,-0.0038515759425011213,-0.0032558387167716065,-0.0035115457843396237,-0.003426027665245303,-0.0035059058375123513,-0.003502694854050301,-0.0034013531166673843,-0.0035144776355911043,-0.0031794997897606446,-0.004021288187071591,-0.003261234630674097,-0.0037186305706277192,-0.003973951550913189,-0.003300720183335719,-0.0034835054253141247,-0.0035017249289278508,-0.003191034728722584,-0.0025685560759101758,-0.0030465058442983987,-0.0035878526021428142,-0.0032638329974279817,-0.0029431236445141397,-0.0025381167958633587,-0.002973297795843,-0.003835422433315575,-0.0037359718198706833,-0.003275882883562397,-0.004394683388385871,-0.0034898151722559463,-0.0033138838882557546,-0.003415423438096144,-0.0026087904874068056,-0.0037273937530870743,-0.004080186819038362,-0.0032879549438292644,-0.004465144470529457,-0.004114903806110108,-0.0033293447489803523,-0.003224274033771565,-0.003118372951784856,-0.0026179080747457235,-0.0034803608913483632,-0.003578496021631428,-0.002649892166532595,-0.0032677332762964585,-0.0032933844370151536,-0.0035686763307183423,-0.003526659431191766,-0.0035228415394178347,-0.003487384850121908,-0.0035057412512738135,-0.0033880500722868324,-0.0034031060803792674,-0.003347174221541288,-0.0034056986352364285,-0.0034730888632300287,-0.004470712184365444,-0.0036880555505147848,-0.0033030759742246982,-0.0034332408199874913,-0.003892434703128493,-0.0038902993358719573,-0.003336340566984538,-0.0032852209155926695,-0.00383890045181374,-0.0035410449408907717,-0.003604077793002424,-0.002969695608414568,-0.0035132721783749845,-0.004797746410041245,-0.0034653676521968903,-0.0032145373760073923,-0.0025853666840834092,-0.003224380848561011,-0.002655191370261806,-0.0033789290698561505,-0.003269270641181215,-0.0031198930772620387,-0.0032518547218160373,-0.003459572977777865,-0.003338727761906737,-0.003501508271888318,-0.0035899517184068428,-0.004004890004862912,-0.003578528080195122,-0.0034885216361637546,-0.004098941773972118,-0.0033579159267298126,-0.003566234814376369,-0.0031839063698841886,-0.003120161895765394,-0.0033151582811710065,-0.0031940597650176104,-0.0038650747111145856,-0.003465977820501474,-0.003350820177651177,-0.00354971813834958,-0.0029584584960343032,-0.003034264026510266,-0.0032703912535147653,-0.0028777269740416955,-0.0030895741204449256,-0.0036402857849070517,-0.004002559234484353,-0.0030603925006561024,-0.003843907730532949,-0.004094423444887235,-0.0034362151823195326,-0.0034223177323273353,-0.0037472432515717594,-0.0036436388449439337,-0.003141143463969157,-0.0033511548930218933,-0.0026502008643213685,-0.002647406445919806,-0.0031578307894165824,-0.0025927877328595908,-0.003186467602411776,-0.0033800946558929677,-0.002577815384856391,-0.0032235470185941625,-0.0033441394886203017,-0.00392690951871776,-0.0031210234466777253,-0.0033641289050669433,-0.003443534011776236,-0.0031222995556692483,-0.00377810482575234,-0.00294563255493193,-0.0031681836822391,-0.003508262555769767,-0.003487227982278754,-0.004197390294067863,-0.0025793627821902054,-0.003087254669890912,-0.004170738560218265,-0.0025843873172078607,-0.00315145227758393,-0.003508969617883241,-0.002562716928368311,-0.0034041383315911943,-0.0038273318109791595,-0.003318377102201701,-0.0033253509637026276,-0.003890122968579688,-0.0033039374673156994,-0.003710855073600028,-0.0033316737593458374,-0.0030459866134602727,-0.0037056865500302277,-0.004528929489054547,-0.004021406918597611,-0.0034127535080975715,-0.0036055523899696487,-0.0032013490429894506,-0.0036960937863893322,-0.0033523785942795106,-0.003360690723827094,-0.0036230301666658796,-0.0035356225071523474,-0.004135755003028996,-0.0036231332977369433,-0.0026167427425332155,-0.003106724709659905,-0.003357291154097656,-0.003640643421634487,-0.0038667081789405906,-0.0031109510553706614,-0.0033413597554500917,-0.0028621840927902063,-0.0032074508836613326,-0.0034821304569281147,-0.002377313567917503,-0.003555703502225255,-0.003105969908498374,-0.0033369991874113436,-0.003606758824353907,-0.0036168531137869488,-0.0038767270981812873,-0.003157070365216368,-0.00399765272906197,-0.0032904217985259766,-0.0035135667925272015,-0.003279505117475047,-0.003742648680603081,-0.0025486450904580577,-0.0031803324683969333,-0.0039819158870115,-0.003490522417672906,-0.003888187620847187,-0.0029989263408603576,-0.004337821186382029,-0.0037261005836611684,-0.003137495074435652,-0.003374026144484082,-0.0038446181599942697,-0.0031079682535458345,-0.003601144119971678,-0.003525758766905855,-0.003044318919235671,-0.0035191160282711464,-0.003137760208927854,-0.0038562241131248074,-0.0026200710214702443,-0.00385494033044477,-0.004395987417582717,-0.00306457557688517,-0.003098818880083224,-0.003209268409504271,-0.0033807780118493194,-0.0034008485718258975,-0.003245088506847308,-0.003372000402649889,-0.0035322032661708833,-0.0032324475879691936,-0.0032276532128376507,-0.003402641601854011,-0.0032398243530468735,-0.0030330597956371315,-0.0037152693467149872,-0.004377757422534067,-0.0032539673203682263,-0.0033870990594508763,-0.0031861380916920704,-0.004331361259902184,-0.0036852994657373705,-0.003216547707561737,-0.003501946465055155,-0.0032774857105307633,-0.00384287718998303,-0.0032145948507571274,-0.003434509396220837,-0.0033957727029050085,-0.003473524080234006,-0.0029416865111464114,-0.003277941649831179,-0.0036728800499491567,-0.004028835988684534,-0.0038689140124192776,-0.0033359995928647313,-0.0033063422507108886,-0.0036409653814758157,-0.003362178305737729,-0.003016169824942452,-0.003646922935956513,-0.0033757153148817995,-0.0032582461403890053,-0.0032335618491784635,-0.0032990745726231546,-0.0033585737849495265,-0.0038627983464797557,-0.0033297588313391706,-0.0031218193001239436,-0.003728780124031038,-0.0036467484502106357,-0.0027471644253524883,-0.00333484617986999,-0.00373796830717241,-0.003836657061327755,-0.003600399923052837,-0.003527572287705857,-0.0032117154756771504,-0.0034084459346236753,-0.0028694759814465467,-0.003582604055035762,-0.003414931010836005,-0.0038345438334959096,-0.0035066319481439133,-0.0034933736958348066,-0.0032745817226670347,-0.0032369385455127955,-0.0032870372672010296,-0.0034152076623179873,-0.0033371124361688026,-0.0032996854791292793,-0.003807366701784916,-0.0031318060995960246,-0.003389396480675024,-0.0033128328813507987,-0.003473358904133946,-0.003001286512397972,-0.0032305775327722934,-0.0036592497072537714,-0.004631107057424148,-0.0033850294319903123,-0.0042525874766228215,-0.004158252558110609,-0.004370073851489653,-0.003501862558951618,-0.0032201739889468235,-0.0034827380004496355,-0.003196418543505671,-0.0030938753609487325,-0.003526220689662463,-0.0033483398177731483,-0.0034946803725356313,-0.003202378108469423,-0.003096184331625992,-0.003322405335777504,-0.003201652641105136,-0.0034647957866010674,-0.0033905423196693243,-0.0034866354896375272,-0.0032612370452187395,-0.003342411227238756,-0.0034080407395522716,-0.002695832856197682,-0.003311713308449586,-0.003368285143741576,-0.0031329665858580175,-0.004375643406783219,-0.003402763215783777,-0.003257726928357574,-0.00323890805612622,-0.003375949975255685,-0.0031781587371012563,-0.004012732736803254,-0.003340315263312562,-0.00325970052790403,-0.0034432145573013322,-0.003296581633632158,-0.0031388002323687477,-0.00348427912883691,-0.004058561927021397,-0.0030439241798435406,-0.003547244099753267,-0.003263318030897728,-0.0032923251384900138,-0.0035700271274307907,-0.004363227585301389,-0.0030269446869637855,-0.0034545974058911846,-0.0032639152060660688,-0.0026987838763967115,-0.0037343682083388337,-0.003859978846977738,-0.00325047802786955,-0.0031692634922005285,-0.004338858930383353,-0.0036659733944641735,-0.0036937674834572514,-0.003314714412148812,-0.0034310529586099297,-0.0034191285381379127,-0.003901130907400669,-0.0035482721654549695,-0.003925877295439463,-0.003939402761682179,-0.0031503873112198023,-0.0035819096794299384,-0.0034428783453516265,-0.003250290820009682,-0.003276007056802593,-0.00439369658696533,-0.0033176681405841586,-0.003331526764429206,-0.003240041050108312,-0.0033156047222655445,-0.0033736041697480295,-0.0028826462326597938,-0.0035389562182471337,-0.003519684283727168,-0.003832481316348598,-0.003586606546712798,-0.003590669438918972,-0.003073497115791718,-0.0033851265028804916,-0.0033328252512908017,-0.003069779341289935,-0.0031761160827794748,-0.0035273409267412115,-0.0030391978507864352,-0.0035717495835765277,-0.0033415002775767015,-0.0034394406756958324,-0.003451151504046537,-0.003459105922048615,-0.0034012188115855064,-0.0032478641106508613,-0.003180917123788248,-0.0029950440714495968,-0.0034731513876498105,-0.0023809062582562574,-0.0032608723952145123,-0.003036746644059893,-0.0029061125197740166,-0.0037003110790110186,-0.0033564039898952612,-0.0032730346067797733,-0.003496140815933267,-0.003454662787290466,-0.0030795714514126648,-0.003129791233557859,-0.0033961208324043237,-0.0035814823943150576,-0.004038793534939719,-0.0031185483653724953,-0.004003758736634515,-0.003594863957365211,-0.0036184851465082143,-0.003523032447464193,-0.003810980982503436,-0.0034425451458008254,-0.003293891057934281,-0.0032538605824926213,-0.0033682666503750437,-0.002672172016036519,-0.0035949685115891613,-0.0036408376799660093,-0.003991880951622621,-0.0033742362013797805,-0.0031124775290507327,-0.002905078193258104,-0.0031106944148454768,-0.003375107561148809,-0.0031716238714636744,-0.0032858610230986312,-0.0032212557365309193,-0.003151606368459358,-0.004297210178573011,-0.003211676400180371,-0.0034065139371018604,-0.003586150046787915,-0.004372067409176441,-0.0032067436203527346,-0.0033326881246105713,-0.00320444205052582,-0.0035016849754901194,-0.003566503163207175,-0.003774310007370765,-0.0037028859263927537,-0.0036519092283919877,-0.0040292894798375145,-0.00354126123971127,-0.002686001583820452,-0.0031879828668458883,-0.0033200858692113977,-0.0030919312180884406,-0.0037923710785590153,-0.0033920009450903368,-0.00387182652753698,-0.0030788007976326067,-0.003381572476689982,-0.0029683048948888763,-0.0033254458227258855,-0.0026426056353035855,-0.0033784346182771587,-0.004618881628987671,-0.003310616541533386,-0.004012339821930416,-0.00375138411058622,-0.003352121363111868,-0.003319807814088926,-0.0033448475072143822,-0.0032145154786885756,-0.003155855139043112,-0.003323156546916267,-0.0032752150648393936,-0.0032318370427293313,-0.0036788755797171413,-0.00317669008831855,-0.002984725741724674,-0.0034366098339674834,-0.0034052256275305236,-0.0028313189608181705,-0.0032814706110361695,-0.003719610492852518,-0.0032008725101630013,-0.0035505031015845147,-0.0031692187947233896,-0.004185447810657704,-0.0029459611368317503,-0.0032867557297434295,-0.0034611919544561714,-0.003902642188108295,-0.0031431554799937977,-0.0033064390107106294,-0.00303407444420401,-0.0033590886061138684,-0.0032574460665301067,-0.003809692132761688,-0.0036217556550494703,-0.003439647472028813,-0.0033285392679566787,-0.003334945667364165,-0.003303825082364182,-0.003909691938680461,-0.0032756545152209733,-0.003263238706666513,-0.0032470098141953114,-0.0034506203863737977,-0.0034400519376078403,-0.00327093967081366,-0.0032555902634547954,-0.003466335867358163,-0.003365257432274762,-0.003237542491934836,-0.0038986838677210834,-0.0034275218673613154,-0.003453072748892344,-0.0034067571255721333,-0.0034182418503881343,-0.0034336141762434454,-0.00348931572233447,-0.003483478987780561,-0.0034236129464450663,-0.0037262750128443187,-0.0035631450042300085,-0.0043111142756278335,-0.003098430666375242,-0.003209905571436088,-0.0030289959557086555,-0.0035463310356108244,-0.0033100254678517277,-0.00397972555597179,-0.0031562078164104226,-0.0034560640077005308,-0.0037291983301098305,-0.003176003080035772,-0.0036814527997058276,-0.003206768420038318,-0.00335768805757968,-0.0031512670677173115,-0.004236681253447275,-0.0030440959741429127,-0.003299611962942645,-0.003494556651325628,-0.004192947955745649,-0.0034400438918585252,-0.003598509791664887,-0.0032981623128685664,-0.0034566254306023577,-0.0031038655040671074,-0.0031928896658293933,-0.003196725678649926,-0.0031917658599088464,-0.003286846339998207,-0.0032564907826375038,-0.003339381968111085,-0.002621186868939637,-0.003242545576612177,-0.003715695275779124,-0.003929207724926037,-0.003361243612192209,-0.003573476098459736,-0.0038821515283933333,-0.0032162811290701305,-0.003267723378633984,-0.003512568749019823,-0.003500645491770245,-0.0035485053500304395,-0.0035756842402016034,-0.0024545024648862344,-0.0035779754544766024,-0.0031833171725987536,-0.0031011358697247407,-0.003454102257249194,-0.0033882354057594836,-0.0025087483480985347,-0.0034012100467362867,-0.0035224113693915313,-0.003449815672829568,-0.003904866973194378,-0.0033783741351505873,-0.003235509299131916,-0.003455364354111218,-0.0034982117514215628,-0.003292435630203089,-0.0027992638681157774,-0.0030306722603209895,-0.003990731533511147,-0.003292435977974061,-0.003131535507109617,-0.0029544560540435533,-0.0036767109501943548,-0.003138861260373638,-0.004078964564843098,-0.0036479010348289165,-0.0032243870838467377,-0.002785711172363616,-0.003676494611306462,-0.0032222132545674255,-0.0029906365617667335,-0.0033447308066036894,-0.0032095279194855014,-0.0030982020872325463,-0.0033123379137125005,-0.0040250073647910885,-0.003846358521934159,-0.0033479243571843858,-0.00411786832625369,-0.00408737943386785,-0.004660155717397375,-0.003572749090600357,-0.0032795619404558524,-0.0034884773533623526,-0.0033682867924366413,-0.003160237118498737,-0.003305160474267512,-0.003423198050858043,-0.002791547880609877,-0.003235819954098544,-0.0033036124922197173,-0.0032221973266395657,-0.003422405588892743,-0.003009108534205015,-0.004159771225439594,-0.003643254436766512,-0.003468242773031459,-0.0032236604402681762,-0.0031545096691227756,-0.003013840107218628,-0.003340884860318681,-0.0035333168194673957,-0.003080707669641151,-0.0031286668684112153,-0.003160890118274892,-0.00355086805265846,-0.0033247559311087842,-0.0030233699159832295,-0.0037014165055328056,-0.0034060866033528707,-0.0033259697199285202,-0.00402260690510942,-0.0037272768031901687,-0.0033932358700645006,-0.003179014347214104,-0.0031358256413864197,-0.00318545210527454,-0.0029933949774117786,-0.0024755926590358693,-0.0034641880274964834,-0.002956799091968814,-0.003976185915406376,-0.003701582158221845,-0.003985854987729925,-0.003009699756127252,-0.00399781669567957,-0.003095310635637281,-0.003915606866036726,-0.003019461713330388,-0.0036517596844063516,-0.0029074702335050782,-0.0033226809455882463,-0.0034805346017209434,-0.004680822912734239,-0.0032161955809604783,-0.0035746713756031044,-0.0035401864480818167,-0.003260821382257938,-0.0036772966348248893,-0.0031189091222613816,-0.003622853707260991,-0.003138610174837426,-0.0037100068916491205,-0.0036351354628685406,-0.0035722675720414156,-0.003005677164407465,-0.00365965773878053,-0.004194221839001882,-0.003217325317713974,-0.00367738677688069,-0.003704999586972271,-0.0033388853327993096,-0.0034651338052733936,-0.003399126509165765,-0.003286770148983824,-0.0032215408285660965,-0.0036223804848683028,-0.003501171361631424,-0.003211703950660647,-0.003684182017807677,-0.004035936329548894,-0.003487928334122262,-0.0036105819224759366,-0.003325215860694103,-0.0031726804976275106,-0.003489999466720735,-0.003175302337412419,-0.003466309942110621,-0.003386853608566908,-0.003557144006254593,-0.0030326616769581843,-0.0036341822969813745,-0.003885140886996634,-0.003350440880827272,-0.0035543099201130602,-0.003028185029179767,-0.003927419876869195,-0.0033015906228674977,-0.0030219311202076293,-0.003002673627282887,-0.0027319849183701328,-0.003451834305852181,-0.004034307301166944,-0.002774215954370843,-0.0032961647561788,-0.0035635806319622367,-0.002736283280264519,-0.0030386257765129096,-0.003929211195840835,-0.003626309182231346,-0.003637388363760562,-0.002590080754641921,-0.0036452620231830633,-0.0030386178589301184,-0.003451794026055993,-0.003482787610965597,-0.002449117842618569,-0.003304595311452571,-0.0035709301114218127,-0.0025241227602907927,-0.0031069059465921776,-0.0038696244132615477,-0.0031038702069123786,-0.003378068827676303,-0.0030813235467788457,-0.0036423011263874267,-0.003247305693475471,-0.003396526426683949,-0.0032270056919828376,-0.0030437465769216094,-0.0033726027040751785,-0.0036184966697862518,-0.004159703677425376,-0.003580094991074785,-0.0035117871798800546,-0.003657594944294888,-0.003429156091741915,-0.003210993386423619,-0.0033471658301993273,-0.003233905339016161,-0.0030785011364816827,-0.0036556009665874604,-0.0034439133096125212,-0.003259679216697855,-0.003195954968643347,-0.0034899147846637973,-0.003417392929065464,-0.0033424122131336088,-0.0034159605443372792,-0.0030103558565657104,-0.003038741143404212,-0.0035116454065428995,-0.004012717386951864,-0.003293474596702671,-0.0035626000674998386,-0.002692750159966861,-0.0034956149146737987,-0.00361603539459627,-0.0032691486453738576,-0.0029532530478920084,-0.0034608962079168398,-0.003228061420104473,-0.0037093793493115073,-0.0034143593509036356,-0.0027987077843627042,-0.003103428261698089,-0.0035713442755350333,-0.0027228757482900003,-0.0032431334664990634,-0.0029814136651346137,-0.003638615124284469,-0.003462643982038574,-0.0034823485639586763,-0.0026557702880156344,-0.003389321727323155,-0.003983288147587563,-0.0032613492581362083,-0.0032178783015948402,-0.0024696537141345506,-0.0036167749965172035,-0.004028877618707443,-0.003296866094990954,-0.003313205337988094,-0.002706414369044841,-0.003628084842256696,-0.003547872007433075,-0.0036326731229233606,-0.003937747309085897,-0.003478379803058871,-0.0034766673104620702,-0.0035551947922957032,-0.00307020459241721,-0.003541534189377436,-0.0027598151313138987,-0.003307569442091585,-0.003045400843521006,-0.003657750659790787,-0.004207561404619617,-0.003195700971512331,-0.003749659646030795,-0.00357898029550496,-0.003291673726842513,-0.0031610188031443854,-0.0036623058431839387,-0.0030432022322027246,-0.0034742423619907605,-0.0034096295306854413,-0.003472726567358832,-0.0034906530774997994,-0.0034940727219225807,-0.0027513506924976227,-0.0035533559262673695,-0.0034297942327486956,-0.0035838248909150655,-0.003252566069376686,-0.0034630908893191043,-0.002681285007511221,-0.0034772074301265598,-0.003290605344006592,-0.0036356715663617353,-0.0034101876150875467,-0.00247670227837017,-0.002756891662022079,-0.0037226522247567396,-0.003310011418046205,-0.00327949847390379,-0.0026876717255997387,-0.0028771451508432994,-0.00342820844047763,-0.004238474756742975,-0.0028639677678493364,-0.003595705883360617,-0.0037033490984566503,-0.0035173420970323424,-0.0034874452670141426,-0.004451751885412389,-0.004181951756958417,-0.0033781910555193127,-0.0035018593957075028,-0.004244940858305378,-0.0037140370324071545,-0.003195810832006543,-0.003504702105231135,-0.002811016503783955,-0.0033167942883535685,-0.0026429184761826833,-0.003156417285671504,-0.0027789687136558373,-0.0032470710097350815,-0.003422945841966459,-0.0032502313691272103,-0.004412509593859445,-0.0033584107054784695,-0.00357706764092267,-0.004048651730205565,-0.0032882906354250205,-0.0032104282557432516,-0.00362183568978209,-0.003233892389793586,-0.004064137812135032,-0.003323230430671035,-0.0037415932097024066,-0.003293515787604759,-0.0030441859678230726,-0.002756905064789265,-0.0034118615024365494,-0.0035980701444429893,-0.003271670898333991,-0.002744130247757006,-0.003480320510619602,-0.0035602067332807593,-0.0027763086623662286,-0.0027517221772819698,-0.002989805867013134,-0.003601968462815829,-0.003247667415055617,-0.0036066869452486966,-0.0027051119278220922,-0.0034485190991931586,-0.0037319505088972077,-0.0041474035423431565,-0.00374758779575612,-0.0035636687021106165,-0.00468684473446815,-0.0035882580729772783,-0.002769064604141842,-0.003278222287410435,-0.0035447399188273925,-0.0036619625922248737,-0.0032997317088930187,-0.0034339363634566804,-0.0027148825830670947,-0.003554378130063362,-0.003618662125829865,-0.0029724615416287133,-0.0027162659998483745,-0.0033334318789492137,-0.003349372884497974,-0.0037562766070034334,-0.003691672298865153,-0.003547679411908906,-0.0036873903024256024,-0.0032570684339543574,-0.0029009128265490526,-0.003498368053783577,-0.003044792207192801,-0.0036343413573488494,-0.003690487901001798,-0.0034031683858820336,-0.0036101045701880177,-0.0036561643106344196,-0.0026632339535187705,-0.0033486599001221326,-0.0037010756727626497,-0.003291416148596941,-0.003420221462802272,-0.0035159244751791258,-0.0033616072219218155,-0.0033039225449487263,-0.0034491922503140354,-0.0034489877252058382,-0.0030310601581491035,-0.0036928134779228216,-0.002719933476445349,-0.002725272630035636,-0.0034443638750629147,-0.0037823889198223934,-0.004120658770449152,-0.0035692753318099595,-0.0037247336293333355,-0.0036609929930505637,-0.0032094593457652905,-0.002717192195897331,-0.0035715854308967245,-0.002828476749833481,-0.003083738907428973,-0.003594442318273614,-0.003327249767813405,-0.002915877588974049,-0.0036157584935095333,-0.0035947814388596834,-0.0029351070171527577,-0.0027133874358899815,-0.003285863722934678,-0.003790163958656711,-0.0027910145592222354,-0.00425001292735105,-0.0026107876873169918,-0.003358979709551809,-0.0035058333942435396,-0.0027602968572505086,-0.003253307056505723,-0.0026361773637538777,-0.003610213442918766,-0.004019952995255005,-0.002858159609276965,-0.0038140289959866566,-0.0032289017902862966,-0.003376991170242034,-0.0035924964321165037,-0.0034093386478072454,-0.0032499580133928006,-0.0040138825262977145,-0.0034308375844631857,-0.0025353856126756765,-0.003462855492622364,-0.0038291847237301377,-0.0036868688279949988,-0.003705784814710032,-0.0036709530450668537,-0.003630720790123947,-0.0035754772687856613,-0.003668668859183006,-0.003688856363864127,-0.003636604301502789,-0.0035793444118585515,-0.0033844472733232903,-0.002733857017921535,-0.0034467820613866096,-0.0035360819954232394,-0.0027183301501815097,-0.003034908205575835,-0.002474639753216992,-0.0027333549029619885,-0.003518099771504162,-0.0029191897967374494,-0.00425422939701628,-0.0034339215986108336,-0.0040693391997374305,-0.0036093343230811947,-0.0036342800714220034,-0.002709060185056419,-0.0034278520260649127,-0.0035407562932828203,-0.004256798234727613,-0.003251767384823456,-0.0037394693499112103,-0.0036367943518180535,-0.003698713849987972,-0.003041033316409627,-0.003488237234404904,-0.003339787605458278,-0.0034992435208819257,-0.0027293635684822203,-0.004173715610815564,-0.004356537127453483,-0.0042804185817523445,-0.003191426351896947,-0.0036715270530874805,-0.0027476751750605656,-0.0037086020765718644,-0.0035055194883324013,-0.0035572401962377796,-0.0035417104541310535,-0.0033508875925668934,-0.00353828103773064,-0.003537058494643241,-0.002686258702433312,-0.003723480837905422,-0.002710149819957513,-0.003076995138119181,-0.0035316333153764166,-0.0027117386393648605,-0.0033988589468687165,-0.0027573438470330073,-0.003065729472348209,-0.0030459713017268533,-0.0027641116659331464,-0.003481852406119388,-0.0037473570257320512,-0.0035999256400800856,-0.003314428290214377,-0.003471338087750811,-0.0036500409249354926,-0.002592358328521252,-0.0026132563441220937,-0.003478675054221395,-0.0033385363241492,-0.0033869790911631534,-0.0031582260109086703,-0.0027171137567578293,-0.0029207850688498186,-0.0034873528165360232,-0.003408089591990902,-0.0036649749757157453,-0.00271597860109024,-0.003421412892939726,-0.0026911614116256447,-0.0036970095135970596,-0.003540116901933394,-0.003660295416121001,-0.0035768600768306836,-0.0036016492345503524,-0.002709366316587023,-0.002671688474305693,-0.0027532187444443863,-0.0037302514342803014,-0.0034241335839897812,-0.0037116651667231937,-0.003444676568268056,-0.002680618623953693,-0.003521558551927176,-0.0027293951839791083,-0.002677519551248719,-0.0036444410755048853,-0.002781069084715581,-0.0026589449052894804,-0.0033959910959303076,-0.003530363268199113,-0.0027288901600721845,-0.003150491524884497,-0.002708369555182182,-0.003599401847696374,-0.0036529466734008262,-0.003480989730195412,-0.003573317215344138,-0.0037223761451011554,-0.002686883994532345,-0.0032399083229217793,-0.0036760835645125575,-0.003627235397990425,-0.003700172562019549,-0.0034220712813234624,-0.0034239773761329515,-0.003176001273547409,-0.003488894267019487,-0.0026736345903196107,-0.0036008467525721335,-0.0036689326231045876,-0.002687185615623602,-0.0040864427870905065,-0.0032358942118609906,-0.0027453608126332078,-0.003635361364014546,-0.0036207451215529247,-0.0036226081672281105,-0.0031469844428315802,-0.003461691891740381,-0.0027074853263629995,-0.003612182560003672,-0.003322635225155662,-0.0027351560285570403,-0.0031932699265962068,-0.0027610811242497067,-0.002666145118953287,-0.003402415071802736,-0.0027003081461723475,-0.0035741107540645536,-0.002763181506176989,-0.002765886555333726,-0.003377727848515772,-0.002680500888531904,-0.003095416826470471,-0.0034314567383362878,-0.0035099949719265863,-0.003226977258861867,-0.0036830719229749968,-0.0036030659392132045,-0.0032837377622862373,-0.0027089927703687388,-0.003613238561936669,-0.0038130775858306837,-0.0027104598993399555,-0.004185649349828467,-0.0035416406546870632,-0.0026564164524175847,-0.0032525132526206764,-0.0036202844151093086,-0.0037051912664921673,-0.004085372913481315,-0.0037260155481628403,-0.0026302411263787366,-0.0036227633686967756,-0.0035088407181702963,-0.0035470438006335483,-0.002679147276453116,-0.003352453452623193,-0.0027016980586756136,-0.0036327443042764632,-0.0035345564948041203,-0.0031071085916523486,-0.00373727071746571,-0.003715326571084438,-0.003759320600990725,-0.0037262703861041364,-0.0037489817585659754,-0.0035783388948612328,-0.0030203240679289225,-0.0032130813996663387,-0.003648869152250268,-0.0030157674313449324,-0.003624280407014692,-0.003678508264708297,-0.0034113230382339997,-0.0027206526965364527,-0.003197576997319063,-0.003309031828743492,-0.0026693049016012914,-0.0031704547826066215,-0.002711168032352675,-0.0030241785360679294,-0.003485810447317334,-0.0036717223298952,-0.0032280572559484555,-0.0032915331703254037,-0.0027453723527254936,-0.003130350902039102,-0.0033916177519434884,-0.0027310656388902016,-0.003291577077062321,-0.0034239918955124037,-0.00359234411653055,-0.003012459391383084,-0.0036564738252157425,-0.003595560062079728,-0.0046548436057332635,-0.0025622097726757972,-0.0035316286138953666,-0.0033177968873847104,-0.0034498742125779816,-0.003561353767391813,-0.0032382995669692615,-0.0031012703482975823,-0.003699351477812294,-0.0037461235527122654,-0.0036263258017673215,-0.0036012827077598515,-0.0035507970265617377,-0.0037129302187997888,-0.003910013664493268,-0.0030464714689534675,-0.0035903373841504483,-0.0027846502003098725,-0.0034569614315245697,-0.003329444915226378,-0.0026562760816741617,-0.002706637158066151,-0.0031116636564215163,-0.003640837448764238,-0.003641557068697546,-0.0032992873604497266,-0.0035973712441683707,-0.003412730575102125,-0.0037368904290263076,-0.0027339428928150012,-0.003179467010187905,-0.003667227619787058,-0.0035850400654898916,-0.0035271578366559827,-0.002675321568700147,-0.004000611150940658,-0.002670525464508305,-0.002710262090320744,-0.004054873695464242,-0.002950639115199953,-0.003383546174608185,-0.002735890736350313,-0.0026941090652024087,-0.0032085308760900575,-0.003288060297485144,-0.0026819220589480086,-0.0034940270757383676
