,0,1,2,3,4,5,6,7,8,9,10,11,12,13,14,15,16,17,18,19,20,21,22,23,24,25,26,27,28,29,30,31,32,33,34,35,36,37,38,39,40,41,42,43,44,45,46,47,48,49,50,51,52,53,54,55,56,57,58,59,60,61,62,63,64,65,66,67,68,69,70,71,72,73,74,75,76,77,78,79,80,81,82,83,84,85,86,87,88,89,90,91,92,93,94,95,96,97,98,99,100,101,102,103,104,105,106,107,108,109,110,111,112,113,114,115,116,117,118,119,120,121,122,123,124,125,126,127,128,129,130,131,132,133,134,135,136,137,138,139,140,141,142,143,144,145,146,147,148,149,150,151,152,153,154,155,156,157,158,159,160,161,162,163,164,165,166,167,168,169,170,171,172,173,174,175,176,177,178,179,180,181,182,183,184,185,186,187,188,189,190,191,192,193,194,195,196,197,198,199,200,201,202,203,204,205,206,207,208,209,210,211,212,213,214,215,216,217,218,219,220,221,222,223,224,225,226,227,228,229,230,231,232,233,234,235,236,237,238,239,240,241,242,243,244,245,246,247,248,249,250,251,252,253,254,255,256,257,258,259,260,261,262,263,264,265,266,267,268,269,270,271,272,273,274,275,276,277,278,279,280,281,282,283,284,285,286,287,288,289,290,291,292,293,294,295,296,297,298,299,300,301,302,303,304,305,306,307,308,309,310,311,312,313,314,315,316,317,318,319,320,321,322,323,324,325,326,327,328,329,330,331,332,333,334,335,336,337,338,339,340,341,342,343,344,345,346,347,348,349,350,351,352,353,354,355,356,357,358,359,360,361,362,363,364,365,366,367,368,369,370,371,372,373,374,375,376,377,378,379,380,381,382,383,384,385,386,387,388,389,390,391,392,393,394,395,396,397,398,399,400,401,402,403,404,405,406,407,408,409,410,411,412,413,414,415,416,417,418,419,420,421,422,423,424,425,426,427,428,429,430,431,432,433,434,435,436,437,438,439,440,441,442,443,444,445,446,447,448,449,450,451,452,453,454,455,456,457,458,459,460,461,462,463,464,465,466,467,468,469,470,471,472,473,474,475,476,477,478,479,480,481,482,483,484,485,486,487,488,489,490,491,492,493,494,495,496,497,498,499,500,501,502,503,504,505,506,507,508,509,510,511,512,513,514,515,516,517,518,519,520,521,522,523,524,525,526,527,528,529,530,531,532,533,534,535,536,537,538,539,540,541,542,543,544,545,546,547,548,549,550,551,552,553,554,555,556,557,558,559,560,561,562,563,564,565,566,567,568,569,570,571,572,573,574,575,576,577,578,579,580,581,582,583,584,585,586,587,588,589,590,591,592,593,594,595,596,597,598,599,600,601,602,603,604,605,606,607,608,609,610,611,612,613,614,615,616,617,618,619,620,621,622,623,624,625,626,627,628,629,630,631,632,633,634,635,636,637,638,639,640,641,642,643,644,645,646,647,648,649,650,651,652,653,654,655,656,657,658,659,660,661,662,663,664,665,666,667,668,669,670,671,672,673,674,675,676,677,678,679,680,681,682,683,684,685,686,687,688,689,690,691,692,693,694,695,696,697,698,699,700,701,702,703,704,705,706,707,708,709,710,711,712,713,714,715,716,717,718,719,720,721,722,723,724,725,726,727,728,729,730,731,732,733,734,735,736,737,738,739,740,741,742,743,744,745,746,747,748,749,750,751,752,753,754,755,756,757,758,759,760,761,762,763,764,765,766,767,768,769,770,771,772,773,774,775,776,777,778,779,780,781,782,783,784,785,786,787,788,789,790,791,792,793,794,795,796,797,798,799,800,801,802,803,804,805,806,807,808,809,810,811,812,813,814,815,816,817,818,819,820,821,822,823,824,825,826,827,828,829,830,831,832,833,834,835,836,837,838,839,840,841,842,843,844,845,846,847,848,849,850,851,852,853,854,855,856,857,858,859,860,861,862,863,864,865,866,867,868,869,870,871,872,873,874,875,876,877,878,879,880,881,882,883,884,885,886,887,888,889,890,891,892,893,894,895,896,897,898,899,900,901,902,903,904,905,906,907,908,909,910,911,912,913,914,915,916,917,918,919,920,921,922,923,924,925,926,927,928,929,930,931,932,933,934,935,936,937,938,939,940,941,942,943,944,945,946,947,948,949,950,951,952,953,954,955,956,957,958,959,960,961,962,963,964,965,966,967,968,969,970,971,972,973,974,975,976,977,978,979,980,981,982,983,984,985,986,987,988,989,990,991,992,993,994,995,996,997,998,999,1000,1001,1002,1003,1004,1005,1006,1007,1008,1009,1010,1011,1012,1013,1014,1015,1016,1017,1018,1019,1020,1021,1022,1023,1024,1025,1026,1027,1028,1029,1030,1031,1032,1033,1034,1035,1036,1037,1038,1039,1040,1041,1042,1043,1044,1045,1046,1047,1048,1049,1050,1051,1052,1053,1054,1055,1056,1057,1058,1059,1060,1061,1062,1063,1064,1065,1066,1067,1068,1069,1070,1071,1072,1073,1074,1075,1076,1077,1078,1079,1080,1081,1082,1083,1084,1085,1086,1087,1088,1089,1090,1091,1092,1093,1094,1095,1096,1097,1098,1099,1100,1101,1102,1103,1104,1105,1106,1107,1108,1109,1110,1111,1112,1113,1114,1115,1116,1117,1118,1119,1120,1121,1122,1123,1124,1125,1126,1127,1128,1129,1130,1131,1132,1133,1134,1135,1136,1137,1138,1139,1140,1141,1142,1143,1144,1145,1146,1147,1148,1149,1150,1151,1152,1153,1154,1155,1156,1157,1158,1159,1160,1161,1162,1163,1164,1165,1166,1167,1168,1169,1170,1171,1172,1173,1174,1175,1176,1177,1178,1179,1180,1181,1182,1183,1184,1185,1186,1187,1188,1189,1190,1191,1192,1193,1194,1195,1196,1197,1198,1199,1200,1201,1202,1203,1204,1205,1206,1207,1208,1209,1210,1211,1212,1213,1214,1215,1216,1217,1218,1219,1220,1221,1222,1223,1224,1225,1226,1227,1228,1229,1230,1231
0,-4925.535586633453,-4968.130218403885,-5331.689580223548,-4815.06409495967,-5273.429383591392,-5660.538268473285,-5564.156636271942,-6604.839288553947,-6235.436466686501,-5591.384360954746,-6252.246399172746,-6038.331458379862,-6898.204401567759,-4925.379764669762,-5584.0177508661955,-5315.022337564193,-6649.5754328238045,-6446.928895944106,-6011.763815880468,-6153.575921790267,-5566.2149461988065,-5401.227354649486,-6536.604900515562,-4836.254723681831,-4931.819655783485,-6435.223212657168,-5242.048856638228,-7059.890971253708,-6004.426551695623,-5875.411037176803,-4593.683552291197,-6048.052084448191,-6701.163532632395,-5469.997253771873,-5379.379962035701,-6994.853254878565,-6589.586115739604,-6151.289815092584,-5347.836011815146,-6486.882675052622,-4950.293828525542,-6525.833742583663,-5195.082152716483,-6330.153803974846,-6314.196016233564,-8278.756557926721,-6723.478953103565,-6234.221241650516,-4730.539979322993,-6439.930685852062,-6649.681903690206,-6674.857851509162,-6534.047141705312,-5018.079210909179,-4228.104398129814,-5080.522293049645,-5448.21703865035,-5519.622325596013,-6755.282885039243,-5710.381199563528,-6198.935786337936,-6566.446586834703,-6035.793989564292,-7391.82311396936,-6045.473988619164,-6103.30839484923,-5019.840816688737,-5094.583786116151,-6203.033819027811,-6472.930647243229,-5131.885952882544,-6101.719336265227,-6584.120600806182,-2522.3561351838944,-5181.433075308161,-6193.672872242943,-6174.543403401327,-5706.535430576853,-6302.126249489116,-6342.874538303225,-5940.819729815816,-4934.660444121506,-6357.044373965954,-5713.890961147035,-7689.960295579994,-6138.785124661067,-6581.321286874069,-6486.493610033598,-6732.341601472874,-6624.941437574328,-5654.850750351285,-6116.838189234694,-5574.253529183774,-5108.23999526432,-4961.054207466465,-6157.498787141398,-6839.757627893397,-4959.2050344732725,-6760.9092881813185,-5815.23966509731,-6236.162636337363,-6424.792934534363,-5415.34960522587,-4286.725510424986,-4667.414947414598,-5724.8972357514895,-6626.001933351032,-6351.188774686314,-4749.201686053463,-5694.625005917051,-6415.942720614894,-4308.181471829151,-7047.107122953085,-6430.644400680525,-5644.488706754443,-6935.188620645525,-5812.918557191531,-5459.274631465432,-6279.791147847849,-5273.8664331608215,-7169.371963989012,-6337.781116019591,-6415.773486666983,-6496.927629951849,-4253.465780058779,-6065.926597370551,-6643.591055008382,-6606.031326295227,-5688.168742650573,-6371.676149481468,-6903.829387857259,-6550.738310524565,-5084.289319565612,-5551.363905781378,-5867.466232410033,-4680.075603095449,-6671.392865269717,-5635.652941897919,-5729.764978285423,-5027.690880536125,-5867.2481163367265,-6220.479638552293,-5099.319740982141,-6051.501209807607,-6460.466679088008,-5939.07791630664,-6616.8208698276885,-4241.0360874159505,-4178.961204471195,-6023.806179839843,-5934.165052061139,-4882.786005979146,-5180.1887679997035,-6856.484415439733,-6406.046247785836,-5647.098364188586,-5870.737686412714,-4890.39654617396,-8101.566317271978,-5485.669935533614,-6233.777152623095,-5930.416421823175,-5307.065804450059,-5711.992827672009,-5917.911856640292,-3878.7287383845996,-6844.462215763062,-5124.837904665225,-5739.6771271180605,-6326.836707876232,-6504.588252174195,-6118.969867085563,-7691.508498942784,-6955.319098406081,-6586.561977322985,-6586.4949928278675,-5360.490136206503,-6118.571451215066,-6068.549240708754,-5994.139678049739,-6059.840046149098,-6804.041288741416,-5710.991956190768,-4358.06570671874,-6071.749937938629,-6067.03675992749,-6458.8668716689,-7347.659228239886,-5228.135732075514,-6064.265618748785,-4822.951182950406,-4988.077311712972,-7377.678275896087,-7129.782873977544,-5894.937732331335,-4738.584650103828,-5058.802514280309,-4374.42120392008,-6328.367444335907,-5452.3361525264745,-6428.992211747422,-5976.068224450275,-6349.511601490791,-4026.346392194956,-4777.831358539353,-4736.688121500783,-5858.959789832352,-6511.760770797104,-7576.12784243635,-4651.572850831051,-5666.647550244708,-7496.123021156134,-5676.84780126292,-6179.9964904130575,-6600.453844804399,-7056.482281143745,-5635.406906717854,-5645.595834229014,-7130.890833342675,-5356.840220860439,-5824.160900314648,-6976.906880487516,-7179.058928272571,-6234.337103391752,-5908.329626711707,-6426.884014800241,-6177.992864173738,-6229.262262593074,-5413.860404590098,-5780.078053039916,-5644.910398855225,-5952.884861639707,-4043.0877733120124,-6237.178485290892,-5662.643689937069,-5772.120655127143,-5482.787382581943,-4858.254853882379,-6828.692934913811,-5848.385597723453,-6081.675329889378,-6690.426788481545,-6880.724099979399,-6118.815965579211,-6577.5800300176425,-6412.413024612903,-7091.132325711354,-6056.13721724967,-5693.1037713596825,-4446.595319770213,-6051.303475890669,-4705.590115891281,-6728.7337932414175,-6181.885553488155,-5680.795539672698,-6127.848527039056,-5880.493777168403,-6489.480306817946,-5358.4712907568455,-6711.492995085727,-5324.33366037831,-5835.636499590948,-5422.818523199039,-8178.365651225891,-5219.995379718239,-5064.445916657988,-5834.511851976002,-6366.80083359793,-6169.46090747627,-5790.701491461039,-4687.35699815927,-6028.061318074735,-5945.906105580006,-6538.641861787894,-4623.900476689925,-6010.752143173407,-5222.891860956108,-6118.974722380998,-4490.197914934801,-6477.20294435115,-5539.546760427386,-6269.8323934362625,-6175.38827153412,-4945.976602841692,-4675.246443902283,-5942.46537438544,-6356.948692056134,-6136.803451033521,-3954.110589958079,-6734.846756840244,-6096.107487545403,-5108.909542204811,-5704.31668487739,-7453.022611723771,-5691.95129663686,-4577.801401395165,-6736.778173630606,-5799.718652672122,-5607.83463499872,-5924.426043738341,-6293.521077946231,-6332.431624121149,-5861.1278970639805,-4814.20057449266,-5783.5550941890015,-5009.195953538447,-5608.13997792845,-7144.779739823507,-4894.301915578831,-6205.187181546414,-5812.5274685616105,-5751.785308770685,-5992.733542766979,-5269.246042007153,-5245.222974970431,-5919.998895603505,-7321.200131668315,-5823.709934135927,-6227.418839448253,-5904.294928956031,-5904.944255502469,-6372.307690896846,-5605.217679445115,-5390.639033460346,-5076.22249495501,-4413.422448576838,-7100.170348645255,-5892.130374039083,-6468.417349670178,-6107.357301413909,-6172.90445657445,-5133.722297034636,-4702.843114981581,-5357.539642104428,-7321.418528141611,-5722.536006593849,-5810.399313343681,-6338.631212350582,-6113.398887870555,-5915.413506486336,-5637.805585327042,-6340.69906909901,-5174.159376385202,-5839.833739950182,-4714.798899744481,-6953.589526221765,-6845.582631705854,-6038.247218472479,-6179.269557320227,-4925.615626587905,-5424.935921490591,-6051.001208078395,-5840.910694151185,-5614.656259479984,-6901.377763858007,-7450.590196947769,-5056.284829621156,-5492.047131897644,-6259.236754038787,-6240.3759140312,-5977.423895629013,-4342.431277642647,-5769.541272249445,-5477.600992226834,-5065.790022393104,-4264.227596879149,-6287.863937753611,-6173.904251809184,-5723.928890851116,-5217.545277813315,-4975.240931645611,-5742.812705718943,-6360.8649624247355,-6033.770622806687,-6171.935563075014,-6411.7883915680095,-5556.215529971357,-4518.483351037263,-5821.308590300882,-5487.716539665166,-5508.638373140081,-6622.920828859845,-6603.57289543585,-6873.604890554188,-5986.863804607932,-5362.989093582868,-5062.487233400889,-6537.094761267562,-5530.268966480286,-4830.483312010594,-5435.063080928797,-5678.421546946514,-5638.668631186651,-5148.125144205152,-6086.9185216167025,-5905.248474540738,-5188.47881737467,-5634.044739380899,-5133.625259872429,-6101.301231454348,-5211.877274684625,-6971.2008959230325,-4508.130167955301,-6342.6155825172455,-6186.044605644821,-4814.256401419073,-5545.645357023784,-5613.667966467136,-4298.61521727235,-6097.466020174471,-5461.296600043217,-6336.8803366237125,-6190.772187127459,-6282.01725998491,-6208.145936561817,-6248.727904816177,-6014.894360270637,-6067.779415951496,-5833.660702737179,-6764.611426913309,-6182.301582344906,-5727.408839998201,-6095.89718696476,-6293.39088659578,-5669.27291975523,-5880.089774839664,-4528.763275301621,-4524.175959814702,-5033.353699147698,-6019.175743958092,-4598.474466021917,-5316.3809762288865,-4724.114275170816,-6069.797623593456,-5016.888497228236,-5700.326178506348,-7600.328467111208,-5928.544646876274,-4717.841882910353,-6100.374617704763,-4911.542519315499,-4815.396726678242,-6349.272969052438,-5752.990686717483,-5639.567746021061,-5549.505803004058,-5792.681263124167,-5668.354934799362,-6279.757724302319,-4794.492877483718,-5444.566898629002,-5680.906343736015,-4806.597517530384,-6856.773775576121,-6303.359741001473,-5723.846622564778,-5905.804771670353,-6788.253902618378,-5273.105947322581,-5436.813103897076,-6292.988911874949,-6920.225225555304,-7201.884527325547,-5517.685691175025,-5651.811388880689,-5582.016835199345,-5022.533197820209,-6305.432690072832,-5636.061997909977,-5188.3568795865385,-4387.3006669532715,-6954.383501974122,-4674.864045936452,-6826.853031127477,-6955.575401278508,-6196.629547836714,-4361.405449179079,-7242.603750850987,-6500.038962648716,-6422.007982115282,-5874.99280091895,-5836.5166774241625,-4754.1531462824305,-5756.411402100305,-5687.732755781363,-7320.103427322086,-4621.422915965879,-6843.788382415097,-5452.921435120799,-6832.094868444357,-7029.744516045248,-6221.040272209882,-6918.277946156806,-5870.320408478489,-6297.624995328236,-5705.49508911791,-6427.9457723912965,-6311.792071119139,-5859.05806099106,-5904.870356757593,-5611.431078908421,-4973.311206992076,-6820.864657182595,-6081.528513589471,-5685.179821675777,-5318.121441398307,-5545.632660774928,-5491.063228716423,-5720.535781726815,-6646.829685542129,-6155.830330215485,-5579.4753788484295,-5067.410764361416,-4419.696076883804,-5623.65356702793,-6746.136831552696,-6479.641010224102,-6331.04332785483,-4865.21986477387,-6014.527350398932,-6121.126157898465,-5260.19350409552,-5415.43757816358,-4245.233346617566,-5982.603098818091,-6335.413171045134,-6677.281216307411,-5658.804119733236,-6665.061928690688,-4864.964997999123,-5091.448313059834,-5343.644715951441,-4359.3850950496035,-5324.67245148765,-5963.497368011556,-6050.450226896988,-6789.366645892219,-5465.286587874017,-6583.050727929389,-5943.836385877816,-6081.589542916063,-4934.546423246965,-6370.100596027178,-6139.84216908905,-5530.264443662523,-5206.292445079394,-5723.722303102944,-6192.228006668663,-6398.370098496996,-6830.289179883771,-5855.0102287825075,-6021.705297434098,-5787.602323056709,-5768.262245855349,-5916.617252729952,-4422.009243588467,-4597.5868437196195,-4262.366574179265,-6056.374841345535,-4167.479129597405,-6053.370804965711,-6067.216309574172,-6576.634344197533,-6187.44641290357,-4611.036419676882,-4689.596173139524,-5183.780216362024,-5551.5688676301015,-6844.0525273197345,-5250.634067775395,-6224.110374279688,-4819.434752778366,-6377.8042503546085,-5374.749709027316,-6039.183540660122,-6313.361187625356,-4786.477179869717,-4260.994187062529,-6724.108818816062,-5508.367566622709,-4198.835672922559,-6095.6462345377,-6016.946920462743,-5650.416391877951,-4829.766816814723,-5588.742048720032,-5965.389589971515,-5626.942487952065,-6174.164087371878,-4119.782177236386,-4095.089495075679,-4662.978019470076,-5665.369142359391,-4901.863604159824,-7031.6834150218265,-4645.338917372259,-5341.639625069019,-6219.679211665185,-4420.344003626472,-6021.660590232999,-6122.466010632116,-6807.810312794746,-6954.163570357018,-4330.847344366005,-5495.262126739141,-6493.019777695858,-5152.155539631222,-5420.309079766345,-5696.6996476472505,-6246.415044841656,-6553.524590620548,-5604.388667302364,-4038.102326061369,-4926.155380929856,-4665.2557325003945,-5031.204408067097,-6660.574032291959,-4296.0985673848245,-5814.951745003578,-4876.81006525376,-5442.132934207841,-5609.835821657379,-4652.4708399782085,-4859.558268977396,-5649.41846399558,-6099.9803188214155,-5727.510226333793,-6227.866366276369,-5550.31881143293,-5937.217703988491,-5549.48419830359,-6197.56752769867,-4610.895889549469,-5376.883071113656,-4912.688518583725,-5293.232340620492,-6094.4726523936015,-5886.21925479751,-4522.716181580078,-4411.017472654406,-5126.539630324276,-6373.630116801279,-5633.378332895133,-5793.262787721708,-6993.891642878294,-5440.947104711467,-7823.1710375864795,-4823.601286787099,-5185.474851316809,-5861.791372547317,-5487.200785488816,-5562.526442245756,-6324.754116682773,-5728.200768267692,-5201.853686338018,-5726.685231391774,-4621.876678014213,-6755.469068634584,-6830.176948314578,-5072.260928374606,-4192.116941727254,-4647.738856806444,-5517.983192557924,-5212.500071342172,-6639.618101866257,-5669.400474512241,-4906.166276202854,-7334.247219896405,-5868.2093562938135,-5890.3718523592825,-4670.52970070418,-4369.308320257603,-5604.274820718213,-6039.118780506067,-5592.917990639038,-7516.330146450831,-5431.854266036545,-4608.211552054972,-5111.1467755619315,-5628.961187429151,-5608.325658181665,-6703.287160912376,-6826.248521210081,-5356.62586307255,-6067.555285294136,-5240.512891765332,-5084.890759097657,-5453.748410534538,-5367.36569090656,-5742.045755552521,-5658.637805440112,-6165.489402645566,-4383.562835802941,-5061.625790329372,-4072.372383182097,-6389.252144954405,-6290.981008470714,-6597.234220346085,-7648.059538703595,-5541.231295308524,-5310.563795733378,-5369.511560217217,-5600.949538941211,-5556.1666528778915,-6143.863321527157,-5547.090555706937,-6904.79679164236,-6217.279666162211,-6177.045686433575,-6303.45936942033,-6581.856162959077,-5950.148555889319,-5024.98402685137,-4382.3856252867645,-6057.181276105906,-5409.846546374415,-5414.160751554112,-5695.433904547815,-4501.585594676017,-5713.784533512664,-6870.143265597252,-5852.545348853897,-6871.207770350188,-5286.686533886484,-6209.085594352002,-7097.061687599439,-4983.425054223355,-6869.017492411749,-6181.014631888115,-4356.648574653085,-6453.2071584540745,-6954.793323102705,-6224.509353449646,-5676.651432531784,-5847.261761899248,-5746.780615648175,-5695.377673169416,-5394.383793516187,-5888.133818399787,-4086.324330436542,-4263.342235321409,-4324.583789538907,-5042.834489251265,-5929.089720136569,-6548.357375776102,-5952.734338428735,-5829.975791513332,-7039.80781344859,-6780.012721300837,-5866.7554774871,-6021.514981745562,-6925.012248166854,-5496.666388557813,-4731.730983886578,-6523.60157599171,-5976.313206939367,-5854.986588304803,-5925.177903811687,-5698.3659737189255,-5286.628770021588,-6534.934641247757,-7087.519071956294,-5911.721879648641,-5662.437156032609,-7313.480030490085,-6300.258323820097,-5989.103845199687,-5203.34163150274,-6114.982155187863,-5968.7639916034905,-4954.306099333499,-7074.49496508768,-4911.344341495221,-7262.556897070705,-5544.230057674722,-5283.1266367768585,-5929.248179190522,-6698.880923922535,-6842.6993264841285,-4218.303313425634,-4966.398309435449,-5502.572442095703,-4229.38674766436,-4438.63014534348,-6355.142118366816,-4849.134930752713,-6938.359242641232,-6070.382786711802,-6250.601024764653,-6350.753959659594,-6368.278125219352,-5741.657388876042,-4070.67076314772,-5514.454163322631,-7277.613489576434,-5197.498458179747,-5764.372975860526,-5959.295575145078,-5617.841915343828,-5007.79405072009,-5051.1195285879385,-5598.287338961564,-6774.130158533954,-5203.787732845834,-3995.6741989450215,-5731.497104701688,-4459.211619167754,-6189.612080031823,-5374.5010128912645,-6141.6905810282715,-5625.10390014482,-5340.595402319494,-5185.26699701825,-5275.369430045639,-5811.400892618529,-6807.505265209012,-4777.325808935148,-6150.37885863319,-5765.168553122743,-6822.686144785848,-5751.741406257705,-6024.27243731335,-6333.601741005068,-6841.655201993412,-6092.908618336175,-5939.58408689244,-6584.401622495664,-5481.292426289616,-6070.762291245199,-5258.137560540911,8372.994049810774,-5261.291115162029,-4744.754086666942,-5976.817967383547,-4982.03123348833,-7236.483943570121,-5443.3798412696,-6140.334663170794,-7077.4223523131195,-5845.32104159417,-6199.824114910263,-5057.963258611177,-6505.3863473513675,-5050.888812456407,-6306.88388096492,-5452.719345648605,-6897.446064371372,-5756.564828082272,-4089.31877490389,-5484.07549127014,-6496.291063164979,-5905.741592030036,-6609.328605256752,-5377.668947291544,-5057.037403893737,-5786.214363743051,-4363.465681116134,-4676.766825901086,-6130.441081715784,-4687.357579492145,-6066.568551055861,-5531.777650528968,-5581.900524013894,-5527.558986606733,-6398.575517746883,-3977.422950642032,-6188.799984342147,-7008.526851317633,-4224.56483773636,-5728.895804171809,-3989.6433604954796,-6328.846425151547,-4261.359092910998,-6824.211163394083,-5853.492455141266,-5718.687272860881,-4916.906732895275,-5764.15907628717,-3955.58222311341,-6495.542207502286,-6618.46039707079,-5466.856415030095,-5209.141743879158,-4707.640412189464,-6704.9447063157495,-6142.73421258695,-5660.93048205972,-6736.9286273113785,-6363.045906770739,-5750.41840749468,-5451.135591417702,-5680.836156168333,-5287.46962545663,-6214.716421247978,-5216.745011455825,-5529.740822572478,-6066.33989143722,-5269.928211636444,-4850.910142339234,-6798.314930803831,-4641.940190597124,-7125.57144577334,-6175.673354962775,-5908.037214409098,-6594.063992109194,-6602.205271219195,-5950.319265893337,-6785.626591750353,-5369.973496619637,-6643.287957761897,-5360.885928852129,-4591.152552897501,-5275.303610219136,-7222.8786889931525,-6458.842749883325,-5671.702622699147,-6023.4628749854255,-6344.043519446041,-5830.873040175299,-5042.621520147127,-6541.7536777607975,-4211.652119529442,-5781.248599500467,-5272.369737657556,-5585.572585289069,-5822.187640945119,-7690.046649352588,-6511.538790200106,-5710.347363686715,-3941.6509211032003,-5281.197221157315,-7276.4043738763585,-6213.8709411909185,-4954.068918519876,-4990.199092172241,-3739.0283450130196,-5275.267344137432,-6403.250414014905,-6867.661833086602,-5809.441891393128,-6082.846231891228,-4237.660826714946,-4246.397446274069,-6366.522141527511,-5532.562260526993,-5598.517901060593,-5627.331051374614,-5392.659925898819,-4908.276044572239,-5999.663748949852,-6886.962769962544,-5418.833442072708,-6759.297688745534,-6977.160860899233,-6565.496226827494,-5782.203266753732,-5336.379087926847,-5844.739528423376,-5330.866427566862,-6057.151035713851,-5910.4490753488635,-6608.34970272135,-5443.979628250061,-6618.6641157344375,-4971.111821590189,-5357.510076083761,-5989.759826207009,-4597.546060421559,-6389.798656417333,-6215.221607062893,-4898.679819461395,-6087.133872410711,-4988.0082957626655,-5443.4106631757595,-4960.216677751087,-5969.437287665806,-4138.826400792132,-5817.949950835473,-5737.082362312465,-6424.421442513487,-4603.426602232185,-4698.000711003603,-6344.535875081783,-6313.231590852776,-7084.757186805148,-6906.887279716677,-5070.029061595214,-5953.269335622041,-6276.71074333726,-5153.915527933673,-5800.129325303177,-4717.925497067885,-5916.294376400602,-5506.4059477535475,-3863.546989418391,-6370.109594419203,-6672.134827103584,-5484.046914425322,-5403.781635497501,-6444.220260896604,-5366.830149763528,-5400.0665751899705,-6648.142781933239,-7370.091733666431,-5899.423049341944,-6409.671764336175,-5337.296096625551,-4157.96999715339,-4544.873249945084,-6108.872962698142,-5254.282406423296,-4649.675578052046,-6266.077020954523,-7289.739568270057,-5606.040690760116,-6010.138204310094,-5083.301274268539,-5863.5081862870775,-4874.311711863103,-4795.867208432457,-5806.902435880539,-5253.792707530123,-4900.159808963765,-4165.124718035649,-4062.9458276413543,-6406.657830220958,-6534.3702157511225,-4807.665942087142,-6030.528923166633,-6108.875768590418,-5707.704692592882,-6099.98918737174,-6234.4459934859115,-4951.840509248515,-6094.455890423294,-4506.195308343055,-5591.243445005656,-4815.59163952548,-5993.190874904871,-5622.685263953973,-5822.607892742437,-5862.931027867264,-4506.6749926377615,-5733.676448369999,-4988.159508881386,-6498.331679629604,-5886.307695385276,-6214.026809201698,-5108.443051750657,-5542.9139970087535,-6641.636991001966,-6321.272560191818,-5110.084545638115,-6176.275318085867,-5114.803809359592,-4409.179875650003,-5289.855298688192,-6499.426609943362,-5807.53781748121,-5511.069672926613,-6033.281532352071,-6239.965127861934,-5207.068001462197,-5021.4167638841745,-6308.526699457271,-6343.474837065163,-7201.973621284294,-4003.4776515736403,-5354.1320662911785,-5284.727030185156,-5690.175445912885,-5710.328671617379,-7292.925216196199,-6360.828795415773,-7031.4731360631695,-5106.4467358795755,-6007.109790250925,-5037.1059738054655,20751.71622890623,-4128.172821595773,-6213.957980054626,-4005.338050776378,-4858.087082896123,-5042.487973283758,-3990.722800110868,-7261.534661676534,-5109.557536819704,-5273.35686398503,-5557.706856904574,-3746.6668115464026,-5067.692998430133,-5921.491218078518,-6132.656273235291,-5004.873896953937,-6291.619516867476,-5133.693461545351,-5446.160395839981,-5338.625648000771,-4428.512117962781,-5802.848973460087,-5767.869728116342,-6186.924226035262,-4874.347249535925,-5149.81504900083,-5476.784676219715,-5405.758375153882,-4559.516633878174,-5125.12822664413,-5243.756462454665,-5237.753502280159,-7022.435572315311,-5262.777878694029,-6711.345697779993,-6040.730879902632,-5277.58149503692,-3714.6653004523805,16122.21525568168,-5538.473280068074,-5481.783671846961,-3782.51157755259,-5769.278827716385,-6073.773853262077,-6302.900404518138,-5841.585372043607,-4996.56322093739,-5273.290938519579,-4450.858120151003,-6647.3610228847365,-6376.749526112966,-4822.08798085295,-3893.2687919601944,-5061.322782719218,-5608.099774908322,-5404.6846857389955,-5802.204628698996,-6136.9656978126395,-7341.1655338218,-5141.847818149002,-5623.187963006013,-4531.4970934455305,-4541.753325825089,-5153.534504567039,-4171.469527693965,-5335.431915581064,-6009.1513892097855,-5643.921812028271,-3725.208516838739,-4271.016777150308,-4475.850623027564,-4994.649613249414,-6257.926160661585,-4911.869362232594,-5492.786967818448,-5858.866701951814,-4237.975400779178,-4925.395382757519,-6015.348967031259,-6148.225102676576,-5522.518601357754,-5861.933264363176,-5821.204410285074,-6502.882053148185,-4987.987442227759,-4924.690691652902,-5796.94944386583,-6218.334783028815,-5570.237080209132,-5814.8894162220595,-4572.063061226715,-5615.462072695486,-5241.762009428733,-5959.4162698918,-5077.56104097598,-6032.3253463581805,-6077.6177766979,-5792.626939326376,-5836.649062877085,-7071.9789389615435,-5964.571303576459,-4973.198739648237,-4820.022490449721,-5762.494408185979,-5483.762677855725,-5443.579807211102,-5442.3469992882565,-4995.500081968974,-6153.481538705782,-6126.0008017745,-6073.608289474619,-6145.102324779639,-4167.624998842184,-5586.124844940436,-4849.865648329748,-5761.31070651611,-4736.24940937049,-4918.580998354239,-4284.612819076873,-5867.87457161288,-4384.8292914123385,-6409.895299719073,-4860.12294518846,-6053.946052033235,-5244.094793107711,-4520.5175546345135,-4513.903272913523,-3986.5691365547473,-5648.647804323876,-6140.444385222511,-6567.382098885066,-6247.370597286913,-5015.089577334511,-4370.403088434904,-4428.174340805905,-6201.167963916244,-4831.068312144963,-4396.497864865947,-5594.960208865501,-4980.767209274613,-4057.842953752875,-6394.672994932297,-4629.47608468529,-6296.488454917622,-5920.846104834616,-4605.506454173767,-4696.4314274809,-4522.136495609484,-6089.325247065872,-5265.733414648649,-5607.373711512921,-5243.204094280111,6682.731346030606,-5223.958461900277
1,331.36830633303146,331.3683890148752,331.36840765473244,331.36833792462,330.36714489157504,331.36819682853866,330.36722293457484,329.36598541488013,331.36826045686826,330.36710839297336,331.3681925958606,332.36936617356065,330.36710314114987,331.3683450273083,332.3694210609347,330.3671343210687,331.368214871748,330.36711387385964,332.3695348880957,332.36934690140214,330.3671689893171,330.3671776282055,330.3671070160198,332.3693026656919,331.36843998106735,329.36606251418283,331.36820132005755,329.36597266608555,332.36946455799585,330.36716885592335,332.36936376187464,329.3659664181259,331.36821173877877,332.36933735065094,330.36707760350544,331.3682868586758,329.36599203105806,331.36821281693136,331.36838225490135,331.3682217233859,332.36946642260864,329.3660094915206,331.3683162872424,331.3682112569101,329.36611009453026,330.3671282776179,329.3661137433871,331.368212553596,331.36821780032056,329.36599164721554,328.36486820671985,331.3681944937615,329.36604275718327,331.36845660441895,333.37066915700655,331.3682492515454,330.3670950286732,332.3693746464095,329.3659911867794,330.3671132163474,332.369326148498,329.36602793599997,331.36819435563297,328.3648820238165,332.3693160303965,329.36597326007603,331.3681950068003,331.3681906734499,330.36709837558993,331.3682001651468,331.3682279216118,329.36602067563325,329.36598419833524,344.38264452645234,331.36830866602367,331.3682651234806,331.36826695216644,330.36717343856344,329.36601776973924,331.3682255794476,330.3671397877678,331.3681995735738,329.36602631046765,331.3682658522768,328.36486891128624,331.368338715026,329.3660984925629,329.3659652547203,329.3659988228709,330.36716266766234,331.36821048337004,331.36819379682464,331.3682634472555,331.3682120517905,331.3683059002858,330.36722337693965,329.36599696173676,332.36952666412617,330.36711880237306,330.3670771894419,329.36600169612785,331.3681994209318,331.36822339533273,332.3695450838427,331.3682273698999,330.367117886712,329.3659881736226,329.3660311414097,331.3685104642489,330.3671562499504,329.36597668453277,333.3704445257417,329.3660077329734,331.3682887211882,330.3672842356154,329.3659644981555,331.36848532671615,331.3682472022595,331.3682370552713,332.36930626095483,331.36824974544925,331.36819344412936,329.3660458786425,331.3682079349792,333.37043793420986,332.36929926959164,329.3659880549197,329.3659887807258,330.3671020730637,329.3660807016442,328.3649029948296,331.3681884622502,331.36834427326977,332.3695499019636,331.368229668976,332.36959253385254,331.3682134715464,330.36711501631015,330.36712774553376,331.3683865712561,332.36930175258016,330.36717009361513,331.3683544058381,331.3681918277275,329.3660052431331,331.36827588611965,331.3682314680722,333.37045108413713,333.3704141496342,332.3693236107629,332.36936730143987,332.3693649514302,331.3682317653491,330.36713263643765,331.36819802113496,330.3672611117786,332.36941097052824,331.3682179456255,329.3660215572314,333.3704672280818,331.368308594284,330.3671295793081,330.3670802559534,331.3683577876862,331.36830698337195,333.3704610287469,329.36598550954994,331.36828575551823,331.36832221871913,330.3671518768657,330.3671033212885,332.36936574819686,329.36602545069695,330.3673345053099,329.36597491840837,331.36826038602175,330.36707679859364,331.3682806667915,331.36820583485894,332.36937266136437,331.36820078134923,329.3660349240622,332.3693914176239,333.37048540314635,331.36824978486743,331.3682088362727,329.36603094257276,328.3648639173395,331.368195155701,331.3682146060316,331.368285680027,331.368420631423,328.3648677296434,331.3682213824219,331.36832111790164,333.37052634888437,331.368194319326,332.36935127826814,330.36712122066007,331.3682028365722,329.3660438876524,331.36831456781727,331.3682027855243,333.37070673219915,331.36836766187264,333.3704320994514,331.3683179307223,330.3670791461018,329.36597167031056,332.3693509866373,330.3670883170489,329.3660559946546,331.3682262217971,329.3660940011861,331.3682224553716,329.36598489286445,331.3682179109747,331.36823530645205,329.3659831225605,331.3684712145572,331.3682545573642,329.3660550236867,329.366001767994,331.3682226107649,329.36596514412713,329.36603767449657,329.3659961484201,330.36721904425355,330.3671836732961,330.3671439583203,330.367093728169,332.3693700316974,333.3707231675311,330.3670819915631,330.3673173139315,331.36831766807876,331.3682229475383,331.3682620400671,329.3659758070482,331.36819892856596,330.3671351826903,328.3648742644671,330.36720943489735,331.3682010165782,330.3670836073675,329.36597436677783,328.3648550266226,329.36609512372223,331.36820558951615,332.3694800695694,330.3673254457881,331.36838488076677,330.3672341301983,331.36825751974493,332.3696453648555,329.3659762600098,331.3682816137089,329.36600301455115,331.36826271608305,329.36597941547075,330.3671045326648,330.36717444639396,333.3704477666084,330.3671602915604,331.36820902433146,331.36824633934646,331.3682427211905,329.3660395454679,329.36598245325087,331.3683277130976,331.36853696215513,332.3693214731029,329.365988030857,331.3681984567779,331.3683098677755,329.3660454374489,331.3683308589843,329.3660533616162,333.370456035341,331.36818784292797,330.36710575564456,329.3659988177703,331.368282661014,331.36819290114363,331.36838508393026,330.3671773702247,331.3682845581489,331.3682287662524,334.37171170006644,329.3660315783919,331.3683441051526,332.36961771037716,331.36831410959036,330.367125404816,331.36824601943124,331.36823108580506,330.3670788654229,331.36822999122745,331.3682163083016,331.36827850242156,331.368212463645,329.36597045211056,331.3682207110051,331.36826699063846,330.36722021588696,331.3682295190102,330.3671489326644,328.3648607820408,331.3681976462329,331.36835631077435,330.3670751840475,331.36826886392475,331.3681950061018,330.3671623401312,330.36717217529394,330.3671374237368,330.36714567356904,331.36830945740036,331.36821916887016,331.36821805792823,331.36826721458607,331.3682647024622,332.3696341008164,331.36840156846125,331.36819953743117,333.37046591156826,328.3648801379593,331.36827758652856,330.3671191445532,332.3694935298283,331.36819315489055,331.36823217525676,332.369746620095,330.3671283586575,331.36821406868154,331.3682064064681,330.36715367469196,331.3683267681586,330.36708949077547,329.36597869325146,330.3671351037714,332.3693769116117,332.36962263403603,331.3682769229624,333.3704883604188,329.3659630527092,328.36495776146523,331.368190333547,329.3659905446132,331.3682595565745,330.3671348400138,329.36598111055264,329.3659711508296,330.36722294510844,329.36596392375264,329.36606544646645,331.36833190305583,331.368477653844,331.36826231792685,329.3659826087363,331.3681951265961,333.37055921783633,331.36819645039066,331.3682083463685,331.36826423840034,335.3727173365023,329.3660625130525,331.3682918718038,330.3672055232555,331.3682592573281,330.36709862905354,330.36713386365454,329.3660721377711,331.36820486189293,331.36826861835084,329.3660426223328,332.36941041789515,333.3706829688686,331.3682205014145,332.36931807298373,331.36823821075944,329.365963172675,329.3660255923499,329.36609585642555,330.367124299063,331.368463444413,331.36824314728005,329.3659735024997,332.3693195761406,331.3682965563234,332.36935469360736,331.3682709208609,331.3682225824066,331.3682879542676,331.36820277281765,330.3671681242666,331.36833916414207,330.3671438248,330.3670931226917,331.368200911143,331.36819179599513,329.3660610366895,333.3704527961609,330.3671058497536,331.3682024327167,331.36827572125344,332.3694595824782,331.3682420572132,332.3693225439492,331.36822471831834,331.3681971842852,331.3682689216512,331.3682017675898,329.36600554513774,330.3670969110612,331.36824860995904,331.36822793006127,330.36707920317644,330.36708364681596,331.36823825084895,331.36826489847397,332.36941216875533,329.3660616035624,331.3682153334184,330.3670765370751,331.36821377423934,332.36939337778375,333.3706740608533,331.3682363451629,331.36821757590843,332.36933787804514,332.3693089131645,333.3704491189371,332.3694760542338,332.36931760706267,331.368342030506,329.36598973983826,332.3695322272898,332.3693251265993,330.367275715786,333.37044022647825,333.37047040066375,331.3681967752841,330.36707599719614,331.3682254508763,331.36825755441924,331.3682455073392,330.3670998977423,331.36827302044276,331.3681916090064,330.36709647370196,330.36722647514574,332.36935516715477,329.3660017192221,330.3672268326385,331.36848727503417,329.3660295620359,329.36596444111933,331.3682228112168,330.3671581121239,331.36825461718354,330.3670753173784,329.3659785847968,331.36819768942786,331.36830312589547,330.36711686440213,333.37057551978853,330.3671326570834,331.3682002345908,331.36832813483215,333.37060360425335,328.3648708530263,331.368253270863,331.3682608735132,329.36602523597185,332.3693778045709,334.3716668760509,330.3672635405595,329.36596438928945,329.3659766183861,330.36710227361897,331.36820109844484,332.3694709745248,330.36720234769297,331.36820882484096,329.36599303326506,331.36830132286264,328.36493337052104,331.3682543443319,329.36602820563,328.3649272277694,331.3682692226479,329.3660836282505,331.368209364437,329.3660108015767,330.36719715874545,329.36596383899723,330.3671355204551,329.36597278692045,331.36822383181624,330.3671465040904,331.36818996372455,329.36597924724566,330.36710055537935,330.3670921283164,330.36708539128045,331.3682342692868,331.3684164570201,329.366050027384,329.3659898338383,331.36826549846916,330.36707711837784,331.368276157116,333.37060859686767,331.3682908866706,331.36822025522065,329.36615730431464,329.36603282673195,333.3704193326482,331.36819624506046,331.3682317791423,331.3682399401331,331.3682876983526,334.37205461726535,330.3671187820983,329.36605042453056,329.3661461981867,331.3683514842612,329.3660210001722,333.37048295790436,331.3682812343709,330.3671001807208,333.370741830433,332.3694349221308,331.3682576260801,329.3659852734179,329.36597741313733,332.3693549004881,329.3660367900081,331.3683276034438,329.36600748351185,333.37070313392735,330.36715901936844,331.3682064878696,330.36712219656556,331.36827008672896,330.3671636218373,331.36831730803874,329.36597074602224,329.36598608808333,332.36940953685246,331.36822991358736,331.36821797704596,330.36712611489764,332.36940931774467,333.370499249767,331.36822734309993,334.37156421325636,330.36713991512744,334.371590690137,331.36822692434384,331.3682280858273,331.3682335787231,331.36827774327793,332.36955582619356,331.36843598925833,331.36841817632177,331.368325385695,329.36597700584167,332.3693284876483,329.3661473321769,331.3682834845742,329.3660148501146,331.36820351476763,331.3682381924793,331.3681884572897,331.36823266706233,333.37041221721904,329.3660401848536,331.368296454219,334.37164256627517,331.36818720879364,330.3671486402432,332.3693429633481,333.3706133139283,330.36725242400047,330.3671413091274,331.36831324695265,329.3660148097132,335.3728498497927,335.3726546512456,331.36838060433195,331.3683153510206,331.3682232278687,328.36488344448094,333.3705189102114,332.36940338177095,329.3660299225092,333.37057484672084,331.36828048067423,329.3661784028068,329.3660316166178,329.3659807751455,331.36822525569306,330.36719982654745,330.36711536072073,329.3662345574576,331.368416594536,331.3682293608489,331.36823376240943,329.36607664154803,331.36836681501035,335.3728575109281,333.37045873738566,331.36824933190013,331.3684419788667,329.366021832314,333.37067233976694,331.36824830098726,331.3682757141532,330.3672271441989,331.36824071983153,333.370476322531,333.3705478033907,330.36710948755405,331.3682029748165,331.36824060934475,330.36715659113406,331.3682517269312,331.3681964120068,331.36839690729755,331.36821615219816,331.36822058128195,330.367229169838,331.3682652016881,332.3693225105677,331.3682207850235,330.3671014870002,331.36821575068404,333.3705201085924,330.36726057070484,330.3671892234936,331.36822344621123,329.36616693241604,329.3660611844811,331.36822213912444,329.36600378797334,332.3693257580365,333.3705447329453,331.3683003602555,331.36832958067026,331.36821293927846,329.3661393262561,330.3670882292505,332.3694209757446,331.3682377279308,333.37047364576256,330.3671896876083,329.36607835335286,333.3704347271962,332.36946924237367,333.3705214967437,330.3670804318089,331.3682449301165,330.3671367075607,331.3683911139644,331.3682207868577,329.3659739590556,331.3683091249445,331.36827293304185,333.3704576030261,334.37167377560763,330.36711510814376,332.3694136833336,330.3671271383147,329.3659911235397,331.3685107627528,331.368258513247,332.36932147134416,331.3682311482486,331.3681895174217,330.3670852531151,328.36491478752686,332.3693770321122,331.3683081976274,332.3693503762437,332.3693039573086,331.3682080251841,332.3693116729518,330.3671064371641,330.3671602043934,329.36597520898255,332.3694108117827,331.36835989260555,333.37074714425853,329.36596544019403,331.3681971748498,330.36729118453457,329.3659718623412,330.367103831343,333.3704894917388,331.3682524585154,330.3670898091056,330.3670747416606,329.36609455359013,331.3682571502495,330.36716486176033,329.36602572187013,331.3682186308973,329.3659640061683,329.3661425603655,331.36824882751205,333.3704455795469,331.3682281067974,329.36608330622994,331.3682593154791,330.367110949225,330.36713113546625,331.36822781114023,331.3681968504855,329.36599608682945,331.36829045061546,329.36609602646706,332.3693461435442,331.3682059308801,329.366053884359,333.37049563090073,329.3659860319417,329.36597113185246,333.37045714416354,329.3661326804891,329.3659793925178,330.36711483324166,330.36712953117666,331.3682026502083,332.3693792773542,331.368449364742,331.3682405281512,331.3681955675951,334.37193313108526,333.3705232874125,333.3706545007674,332.3693142147842,331.3685417425224,329.3660745467146,331.36826193363027,331.3683028239003,329.3659853283616,329.3661035561682,330.3671185808449,330.36729946641,329.36604050734474,330.3671329827294,333.3705280627633,331.3682078083036,331.36824422644446,331.3682249889955,331.3684578799602,331.3682191306361,330.36719976915623,329.3660024704915,329.36600220942836,331.3682290022074,332.3693779998393,329.3659730592364,331.36821398905664,331.368199556303,331.36823231230255,330.3670824262054,329.3659955142106,331.3682262850808,328.3649107644875,331.3682355314115,330.367137443958,330.36715949027194,330.36710427707555,331.36825960086645,329.3659676814178,329.3659876283504,334.37159750237043,331.368281863965,330.3671054717847,333.37043624101756,333.37067593427423,330.36708589301884,333.37049421190767,329.3659711267148,330.3670830456741,329.3661077125831,329.36598714587865,330.36709388672404,331.36829909585276,333.3707202896631,330.3671671761594,329.3661540424141,332.3693067146794,331.3683762959265,329.366156270172,330.3672194545641,331.36829513109484,333.3704147624823,332.36931504407295,329.36597457748206,332.3693605229909,335.37288965413785,330.3671067730729,331.3682243755017,331.36821304478747,331.36831767338657,331.36821588122103,331.36820861738437,330.36709124247596,330.3671683427503,330.3670863310198,330.36713460994736,329.3660114194561,330.36721855572773,330.36709496244873,331.36825869232496,328.3648832544849,330.3671785546114,330.3671398215788,329.36597423264203,329.3659805745026,330.36710759457776,331.3682773637721,331.36825123935665,331.368254916782,331.36826696434485,331.3683629601252,297.330367869655,331.36824408070316,331.36837834528734,330.3670924601764,332.3693936029818,328.3648969288031,330.36709745134186,330.3673056953718,329.3659960245445,331.3681989036935,330.3670863461141,332.3693211633724,330.3671793078932,333.37052777649586,331.3682475232991,331.36824430597903,329.3659737810625,330.3671190494422,334.37161021706555,330.367197585921,329.36597136947404,330.3674106701462,329.3661715312645,330.3671840467521,333.3705154713046,330.3671142266155,331.36821115367763,333.3705941807323,330.36708380417906,333.370497571936,331.36831123925725,330.3671482927644,330.36710974918236,331.3682660411718,330.3671525790696,333.37067906560185,330.3671931433636,328.36492242921565,333.37083522327595,330.3670881545639,335.37266777313124,329.3659696912358,334.37184667631334,329.3659877437044,331.3681981971981,331.3682549077844,331.36848758846077,330.36710562067714,335.3726807552713,328.36496045930517,329.36596730098404,331.36825219315347,330.3672723911818,331.3682587338032,329.3660212115986,329.3660181286048,330.3671232339781,330.36722090207616,330.36714138537167,330.3674369691366,331.3682232072994,331.3682097706753,332.3693313583424,332.3694466482443,331.36827588021106,331.3683223781333,329.36609359220904,330.3672884987702,333.37044142436855,329.3660115647054,333.3704244486372,329.3659857591197,330.36712725747566,330.36708494924807,329.3660130994255,330.3671044986768,330.36709963414097,329.36599663084894,330.36718789285635,329.36601194280416,331.3682250423698,333.37051132152453,331.3682487814926,328.3649210296243,329.36596424509094,331.3683209953522,330.3671066011669,330.36713782327786,330.36707752703745,331.36819564090166,329.365970749276,334.3715418983347,330.36720023999686,331.36819785250896,331.3682300337421,331.3681948346545,329.365989396304,330.36708856527804,330.36716717965555,335.37292511642625,331.3681964447788,330.3671266932957,331.36822263195927,333.37042045495264,333.3704968526539,335.3727129829559,331.3682590038614,329.3659913287004,330.36711278929727,330.3671114705348,330.3671739424415,334.3717450444783,334.371545851017,330.36711652472644,330.3671925578073,330.3670766144267,330.3671771432528,331.36832425272763,332.3697003759843,329.36596630868695,329.3659671391339,330.36737362132214,329.3659922533211,328.3648680545336,329.3660434053241,330.3671766669183,332.36933926513836,330.3671498831551,332.3693079558003,330.3670993470758,331.36819898516615,331.3682513487177,331.36818861743535,331.3682825817554,331.3682489160636,332.3693582951138,330.36708142911806,333.37056753310367,329.36613147993336,331.36842772155103,333.37043633822435,331.36832902169317,333.3704948626459,331.36823035970593,331.3682188759888,330.3670803883214,333.3704743359919,330.36712218177183,330.36712539400077,331.3683594176892,333.37047803656446,333.37043543216873,331.36826432482,330.36715705258825,328.36490365131016,330.3671641638195,331.3682330346546,330.3672699761531,331.3682999362302,331.36843396177716,327.3638547672231,330.36707589860146,331.36831614125197,333.3704527542448,332.36975955929563,330.3671080496995,329.3659881721466,331.3683796556415,332.3694088693285,328.36497348712066,331.36824656981725,330.3671462878653,329.36599464433345,327.3638027193124,330.3671244237522,331.36819351246373,331.3682264690477,333.37046244638964,333.3706844382716,329.3660756144567,330.3671122246018,333.3704756607716,330.36715387128066,327.3638268953485,329.36610144832594,332.3693241348432,332.3693805132151,331.36833175336704,333.3704156329009,333.37051902020596,329.36600532838656,331.3683256909578,331.36823288936455,333.3704291193194,333.3704420904891,330.3670964280889,330.3670803937416,330.3670937600356,329.36603152781356,330.36707649547014,330.3670926111789,330.3672238524643,331.3684324518651,331.36829627162695,330.3671964555692,331.36820653045385,331.36819135299174,333.3707151392432,331.36824634565636,331.3683045245526,331.3682055562766,331.3682597308596,333.37052382244076,330.3675120762366,331.3682018150271,329.3659841704452,330.3671053561584,330.367082134556,330.36709027017315,331.3682525153676,330.3670748710674,330.36710172125805,333.37072857058087,331.36859111452975,332.3693366205105,333.37043328363666,330.36734149095173,329.3659982371361,332.3694413811096,330.36718108618334,330.3671316802996,331.3682004269529,330.3670917796505,332.3693667521741,330.36711481615487,329.3659813954506,329.3659775610543,334.3718527507242,330.3672930358687,332.3695974028373,330.36707543345375,331.3681952065139,329.36599631515816,329.36597884382735,330.3672209528905,330.36731550010364,330.36708133982887,332.36936363706616,304.3381806992323,333.37042829452383,331.3684368158977,332.3693051625181,330.3670892988154,332.3694303306095,332.3694120928992,329.366018601588,333.37048822885635,330.3670913461304,330.367237042073,335.372658416991,331.3684066268742,330.3671289573652,329.36612402642464,332.36935993359225,330.3670763586512,330.36719759140493,331.36819899782927,330.36734952784326,333.3707456969918,331.36822885319725,330.3670790876414,330.36707938899946,331.3682337849414,331.3681994805503,330.36710812617406,330.36725731410417,331.36824037484377,331.3681941316339,331.3681905979169,330.3673649607955,328.36486258568874,330.3670824847972,328.3648575764571,331.36833537976435,332.3695634017701,334.37153004526925,304.33816965397085,330.36723306888115,331.3683165250961,335.3726839902561,330.36718238337016,330.3671346537146,329.36603474625537,330.3671596705176,330.3671200564912,331.368262693952,332.3694732629322,327.3639286445832,329.36613580133616,332.3695424918546,333.3706082057915,331.3682180565654,331.36824581214245,331.36820642396265,331.3682032779597,330.3671525401212,329.36608801438524,332.3695886993897,330.3674567456228,330.36714455208613,331.36837034277,330.36728589233655,333.37063290818065,330.3670926558666,331.3682485219379,330.3672606353679,335.3731126550792,333.37041905046357,333.37046110363207,333.37041713752234,331.36830006470905,331.3684791016398,331.3682776039646,330.367175104411,333.3705044580017,332.36948883084017,330.36707630476445,331.36822739855353,332.3693045786735,330.3670970462614,329.3659824403397,331.368229223499,331.3682491588109,332.3694606911393,330.3672200494258,329.3660272897249,332.3696631428893,331.3682029899346,331.3682975637137,330.3671283836694,330.3672583024014,331.3683684096282,332.36931135727673,330.36708843348913,330.36740028602827,330.36715030158985,330.3671664911402,330.3671236463507,331.3682117295289,331.3683426697344,331.3683546776667,329.36600297268836,330.36718109461356,330.36721781643155,331.3682909106116,332.3693247447155,330.36712983894444,331.3683327209256,331.36828622441607,331.3682366433924,333.3704483046358,331.3682276175498,331.3685435342663,330.36727726973976,333.37048009453224,331.3684308906187,333.37052721445156,330.36715274578984,333.37042630323924,329.36603425119733,332.36932738399844,330.3671157622673,331.36842970937334,333.3706701796666,333.370454015649,335.3726957414405,331.3682276629905,330.36708785150626,330.3670856572832,331.3684220895362,332.3693307549963,333.3704985795827,333.37075938680294,331.368265810001,333.3704924054236,332.3693203865704,330.3671357900322,331.3682340595,333.370559245904,329.3659852040979,333.37054136144206,329.36599301765966,330.3670885774167,333.37041369681936,331.36834058313275,333.370471150909,331.3682971309675,331.3682200956535,331.368286892793,330.36714462507985,301.3348659847459,332.36931002350605
2,-0.00670592364716269,-0.0068353061148122745,-0.006327357732776178,-0.006039048750198874,-0.006955066953177504,-0.006824212540253266,-0.007095596502329575,-0.009493429790438924,-0.0077979945784242746,-0.006678096873563573,-0.008058158633590893,-0.0082155278112263,-0.008282747264139164,-0.005659901029903851,-0.007863411856575474,-0.007392464680690068,-0.0070531305827792054,-0.008517386414916523,-0.00823548657328511,-0.007112125438586895,-0.006703483625365117,-0.007357173789648936,-0.007920395800991997,-0.005889691470208599,-0.006568413988318939,-0.008782609508049825,-0.006147692245932279,-0.010068404021105974,-0.008123996995006447,-0.0068220198001299115,-0.005796801395247405,-0.00865435565147371,-0.007489144252866107,-0.0058584282039881716,-0.007381700769330443,-0.007497158333240139,-0.007984951686394369,-0.007926492358312213,-0.007345066981836539,-0.007238600906497027,-0.006185181782038646,-0.008026580034206102,-0.006198684493375843,-0.008589993683538709,-0.008508044460230013,-0.008943076914004925,-0.010243142373254245,-0.008050302365687106,-0.00570698948299591,-0.00837602417498888,-0.009774894829160642,-0.007387029067417056,-0.008063942893593483,-0.007137554430888734,-0.004400689693044505,-0.005696864149898641,-0.007574988320679203,-0.0058129809543612816,-0.009394839218547796,-0.007524910207964624,-0.007112854530631659,-0.00885773943199183,-0.007682974140739501,-0.009546061386247754,-0.007073936000597987,-0.009052463122672506,-0.005627053161638019,-0.006148322591428588,-0.008109684078275703,-0.007365325473466823,-0.005513931872271778,-0.008537631975855959,-0.00905591623843875,-0.0021423861350721276,-0.006482336070429978,-0.008007073247189803,-0.006708233303902081,-0.006488353775557066,-0.00923778278157962,-0.00757258554259871,-0.0074366017871576985,-0.006997126838729078,-0.008865863034674713,-0.006187518171760371,-0.011129934150067557,-0.007956545268610761,-0.00834629908447793,-0.008051145102881008,-0.009354724063075264,-0.007353509934026949,-0.0068633243222644864,-0.007970002476322045,-0.006238003458111305,-0.005938460311021553,-0.006062735303185022,-0.00748007806535394,-0.008151921858563395,-0.005762612792539547,-0.008257637228842197,-0.00675044623506431,-0.009232803622121205,-0.007640010744441329,-0.006448079952883601,-0.005224907792094641,-0.006382169439989723,-0.007449133979303466,-0.008049629407829939,-0.00813310574841586,-0.006657725635287062,-0.006531951808964017,-0.008156012366566158,-0.005183336961218878,-0.009414858543297879,-0.007160140940380798,-0.0074647554523039955,-0.009779750016057976,-0.007318063119466786,-0.006255030816499916,-0.008509117285576745,-0.006106048040223426,-0.007369409020890625,-0.008053347600835122,-0.008960807790333187,-0.007763403969004064,-0.004529082739739436,-0.008163854472235551,-0.010643431637521102,-0.008074185202074265,-0.006997490930993283,-0.00963279973445728,-0.011215496025081635,-0.007534438226930814,-0.005695764609909858,-0.008032903304520578,-0.007650106432586757,-0.00584637298921376,-0.007567192685667891,-0.0076069971352363515,-0.006881930520629568,-0.007389081101088777,-0.008108848385337562,-0.008023681776606227,-0.007722767984825373,-0.007281630527362914,-0.00887343265174955,-0.0076063602461586746,-0.007475684123908356,-0.0043884000764615695,-0.004420607210861207,-0.008442365781042337,-0.007944378616046896,-0.006905605454151818,-0.006966103714205027,-0.008419343136880305,-0.007780752724241242,-0.007543467978223687,-0.008174303603670297,-0.0063340565077369265,-0.01047209180696092,-0.007807221552596434,-0.007544309366792697,-0.0086194555797485,-0.006876384753478572,-0.007071504409632248,-0.00781527597938883,-0.005254634102367608,-0.008699027050778466,-0.005583809641668442,-0.007698000396311312,-0.008455424096976222,-0.009322167783647176,-0.0075393180127767715,-0.010263549916647538,-0.011019820167002812,-0.009807655586754343,-0.0076828991200045774,-0.007181341448900884,-0.007929250603957404,-0.007843256795024137,-0.007740415614772089,-0.0076638045005490785,-0.010589816815611022,-0.007700829310193672,-0.005832156916069586,-0.007700368591075228,-0.008283676939485755,-0.009440902672663166,-0.009648699338447765,-0.0061936342885955285,-0.007983770109107108,-0.006118730191640385,-0.0056017597277372745,-0.008843139593142917,-0.007210088541013088,-0.006494118041558136,-0.00535522202967392,-0.007793586780681792,-0.00635272816889383,-0.010109547844617695,-0.007762492860756272,-0.009520570973444555,-0.0076616262139797536,-0.007907046510955924,-0.0049912769101354134,-0.00687893573338564,-0.005813995597424889,-0.007575195261025843,-0.008309117444184869,-0.011156885592337967,-0.006992961168539116,-0.007568079183427304,-0.00975085626580582,-0.0078108776824030324,-0.009085001357896208,-0.007475656024517049,-0.009445356216006149,-0.007730606286905535,-0.007938022437336796,-0.009060839117004844,-0.007137817319447973,-0.007836309545494314,-0.010154376907244071,-0.009899328720809565,-0.007668618215476032,-0.009082569124152553,-0.009139810950407595,-0.008373863366888754,-0.008710665096582828,-0.007402556200178352,-0.006855686517209224,-0.006551057368619928,-0.008879696139675323,-0.0053198371741275145,-0.007903089300934214,-0.009784174808526494,-0.007808502467321172,-0.007010420722547707,-0.006141540087937211,-0.00965561730623027,-0.006889234418342646,-0.007532023311808785,-0.010764994500805494,-0.011144032058335444,-0.007694147073905865,-0.007386277622740681,-0.008143960650293273,-0.011107972183316918,-0.009576589034540435,-0.008133857783105587,-0.005847822914756105,-0.008947763811486327,-0.006879711586514938,-0.01009032976686869,-0.008338200146861745,-0.007771572072931665,-0.00865354081656268,-0.00783125074911777,-0.00894385704490328,-0.00707744460268975,-0.009235151259653527,-0.006891865693173376,-0.006936423700290045,-0.008301544132569269,-0.009026838548281168,-0.005905611285089856,-0.007000164321609392,-0.007726147562943039,-0.008428364625836774,-0.009100260066194748,-0.008000272257078686,-0.00577451152584372,-0.00868681676881574,-0.009133682111072646,-0.007595554125593118,-0.006470349299653048,-0.009833579606237482,-0.006967740503088545,-0.01064399140779997,-0.005462769360487137,-0.007558333689716303,-0.00720504686499235,-0.008592780905148806,-0.007630550926658017,-0.005783358756538555,-0.006907526911255798,-0.008181719445896027,-0.007446687334494672,-0.007954805169740491,-0.004950102046367284,-0.00987792445678196,-0.007533212192509005,-0.008218146899153537,-0.007882993011985754,-0.008834114685646734,-0.007938511314224773,-0.006891123947078244,-0.008358872604735716,-0.007959575914968053,-0.007924658402780458,-0.007883598793787262,-0.008119137590785152,-0.009411354487291938,-0.0078339212863862,-0.006939926222581353,-0.007437716584542317,-0.006102274551772815,-0.007569973680369731,-0.011192946175829993,-0.006126694106934094,-0.007630682991167088,-0.007247159134561735,-0.007897489912733188,-0.008012239591396778,-0.0074676370137854034,-0.0070364705122579994,-0.008416252972072866,-0.011349377254742448,-0.008672320593524543,-0.0076122692909866545,-0.008191815296434814,-0.007883422988268806,-0.007787168633753163,-0.007959609736442348,-0.007400762851969736,-0.00711043778768813,-0.005003376336802204,-0.011206702040415567,-0.007778204146795966,-0.008000498639892013,-0.007898317355852294,-0.008023722441835333,-0.00704353149814215,-0.00760739437128373,-0.006982355068538627,-0.007596861376606251,-0.007970440980677212,-0.00881576341642879,-0.007903676031378136,-0.007526160368562129,-0.009111850323716244,-0.007586014668590293,-0.007150270036724391,-0.006195799963731328,-0.008214162569684094,-0.005844693415773379,-0.009226625408742065,-0.010827461757908685,-0.007765750458186322,-0.008696619077332737,-0.006561256620093522,-0.006894606359357086,-0.00920300437566053,-0.009107177427422012,-0.006672201107557064,-0.009833457664732795,-0.01102120505245151,-0.006374838862473541,-0.0069609026234683825,-0.008135299313828287,-0.009796655489084989,-0.007413263272081798,-0.004997207465602769,-0.008294475580748648,-0.007894496920680193,-0.006491402733141767,-0.00511830039654238,-0.009951558350872086,-0.008307984794587414,-0.0069257376227086324,-0.005972189403347611,-0.007343509532319352,-0.008575351149386554,-0.008202106033219832,-0.007812269611705574,-0.008255979577552459,-0.009668014248306864,-0.00607559983624236,-0.007027723748435534,-0.007961250148289287,-0.006104322252392351,-0.006325601453345007,-0.010464999982735675,-0.01039883783432081,-0.008507903242732059,-0.007593272277661763,-0.008216216154239777,-0.005729606513800928,-0.008070170499538338,-0.008094059975032092,-0.007371278788635954,-0.007375266295143056,-0.008011006573949013,-0.00811650826055249,-0.0060105608494214705,-0.00806726767004176,-0.008098071962501783,-0.007026144891563216,-0.006618184680577602,-0.007538870853293964,-0.008299979492899328,-0.0063583658653317944,-0.010185248268528575,-0.005568143285004922,-0.00786758944290643,-0.007840672587827191,-0.007561215558823649,-0.006161013745063301,-0.005882278988743832,-0.005531909171642411,-0.008209297404757811,-0.008742092674923098,-0.007942579555537097,-0.008580196475039341,-0.009825663957009442,-0.007545201468774624,-0.00844537395188966,-0.007745008374896634,-0.007571969554627114,-0.007426317363754918,-0.007224358432274373,-0.008350997505152846,-0.007923686713930018,-0.0110659177823313,-0.007712292461422474,-0.007758347732333634,-0.007821267121680419,-0.00492175172820841,-0.007021421530414847,-0.0065029050921680525,-0.007891656493714714,-0.006973821736256584,-0.00622955186341128,-0.005940790005554169,-0.00818122399190889,-0.0057374427330814035,-0.007914499998039068,-0.011421887448771291,-0.008058838581433029,-0.005504152742077872,-0.007257275150884016,-0.005587243419463634,-0.005335037898923563,-0.00912373415906115,-0.009703400132506711,-0.00833712943761717,-0.008191103679150638,-0.008202172217378588,-0.007566400185522902,-0.008420284594174276,-0.007664725237438052,-0.007019608977170253,-0.007636811228440758,-0.007168418139364324,-0.010179921500299949,-0.008575283425947974,-0.008000135125658408,-0.008533219626922056,-0.008562648620045164,-0.0061280337465426694,-0.009053420523028448,-0.008365425944010121,-0.008494317441751107,-0.00990647741385224,-0.00792225396603485,-0.008444626152871943,-0.00826686381065202,-0.005515902712673172,-0.008505645994849018,-0.007917760602960672,-0.006386282262063945,-0.00562442782557892,-0.010962497357215458,-0.0065230595190513534,-0.007706537769083038,-0.010232077427340162,-0.008044629795434593,-0.005436810500959126,-0.00862127715084612,-0.00928582240513247,-0.008690432508601421,-0.007445401651042946,-0.00786441737416236,-0.005841052672942949,-0.008501442815851797,-0.007888415969749048,-0.010043859719423481,-0.0074019832567249096,-0.010645230378187993,-0.008034530557537192,-0.010112778096076294,-0.011070487846477165,-0.008554562201701567,-0.010184581996184815,-0.008081992292963447,-0.009510180432243913,-0.007501552494106417,-0.009933715390413485,-0.009095204640216594,-0.009126574217702145,-0.007850313343236642,-0.007145700991577268,-0.005707055220622471,-0.011260787198493792,-0.009460664838661705,-0.006761843374535149,-0.007581129993581154,-0.008033059673875569,-0.007988021475125819,-0.009114760575633924,-0.009356320116014057,-0.00787211622482403,-0.006739316033290218,-0.006140511862152359,-0.005621779618685509,-0.008017101210083257,-0.007568757983792213,-0.009941738107044804,-0.00909084364974417,-0.005616792070272796,-0.006915091654284031,-0.007885745515050922,-0.008251662084690227,-0.007693125684835337,-0.005428715606369203,-0.008620374890090569,-0.009904988898944537,-0.01007224303063258,-0.008054687250023654,-0.010031773758539381,-0.005522046089094952,-0.005702676273585451,-0.008115569918426782,-0.005693824214891408,-0.0061550608200274404,-0.008276289989595675,-0.009635776755997558,-0.009786447408433416,-0.0060436618360026565,-0.010191229354971888,-0.007853572416558877,-0.009011581144526996,-0.005444916989714534,-0.007803976911443896,-0.008781220851803297,-0.007719860486093159,-0.005945629604041162,-0.007095018540616353,-0.008969294693118836,-0.009148297696788456,-0.00976166079666231,-0.008501510946843163,-0.006835692537191985,-0.008088162753901654,-0.008681581154190083,-0.008127123346610875,-0.005649517644974585,-0.007576148840322326,-0.00551477559310094,-0.007477028925301273,-0.005359026490410781,-0.008625786241514116,-0.0074012965397011864,-0.007716573249902115,-0.008207856913674458,-0.007090566006453569,-0.0075021036349755665,-0.007405303257364876,-0.008172028647934839,-0.011349716280897931,-0.00625689514769289,-0.011455679366433444,-0.006633918200108459,-0.009861642206241694,-0.007271368862098738,-0.006690172436534183,-0.00794883532158907,-0.0065476343596782595,-0.005677392360190698,-0.009079872247372963,-0.006947056209208207,-0.0053465307485925885,-0.008831368661884189,-0.008956384135927526,-0.006138360042326371,-0.005688036049814651,-0.00840610401770417,-0.008657006487226792,-0.008151799721786073,-0.008791666248032121,-0.005418907943924256,-0.0053028136261504735,-0.0076580912654137965,-0.008177802491068413,-0.006689671580251165,-0.011041221393521494,-0.005972380433199194,-0.006268946521539763,-0.009529288155896418,-0.0056729781542276606,-0.008616303709748866,-0.009459736968973443,-0.007922346928680815,-0.009078157767915417,-0.006924304756637473,-0.007889802400268922,-0.008129305803818881,-0.009364815493430573,-0.008407879123965595,-0.008301423994777719,-0.007408588623143631,-0.010266558951713214,-0.008063003897869838,-0.005324244910025052,-0.0056345129200925945,-0.006424375479725001,-0.006547204842872096,-0.008696720819546302,-0.0056954347313927164,-0.008362937284091213,-0.006627386904728157,-0.006683775382297447,-0.008035975402910712,-0.005949707699521877,-0.0055721512665618655,-0.007664712975192553,-0.008807271819424976,-0.007974122540960204,-0.007928110299661319,-0.007994388327334508,-0.007980220559459282,-0.008081087706344529,-0.006842963921125135,-0.005699747043679333,-0.008202594115484213,-0.007755368925033957,-0.00923269684509825,-0.008247253658667238,-0.00898758444179228,-0.0064357394819951,-0.005744565920793559,-0.007923440166635745,-0.007777066632804288,-0.008315988745891402,-0.009225644626084871,-0.011128738658225147,-0.007087912191903081,-0.011272122808355938,-0.007071633893294055,-0.005556022351065831,-0.008297841278946944,-0.008400789330610286,-0.008178934625911799,-0.008036471386323896,-0.007637425928623054,-0.006444697819472243,-0.00805482347627738,-0.005980417793467909,-0.008298176151250782,-0.009132515082585923,-0.005338443545281533,-0.005155584260798669,-0.005538848078838871,-0.009902626586590505,-0.008556102423959553,-0.011653715617144124,-0.008055637895787168,-0.006543117455626985,-0.011160052944600608,-0.008073235845726697,-0.00806631677621607,-0.005790287747448004,-0.005505865418986178,-0.0076826903475932596,-0.008520679327643653,-0.007210171411871733,-0.011166096519957067,-0.007026139301520515,-0.005534350859118886,-0.0080171885849717,-0.00812818712683836,-0.008384519475460442,-0.008385872952657497,-0.011153856436008025,-0.006242530356062516,-0.006918480357456626,-0.006630056932170411,-0.006300809147094276,-0.006560865784258067,-0.006006304764059227,-0.007591354255734898,-0.009138976154457707,-0.010202111583189408,-0.006974646136012829,-0.007908047507690828,-0.005475481557139023,-0.008304041489176085,-0.008254627390393404,-0.008904302803766972,-0.011218409950834564,-0.006685123536500273,-0.005499470224699003,-0.008136378374089318,-0.007145284604615836,-0.007006970856083396,-0.008849271265169687,-0.007131353749283554,-0.009169434062432794,-0.008242871561663968,-0.007612372888793768,-0.009091873655450824,-0.009419008265891352,-0.006554493248350519,-0.005601274745711676,-0.0066550371822872555,-0.009145958128482469,-0.008257517825697133,-0.008238747241628307,-0.00767943959285781,-0.0063591300599351135,-0.008220915492949486,-0.010197731682072397,-0.008166346614835087,-0.009742188217457391,-0.006496893332148955,-0.008268373746220973,-0.009617983029149386,-0.00559105617187276,-0.011409773017789898,-0.009573854976233176,-0.005731705992653866,-0.00841990791595283,-0.010941775755489413,-0.008532891286775578,-0.008945475849245996,-0.008178379271815327,-0.006135398540105323,-0.008345405905531147,-0.008325028297750364,-0.009619512720781622,-0.005746889314427824,-0.005751388947757608,-0.00600929516933688,-0.006532386759104544,-0.008062765861583259,-0.00814743416336536,-0.006726447395446637,-0.00864439705672651,-0.010290474914982231,-0.0115673703524134,-0.0087737808013226,-0.008888785693869285,-0.010252065932378235,-0.007071557478806513,-0.005822285469240904,-0.007446886697994916,-0.006478898999975965,-0.008279960863322664,-0.008196311550005489,-0.006846104545589979,-0.008029249062695898,-0.010988994314377198,-0.010414341483998115,-0.008170430523641234,-0.006304320444041482,-0.01141731443181273,-0.008098732315107604,-0.008057127397558428,-0.006093905369065559,-0.009019300368841451,-0.00937122068360164,-0.005883454082067683,-0.011073074981875632,-0.006546323296290184,-0.008517264685197782,-0.009017443047024953,-0.008678519216385443,-0.00891901433924384,-0.009544390852258588,-0.010117101709292182,-0.005717081300105669,-0.005875262323999965,-0.008728704733023741,-0.006202841135679112,-0.006246623735428807,-0.008991168271076412,-0.005746039875186365,-0.009366566841450447,-0.009040266003843401,-0.009593975960447565,-0.010042373444227383,-0.009162625278548239,-0.00835875388864919,-0.004583704233557784,-0.006754454555344232,-0.010316151978616427,-0.0064720558221470935,-0.007311508741528696,-0.011268140914918444,-0.00840746457064429,-0.006438946686261118,-0.005601289863109361,-0.006093026189925525,-0.011758244970010892,-0.007618720216428013,-0.005586213117371953,-0.0082584444720169,-0.006276108005294671,-0.008148254413147834,-0.007819552462260595,-0.006970520359116026,-0.007533800651703767,-0.00816710858088175,-0.008909554249112838,-0.008937613913653608,-0.008313336048291193,-0.010350570920881617,-0.008099248947814854,-0.009035897087513532,-0.00806850600580691,-0.010863093941843063,-0.008461447735970296,-0.008917074460466358,-0.009077317250942055,-0.010953707730738813,-0.009103712644773896,-0.006997378416340859,-0.007530647737537591,-0.0062456124883520925,-0.0067550567949592995,-0.008390609931116457,-0.009656865394352395,-0.008158334930734987,-0.0072778981900310956,-0.008873030721474223,-0.006375956068124035,-0.010945798348359381,-0.0070040951749600466,-0.008596836034873608,-0.011334196086289477,-0.008040302819562403,-0.008767748333196884,-0.006537703628816454,-0.008851832799569742,-0.00569147678185074,-0.007821991661552737,-0.007523809571627661,-0.010115090229571045,-0.00870314253277366,-0.005770413831478911,-0.007154619415903118,-0.010263879448619014,-0.008996784477025066,-0.01062169936107144,-0.0076568749185622394,-0.00558309905070747,-0.009176587764939315,-0.006320522322076537,-0.005842262486569675,-0.007972192151045296,-0.0058961342681377,-0.008438386431424314,-0.006987968514637584,-0.006785493276383134,-0.008358404593217558,-0.008612819271007786,-0.005480304720231418,-0.008220012163271676,-0.010809723247578491,-0.004993510347101872,-0.008979447456102168,-0.00549778151155792,-0.009956328086370472,-0.005696054588054126,-0.009244618384975332,-0.008681582608738114,-0.008402331699865083,-0.006525413874460246,-0.008957924943062037,-0.005481529814027444,-0.010700225430494098,-0.009761353058395844,-0.008154541269531078,-0.008134297668445358,-0.005893924228546256,-0.010179759502511971,-0.008976454609632525,-0.007176147719398424,-0.0086771071465141,-0.009215686702746036,-0.009636603976879514,-0.008765530667114635,-0.008270046520959083,-0.006439388775285395,-0.00829343145283477,-0.005800131365399762,-0.008432875678312761,-0.009657208723055625,-0.00793436718030991,-0.005794352284366687,-0.01015820900878521,-0.005897856420396414,-0.01143081435462111,-0.008729364821941626,-0.008422195512909687,-0.010417297926763708,-0.008410469664360442,-0.006633226428836169,-0.011552479178397797,-0.008979824328502892,-0.010188268951687557,-0.006559913717341356,-0.00594665822567739,-0.0077665933860840706,-0.010999052306077855,-0.009141024166356702,-0.006210926196973062,-0.00906642392873149,-0.008962084458378027,-0.00814744275876871,-0.005883361108933942,-0.009120342034444099,-0.005765913792138363,-0.008961526212931446,-0.007750486417989483,-0.008458589693481646,-0.008398395549985428,-0.011627105765048091,-0.00862869837965636,-0.007726567410949427,-0.005518057769035869,-0.006071307047269116,-0.00881942655586154,-0.007879230995133364,-0.00585723366507921,-0.006003421082154862,-0.005573068635795687,-0.00917693907638483,-0.00998727241417667,-0.008628089459233587,-0.00880104131860211,-0.009132779871678195,-0.005741027821733579,-0.005706601005197228,-0.008961929254175143,-0.006754961088119463,-0.007443022693605726,-0.008338596807601965,-0.00836994156000654,-0.007536692915895284,-0.008188446740762058,-0.0103938504206753,-0.008659053413957951,-0.01032424721431558,-0.011881335219486104,-0.010275472098227146,-0.008357256136505889,-0.007666737427546195,-0.008549212921566138,-0.007669438705298016,-0.008599201328518085,-0.007528852535926207,-0.007843742601324087,-0.008677419274494828,-0.008953747195555913,-0.006838257793962858,-0.007984048695333824,-0.008583391996205088,-0.005917855067613039,-0.008316794015778058,-0.007801490323031127,-0.0054268364464952696,-0.007575434454415268,-0.005597760776191039,-0.0075867875537642335,-0.008126150212005712,-0.010311931751491765,-0.00574069995359597,-0.008854549839286461,-0.008541992672093662,-0.008526597738623078,-0.005961087688035565,-0.006129161563148313,-0.008982381493702358,-0.008675382964940853,-0.011087652851487075,-0.00851182419176105,-0.006185500098182403,-0.007204164302235733,-0.007279921963267462,-0.007695167078917654,-0.013939556660915849,-0.010584775082444252,-0.007478798477597113,-0.005076129555310599,-0.005990529920903468,-0.008949291739751779,-0.010845308816309962,-0.00854348854372185,-0.006317909647363547,-0.011221551656608339,-0.007584209487959085,-0.007195897163458804,-0.010402939170019384,-0.015633061817791352,-0.008913458040466643,-0.007366149936369151,-0.007277886083780849,-0.005916817201365186,-0.006041691445722134,-0.01012480397750316,-0.0075183696675284965,-0.005865962046394106,-0.009163750080811005,-0.014661026060202094,-0.009045613177448267,-0.009631703007054916,-0.006913501355679461,-0.006788531126837638,-0.005865321972100125,-0.0059172293210858415,-0.009013518638187897,-0.007650068452518313,-0.007661470188001219,-0.0060278531130578605,-0.006020833745818349,-0.008635691691815993,-0.009113897051353048,-0.007512867620539267,-0.008851726059170655,-0.008691142424105729,-0.00902498314869477,-0.009438071510463508,-0.00897740459211841,-0.006307704565912154,-0.008838977440114386,-0.007534500274898963,-0.00717443590459223,-0.0053418079238184675,-0.0068049409352983975,-0.007365720714198874,-0.007409579714002812,-0.007964377551520366,-0.006034426694166763,-0.009879087408083707,-0.007873919926511277,-0.011664967016042376,-0.007648207048827126,-0.00925464731762632,-0.0073718526776032425,-0.006964482795183201,-0.009257893331968388,-0.008757777194532716,-0.005820370990783938,-0.0074947269265368535,-0.0062346224157543585,-0.006012524392383501,-0.008457208355063233,-0.009770626074603998,-0.00913296999019528,-0.009072446450500371,-0.009269853863591006,-0.008672671513111078,-0.006999665771369192,-0.006823211448144453,-0.009113542578743887,-0.009108092777275437,-0.010974919330398895,-0.005657250312462135,-0.008924198010710045,-0.008707883338505152,-0.00926929427575502,-0.008738471318241259,-0.011015715117586918,-0.008228218470178036,-0.008595610593798772,-0.007856180871700673,-0.009220525894068212,-0.007347553684029745,-0.005507997892862398,-0.00595759402501867,-0.008887259887438553,-0.006057467411413355,-0.008890048793291904,-0.006711125632285868,-0.0060938412377000446,-0.010124637752888669,-0.005861778325605417,-0.00919805128893978,-0.008986504932832044,-0.005747980378913854,-0.007704271126453854,-0.010290289506523978,-0.010257325090286394,-0.006820035913925515,-0.009169542161190437,-0.007495583852817349,-0.008769930995571185,-0.008490413660382659,-0.006149267862436883,-0.008760519675940671,-0.00782029306820412,-0.008365973820434665,-0.008874007410079968,-0.008627866934974278,-0.008846311310985353,-0.008674480357728458,-0.0059648895939199975,-0.006415698119521917,-0.008447166400290512,-0.008673892015021162,-0.010983439039679608,-0.0075553677314241134,-0.012215130222579133,-0.007926665270822952,-0.00942752783406158,-0.005735743328355389,-0.004088794535041822,-0.009083586303002331,-0.00872517886574324,-0.005784574451616061,-0.009057440053018036,-0.009147678293614972,-0.008416939691849954,-0.007489939433500774,-0.008882092479317809,-0.009366402544998405,-0.006808809048339424,-0.013681087124096193,-0.008984719296080518,-0.005849015643763691,-0.0059970274332275374,-0.008048844829507382,-0.009679548643525776,-0.008225702604328236,-0.008498597351812388,-0.007351207883447516,-0.010494153488600487,-0.006540984972105469,-0.009452172400635077,-0.009959036495383742,-0.007610752330712432,-0.009434118885894313,-0.006016009794495587,-0.008795811200703038,-0.00744921246238058,-0.00900395891112112,-0.005723393261724149,-0.006029457402988708,-0.006162936279414756,-0.0058132913063800255,-0.009193855003500664,-0.007514986465880963,-0.007799010253581487,-0.00809557798627231,-0.006070468887605388,-0.006913086467624204,-0.008747583215289982,-0.007727458918519642,-0.009801856368081563,-0.009108528382989851,-0.008846726295830762,-0.007344421979548767,-0.007934208717240971,-0.007421229419133339,-0.011579908295951798,-0.010262126323831215,-0.009584810992566912,-0.009397748436877093,-0.006442110998723114,-0.008262191891272997,-0.007508280178253119,-0.009203168004154546,-0.007743538236779343,-0.009131521237767504,-0.008431811129392994,-0.007184319178758454,-0.007541460066984211,-0.008467358455434419,-0.007777088352606213,-0.008874394770157319,-0.007865937865309704,-0.010346102578378974,-0.009058459053945861,-0.00917245092562447,-0.00908166508738436,-0.007796258524963386,-0.008976596456068938,-0.009489156955311112,-0.008848290284001088,-0.007753138269627401,-0.005146185296479036,-0.00889246713305136,-0.008082468862528853,-0.008763865348128726,-0.006070417113537629,-0.006351163419006363,-0.006008245277251475,-0.008879128922439609,-0.005988893104060262,-0.010022814819905194,-0.006595157821924552,-0.009189242171857443,-0.007886403703374397,-0.006040426935107834,-0.006026337053281298,-0.005755287310934814,-0.007460614581904497,-0.008689482649550802,-0.008618085568678015,-0.008009880022201387,-0.007720511292350741,-0.005902272072150162,-0.00612990216475911,-0.007251099866358323,-0.006446123133909857,-0.0067617373684266254,-0.009113267509834261,-0.00624710972666988,-0.006086832849408775,-0.010414488715553803,-0.005899247230601165,-0.01033477431406728,-0.00931251572963288,-0.005949493261331856,-0.007766221676847791,-0.006103195197119412,-0.008729131396696612,-0.0078105542213187445,-0.00862719603631887,-0.008783081311362843,-0.004939001331200009,-0.0075864267102150615
3,-13164169.376182279,-13164169.376182279,-13164169.37618228,-13164169.37618228,-13164169.37618228,-13164169.37618228,-13164169.376182282,-13164169.376182282,-13164169.376182282,-13164169.376182282,-13164169.376182284,-13164169.376182284,-13164169.376182284,-13164169.376182284,-13164169.376182286,-13164169.376182286,-13164169.376182286,-13164169.376182286,-13164169.376182288,-13164169.376182288,-13164169.376182288,-13164169.376182288,-13164169.37618229,-13164169.37618229,-13164169.37618229,-13164169.37618229,-13164169.376182292,-13164169.376182292,-13164169.376182292,-13164169.376182292,-13164169.376182292,-13164169.376182294,-13164169.376182294,-13164169.376182294,-13164169.376182294,-13164169.376182295,-13164169.376182295,-13164169.376182295,-13164169.376182295,-13164169.376182297,-13164169.376182297,-13164169.376182297,-13164169.376182297,-13164169.3761823,-13164169.3761823,-13164169.3761823,-13164169.3761823,-13164169.376182301,-13164169.376182301,-13164169.376182301,-13164169.376182301,-13164169.376182303,-13164169.376182303,-13164169.376182303,-13164169.376182303,-13164169.376182303,-13164169.376182305,-13164169.376182305,-13164169.376182305,-13164169.376182305,-13164169.376182307,-13164169.376182307,-13164169.376182307,-13164169.376182307,-13164169.376182308,-13164169.376182308,-13164169.376182308,-13164169.376182308,-13164169.37618231,-13164169.37618231,-13164169.37618231,-13164169.37618231,-13164169.376182312,-13164169.376182312,-13164169.376182312,-13164169.376182312,-13164169.376182314,-13164169.376182314,-13164169.376182314,-13164169.376182314,-13164169.376182314,-13164169.376182316,-13164169.376182316,-13164169.376182316,-13164169.376182316,-13164169.376182318,-13164169.376182318,-13164169.376182318,-13164169.376182318,-13164169.37618232,-13164169.37618232,-13164169.37618232,-13164169.37618232,-13164169.376182321,-13164169.376182321,-13164169.376182321,-13164169.376182321,-13164169.376182323,-13164169.376182323,-13164169.376182323,-13164169.376182323,-13164169.376182323,-13164169.376182325,-13164169.376182325,-13164169.376182325,-13164169.376182325,-13164169.376182327,-13164169.376182327,-13164169.376182327,-13164169.376182327,-13164169.376182329,-13164169.376182329,-13164169.376182329,-13164169.376182329,-13164169.37618233,-13164169.37618233,-13164169.37618233,-13164169.37618233,-13164169.376182333,-13164169.376182333,-13164169.376182333,-13164169.376182333,-13164169.376182334,-13164169.376182334,-13164169.376182334,-13164169.37622427,-13164169.376182336,-13164169.376182338,-13164169.376182338,-13164169.376182338,-13164169.376182338,-13164169.37618234,-13164169.37618234,-13164169.37618234,-13164169.37618234,-13164169.376182342,-13164169.376182342,-13164169.376182342,-13164169.376182342,-13164169.376182342,-13164169.376182344,-13164169.376182344,-13164169.376182344,-13164169.376182344,-13164169.376182346,-13164169.376182346,-13164169.376182346,-13164169.376182346,-13164169.376182348,-13164169.376182348,-13164169.376182348,-13164169.376182348,-13164169.37618235,-13164169.37618235,-13164169.37618235,-13164169.37618235,-13164169.376182351,-13164169.376182351,-13164169.376182351,-13164169.376182351,-13164169.376182351,-13164169.376182353,-13164169.376182353,-13164169.376182353,-13164169.376182353,-13164169.376182355,-13164169.376182355,-13164169.376182355,-13164169.376182355,-13164169.376182357,-13164169.376182357,-13164169.376182357,-13164169.376182357,-13164169.376182359,-13164169.376182359,-13164169.376182359,-13164169.376182359,-13164169.37618236,-13164169.37618236,-13164169.37618236,-13164169.37618236,-13164169.37618236,-13164169.376182362,-13164169.376182362,-13164169.376182362,-13164169.376182362,-13164169.376182364,-13164169.376182364,-13164169.376182364,-13164169.376182364,-13164169.376182366,-13164169.376182366,-13164169.376182366,-13164169.376182366,-13164169.376182368,-13164169.376182368,-13164169.376182368,-13164169.376182368,-13164169.376182368,-13164169.37618237,-13164169.37618237,-13164169.37618237,-13164169.37618237,-13164169.376182372,-13164169.376182372,-13164169.376182372,-13164169.376182372,-13164169.376182374,-13164169.376182374,-13164169.376182374,-13164169.376182374,-13164169.376182375,-13164169.376182375,-13164169.376182375,-13164169.376182375,-13164169.376182375,-13164169.376182377,-13164169.376182377,-13164169.376182377,-13164169.376182377,-13164169.37618238,-13164169.37618238,-13164169.37618238,-13164169.37618238,-13164169.376182381,-13164169.376182381,-13164169.376182381,-13164169.376182381,-13164169.376182383,-13164169.376182383,-13164169.376182383,-13164169.376182383,-13164169.376182383,-13164169.376182385,-13164169.376182385,-13164169.376182385,-13164169.376182385,-13164169.376182387,-13164169.376182387,-13164169.376182387,-13164169.376182387,-13164169.376182389,-13164169.376182389,-13164169.376182389,-13164169.376182389,-13164169.37618239,-13164169.37618239,-13164169.37618239,-13164169.37618239,-13164169.37618239,-13164169.376182392,-13164169.376182392,-13164169.376182392,-13164169.376182392,-13164169.376182394,-13164169.376182394,-13164169.376182394,-13164169.376182394,-13164169.376182396,-13164169.376182396,-13164169.376182396,-13164169.376182396,-13164169.376182398,-13164169.376182398,-13164169.376182398,-13164169.376182398,-13164169.376182398,-13164169.3761824,-13164169.3761824,-13164169.3761824,-13164169.3761824,-13164169.376182402,-13164169.376182402,-13164169.376182402,-13164169.376182402,-13164169.376182403,-13164169.376182403,-13164169.376182403,-13164169.376182403,-13164169.376182405,-13164169.376182405,-13164169.376182405,-13164169.376182405,-13164169.376182405,-13164169.376182407,-13164169.376182407,-13164169.376182407,-13164169.376182407,-13164169.376182409,-13164169.376182409,-13164169.376182409,-13164169.376182409,-13164169.37618241,-13164169.37618241,-13164169.37618241,-13164169.37618241,-13164169.37618241,-13164169.376182413,-13164169.376182413,-13164169.376182413,-13164169.376182413,-13164169.376182415,-13164169.376182415,-13164169.376182415,-13164169.376182415,-13164169.376182416,-13164169.376182416,-13164169.376182416,-13164169.376182416,-13164169.376182418,-13164169.376182418,-13164169.376182418,-13164169.376182418,-13164169.376182418,-13164169.37618242,-13164169.37618242,-13164169.37618242,-13164169.37618242,-13164169.376182422,-13164169.376182422,-13164169.376182422,-13164169.376182422,-13164169.376182424,-13164169.376182424,-13164169.376182424,-13164169.376182424,-13164169.376182424,-13164169.376182426,-13164169.376182426,-13164169.376182426,-13164169.376182426,-13164169.376182428,-13164169.376182428,-13164169.376182428,-13164169.376182428,-13164169.37618243,-13164169.37618243,-13164169.37618243,-13164169.37618243,-13164169.376182431,-13164169.376182431,-13164169.376182431,-13164169.376182431,-13164169.376182431,-13164169.376182433,-13164169.376182433,-13164169.376182433,-13164169.376182433,-13164169.376182435,-13164169.376182435,-13164169.376182435,-13164169.376182435,-13164169.376182437,-13164169.376182437,-13164169.376182437,-13164169.376182437,-13164169.376182437,-13164169.376182439,-13164169.376182439,-13164169.376182439,-13164169.376182439,-13164169.37618244,-13164169.37618244,-13164169.37618244,-13164169.37618244,-13164169.376182443,-13164169.376182443,-13164169.376182443,-13164169.376182443,-13164169.376182443,-13164169.376182444,-13164169.376182444,-13164169.376182444,-13164169.376182444,-13164169.376182446,-13164169.376182446,-13164169.376182446,-13164169.376182446,-13164169.376182448,-13164169.376182448,-13164169.376182448,-13164169.376182448,-13164169.376182448,-13164169.37618245,-13164169.37618245,-13164169.37618245,-13164169.37618245,-13164169.376182452,-13164169.376182452,-13164169.376182452,-13164169.376182452,-13164169.376182454,-13164169.376182454,-13164169.376182454,-13164169.376182454,-13164169.376182454,-13164169.376182456,-13164169.376182456,-13164169.376182456,-13164169.376182456,-13164169.376182457,-13164169.376182457,-13164169.376182457,-13164169.376182457,-13164169.37618246,-13164169.37618246,-13164169.37618246,-13164169.37618246,-13164169.37618246,-13164169.376182461,-13164169.376182461,-13164169.376182461,-13164169.376182461,-13164169.376182463,-13164169.376182463,-13164169.376182463,-13164169.376182463,-13164169.376182465,-13164169.376182465,-13164169.376182465,-13164169.376182465,-13164169.376182465,-13164169.376182467,-13164169.376182467,-13164169.376182467,-13164169.376182467,-13164169.376182469,-13164169.376182469,-13164169.376182469,-13164169.376182469,-13164169.37618247,-13164169.37618247,-13164169.37618247,-13164169.37618247,-13164169.37618247,-13164169.376182472,-13164169.376182472,-13164169.376182472,-13164169.376182472,-13164169.376182474,-13164169.376182474,-13164169.376182474,-13164169.376182474,-13164169.376182476,-13164169.376182476,-13164169.376182476,-13164169.376182476,-13164169.376182476,-13164169.376182478,-13164169.376182478,-13164169.376182478,-13164169.376182478,-13164169.37618248,-13164169.37618248,-13164169.37618248,-13164169.37618248,-13164169.376182482,-13164169.376182482,-13164169.376182482,-13164169.376182482,-13164169.376182482,-13164169.376182484,-13164169.376182484,-13164169.376182484,-13164169.376182484,-13164169.376182485,-13164169.376182485,-13164169.376182485,-13164169.376182485,-13164169.376182487,-13164169.376182487,-13164169.376182487,-13164169.376182487,-13164169.376182487,-13164169.37618249,-13164169.37618249,-13164169.37618249,-13164169.37618249,-13164169.376182491,-13164169.376182491,-13164169.376182491,-13164169.376182491,-13164169.376182493,-13164169.376182493,-13164169.376182493,-13164169.376182493,-13164169.376182493,-13164169.376182495,-13164169.376182495,-13164169.376182495,-13164169.376182495,-13164169.376182497,-13164169.376182497,-13164169.376182497,-13164169.376182497,-13164169.376182497,-13164169.376182498,-13164169.376182498,-13164169.376182498,-13164169.376182498,-13164169.3761825,-13164169.3761825,-13164169.3761825,-13164169.3761825,-13164169.376182502,-13164169.376182502,-13164169.376182502,-13164169.376182502,-13164169.376182502,-13164169.376182504,-13164169.376182504,-13164169.376182504,-13164169.376182504,-13164169.376182506,-13164169.376182506,-13164169.376182506,-13164169.376182506,-13164169.376182506,-13164169.376182508,-13164169.376182508,-13164169.376182508,-13164169.376182508,-13164169.37618251,-13164169.37618251,-13164169.37618251,-13164169.37618251,-13164169.376182511,-13164169.376182511,-13164169.376182511,-13164169.376182511,-13164169.376182511,-13164169.376182513,-13164169.376182513,-13164169.376182513,-13164169.376182513,-13164169.376182515,-13164169.376182515,-13164169.376182515,-13164169.376182515,-13164169.376182517,-13164169.376182517,-13164169.376182517,-13164169.376182517,-13164169.376182517,-13164169.376182519,-13164169.376182519,-13164169.376182519,-13164169.376182519,-13164169.37618252,-13164169.37618252,-13164169.37618252,-13164169.37618252,-13164169.37618252,-13164169.376182523,-13164169.376182523,-13164169.376182523,-13164169.376182523,-13164169.376182524,-13164169.376182524,-13164169.376182524,-13164169.376182524,-13164169.376182526,-13164169.376182526,-13164169.376182526,-13164169.376182526,-13164169.376182526,-13164169.376182528,-13164169.376182528,-13164169.376182528,-13164169.376182528,-13164169.37618253,-13164169.37618253,-13164169.37618253,-13164169.37618253,-13164169.37618253,-13164169.376182532,-13164169.376182532,-13164169.376182532,-13164169.376182532,-13164169.376182534,-13164169.376182534,-13164169.376182534,-13164169.376182534,-13164169.376182534,-13164169.376182536,-13164169.376182536,-13164169.376182536,-13164169.376182536,-13164169.376182538,-13164169.376182538,-13164169.376182538,-13164169.376182538,-13164169.37618254,-13164169.37618254,-13164169.37618254,-13164169.37618254,-13164169.37618254,-13164169.376182541,-13164169.376182541,-13164169.376182541,-13164169.376182541,-13164169.376182543,-13164169.376182543,-13164169.376182543,-13164169.376182543,-13164169.376182543,-13164169.376182545,-13164169.376182545,-13164169.376182545,-13164169.376182545,-13164169.376182547,-13164169.376182547,-13164169.376182547,-13164169.376182547,-13164169.376182547,-13164169.376182549,-13164169.376182549,-13164169.376182549,-13164169.376182549,-13164169.37618255,-13164169.37618255,-13164169.37618255,-13164169.37618255,-13164169.376182552,-13164169.376182552,-13164169.376182552,-13164169.376182552,-13164169.376182552,-13164169.376182554,-13164169.376182554,-13164169.376182554,-13164169.376182554,-13164169.376182556,-13164169.376182556,-13164169.376182556,-13164169.376182556,-13164169.376182556,-13164169.376182558,-13164169.376182558,-13164169.376182558,-13164169.376182558,-13164169.37618256,-13164169.37618256,-13164169.37618256,-13164169.37618256,-13164169.37618256,-13164169.376182562,-13164169.376182562,-13164169.376182562,-13164169.376182562,-13164169.376182564,-13164169.376182564,-13164169.376182564,-13164169.376182564,-13164169.376182564,-13164169.376182565,-13164169.376182565,-13164169.376182565,-13164169.376182565,-13164169.376182567,-13164169.376182567,-13164169.376182567,-13164169.376182567,-13164169.37618257,-13164169.37618257,-13164169.37618257,-13164169.37618257,-13164169.37618257,-13164169.376182571,-13164169.376182571,-13164169.376182571,-13164169.376182571,-13164169.376182573,-13164169.376182573,-13164169.376182573,-13164169.376182573,-13164169.376182573,-13164169.376182575,-13164169.376182575,-13164169.376182575,-13164169.376182575,-13164169.376182577,-13164169.376182577,-13164169.376182577,-13164169.376182577,-13164169.376182577,-13164169.376182579,-13164169.376182579,-13164169.376182579,-13164169.376182579,-13164169.37618258,-13164169.37618258,-13164169.37618258,-13164169.37618258,-13164169.37618258,-13164169.376182582,-13164169.376182582,-13164169.376182582,-13164169.376182582,-13164169.376182584,-13164169.376182584,-13164169.376182584,-13164169.376182584,-13164169.376182705,-13164169.376182586,-13164169.376182586,-13164169.376182586,-13164169.376182586,-13164169.376182588,-13164169.376182588,-13164169.376182588,-13164169.376182588,-13164169.376182588,-13164169.37618259,-13164169.37618259,-13164169.37618259,-13164169.37618259,-13164169.376182592,-13164169.376182592,-13164169.376182592,-13164169.376182592,-13164169.376182592,-13164169.376182593,-13164169.376182593,-13164169.376182593,-13164169.376182593,-13164169.376182595,-13164169.376182595,-13164169.376182595,-13164169.376182595,-13164169.376182595,-13164169.376182597,-13164169.376182597,-13164169.376182597,-13164169.376182597,-13164169.376182599,-13164169.376182599,-13164169.376182599,-13164169.376182599,-13164169.376182599,-13164169.3761826,-13164169.3761826,-13164169.3761826,-13164169.3761826,-13164169.376182603,-13164169.376182603,-13164169.376182603,-13164169.376182603,-13164169.376182603,-13164169.376182605,-13164169.376182605,-13164169.376182605,-13164169.376182605,-13164169.376182606,-13164169.376182606,-13164169.376182606,-13164169.376182606,-13164169.376182606,-13164169.376182608,-13164169.376182608,-13164169.376182608,-13164169.376182608,-13164169.37618261,-13164169.37618261,-13164169.37618261,-13164169.37618261,-13164169.37618261,-13164169.376182612,-13164169.376182612,-13164169.376182612,-13164169.376182612,-13164169.376182614,-13164169.376182614,-13164169.376182614,-13164169.376182614,-13164169.376182614,-13164169.376182616,-13164169.376182616,-13164169.376182616,-13164169.376182616,-13164169.376182618,-13164169.376182618,-13164169.376182618,-13164169.376182618,-13164169.376182618,-13164169.37618262,-13164169.37618262,-13164169.37618262,-13164169.37618262,-13164169.376182621,-13164169.376182621,-13164169.376182621,-13164169.376182621,-13164169.376182621,-13164169.376182623,-13164169.376182623,-13164169.376182623,-13164169.376182623,-13164169.376182625,-13164169.376182625,-13164169.376182625,-13164169.376182625,-13164169.376182625,-13164169.376182627,-13164169.376182627,-13164169.376182627,-13164169.376182627,-13164169.376182629,-13164169.376182629,-13164169.376182629,-13164169.376182629,-13164169.376182629,-13164169.37618263,-13164169.37618263,-13164169.37618263,-13164169.37618263,-13164169.376182633,-13164169.376182633,-13164169.376182633,-13164169.376182633,-13164169.376182633,-13164169.376182634,-13164169.376182634,-13164169.376182634,-13164169.376182634,-13164169.376182636,-13164169.376182636,-13164169.376182636,-13164169.376182636,-13164169.376182636,-13164169.376182638,-13164169.376182638,-13164169.376182638,-13164169.376182638,-13164169.37618264,-13164169.37618264,-13164169.37618264,-13164169.37618264,-13164169.37618264,-13164169.376182642,-13164169.376182642,-13164169.376182642,-13164169.376182642,-13164169.376182644,-13164169.376182644,-13164169.376182644,-13164169.376182644,-13164169.376182644,-13164169.376182646,-13164169.376182646,-13164169.376182646,-13164169.376182646,-13164169.376182646,-13164169.376182647,-13164169.376182647,-13164169.376182647,-13164169.376182647,-13164169.37618265,-13164169.37618265,-13164169.37618265,-13164169.37618265,-13164169.37618265,-13164169.376182651,-13164169.376182651,-13164169.376182651,-13164169.376182651,-13164169.376182653,-13164169.376182653,-13164169.376182653,-13164169.376182653,-13164169.376182653,-13164169.376182655,-13164169.376182655,-13164169.376182655,-13164169.376182655,-13164169.376182657,-13164169.376182657,-13164169.376182657,-13164169.376182657,-13164169.376182657,-13164169.376182659,-13164169.376182659,-13164169.376182659,-13164169.376182659,-13164169.37618266,-13164169.37618266,-13164169.37618266,-13164169.37618266,-13164169.37618266,-13164169.376182662,-13164169.376182662,-13164169.376182662,-13164169.376182662,-13164169.376182662,-13164169.376182664,-13164169.376182664,-13164169.376182664,-13164169.376182664,-13164169.376182666,-13164169.376182666,-13164169.376182666,-13164169.376182666,-13164169.376182666,-13164169.376182668,-13164169.376182668,-13164169.376182668,-13164169.376182668,-13164169.37618267,-13164169.37618267,-13164169.37618267,-13164169.37618267,-13164169.37618267,-13164169.376182672,-13164169.376182672,-13164169.376182672,-13164169.376182672,-13164169.376182672,-13164169.376182673,-13164169.376182673,-13164169.376182673,-13164169.376182673,-13164169.376182675,-13164169.376182675,-13164169.376182675,-13164169.376182675,-13164169.376182675,-13164169.376182677,-13164169.376182677,-13164169.376182677,-13164169.376182677,-13164169.37618268,-13164169.37618268,-13164169.37618268,-13164169.37618268,-13164169.37618268,-13164169.376182681,-13164169.376182681,-13164169.376182681,-13164169.376182681,-13164169.376182683,-13164169.376182683,-13164169.376182683,-13164169.376182683,-13164169.376182683,-13164169.376182685,-13164169.376182685,-13164169.376182685,-13164169.376182685,-13164169.376182685,-13164169.376182687,-13164169.376182687,-13164169.376182687,-13164169.376182687,-13164169.376182688,-13164169.376182688,-13164169.376182688,-13164169.376182688,-13164169.376182688,-13164169.37618269,-13164169.37618269,-13164169.37618269,-13164169.37618269,-13164169.376182692,-13164169.376182692,-13164169.376182692,-13164169.376182692,-13164169.376182692,-13164169.376182694,-13164169.376182694,-13164169.376182694,-13164169.376182694,-13164169.376182694,-13164169.376182696,-13164169.376182696,-13164169.376182696,-13164169.376182696,-13164169.376182698,-13164169.376182698,-13164169.376182698,-13164169.376182698,-13164169.376182698,-13164169.3761827,-13164169.3761827,-13164169.3761827,-13164169.3761827,-13164169.3761827,-13164169.376182701,-13164169.376182701,-13164169.376182701,-13164169.376182701,-13164169.376182703,-13164169.376182703,-13164169.376182703,-13164169.376182703,-13164169.376182703,-13164169.376182705,-13164169.376182705,-13164169.376182705,-13164169.376182705,-13164169.376182707,-13164169.376182707,-13164169.376182707,-13164169.376182707,-13164169.376182707,-13164169.376182709,-13164169.376182709,-13164169.376182709,-13164169.376182709,-13164169.376182709,-13164169.37618271,-13164169.37618271,-13164169.37618271,-13164169.37618271,-13164169.376182713,-13164169.376182713,-13164169.376182713,-13164169.376182713,-13164169.376182713,-13164169.376182714,-13164169.376182714,-13164169.376182714,-13164169.376182714,-13164169.376182714,-13164169.376182716,-13164169.376182716,-13164169.376182716,-13164169.376182716,-13164169.376182718,-13164169.376182718,-13164169.376182718,-13164169.376182718,-13164169.376182718,-13164169.37618272,-13164169.37618272,-13164169.37618272,-13164169.37618272,-13164169.376182722,-13164169.376182722,-13164169.376182722,-13164169.376182722,-13164169.376182722,-13164169.376182724,-13164169.376182724,-13164169.376182724,-13164169.376182724,-13164169.376182724,-13164169.376182726,-13164169.376182726,-13164169.376182726,-13164169.376182726,-13164169.376182728,-13164169.376182728,-13164169.376182728,-13164169.376182728,-13164169.376182728,-13164169.37618273,-13164169.37618273,-13164169.37618273,-13164169.37618273,-13164169.37618273,-13164169.376182731,-13164169.376182731,-13164169.376182731,-13164169.376182731,-13164169.376182733,-13164169.376182733,-13164169.376182733,-13164169.376182733,-13164169.376182733,-13164169.376182735,-13164169.376182735,-13164169.376182735,-13164169.376182735,-13164169.376182735,-13164169.376182737,-13164169.376182737,-13164169.376182737,-13164169.376182737,-13164169.376182739,-13164169.376182739,-13164169.376182739,-13164169.376182739,-13164169.376182739,-13164169.37618274,-13164169.37618274,-13164169.37618274,-13164169.37618274,-13164169.37618274,-13164169.376182742,-13164169.376182742,-13164169.376182742,-13164169.376182742,-13164169.376182744,-13164169.376182744,-13164169.376182744,-13164169.376182744,-13164169.376182744,-13164169.376182746,-13164169.376182746,-13164169.376182746,-13164169.376182746,-13164169.376182746,-13164169.376182748,-13164169.376182748,-13164169.376182748,-13164169.376182748,-13164169.37618275,-13164169.37618275,-13164169.37618275,-13164169.37618275,-13164169.37618275,-13164169.376182752,-13164169.376182752,-13164169.376182752,-13164169.376182752,-13164169.376182752,-13164169.376182754,-13164169.376182754,-13164169.376182754,-13164169.376182754,-13164169.376182755,-13164169.376182755,-13164169.376182755,-13164169.376182755,-13164169.376182755,-13164169.376182757,-13164169.376182757,-13164169.376182757,-13164169.376182757,-13164169.376182757,-13164169.37618276,-13164169.37618276,-13164169.37618276,-13164169.37618276,-13164169.376182761,-13164169.376182761,-13164169.376182761,-13164169.376182761,-13164169.376182761,-13164169.376182763,-13164169.376182763,-13164169.376182763,-13164169.376182763,-13164169.376182763,-13164169.376182765,-13164169.376182765,-13164169.376182765,-13164169.376182765,-13164169.376182767,-13164169.376182767,-13164169.376182767,-13164169.376182767,-13164169.376182767,-13164169.376182768,-13164169.376182768,-13164169.376182768,-13164169.376182768,-13164169.376182768,-13164169.37618277,-13164169.37618277,-13164169.37618277,-13164169.37618277,-13164169.37618277,-13164169.376182772,-13164169.376182772,-13164169.376182772,-13164169.376182772,-13164169.376182774,-13164169.376182774,-13164169.376182774,-13164169.376182774,-13164169.376182774,-13164169.376182776,-13164169.376182776,-13164169.376182776,-13164169.376182776,-13164169.376182776,-13164169.376182778,-13164169.376182778,-13164169.376182778,-13164169.376182778,-13164169.37618278,-13164169.37618278,-13164169.37618278,-13164169.37618278,-13164169.37618278,-13164169.376182782,-13164169.376182782,-13164169.376182782,-13164169.376182782,-13164169.376182782,-13164169.376182783,-13164169.376182783,-13164169.376182783,-13164169.376182783,-13164169.376182783,-13164169.376182785,-13164169.376182785,-13164169.376182785,-13164169.376182785,-13164169.376182787,-13164169.376182787,-13164169.376182787,-13164169.376182787,-13164169.376182787,-13164169.376182789,-13164169.376182789,-13164169.376182789,-13164169.376182789,-13164169.376182789,-13164169.37618279,-13164169.37618279,-13164169.37618279,-13164169.37618279,-13164169.376182793,-13164169.376182793,-13164169.376182793,-13164169.376182793,-13164169.376182793,-13164169.376182795,-13164169.376182795,-13164169.376182795,-13164169.376182795,-13164169.376182795,-13164169.376182796,-13164169.376182796,-13164169.376182796,-13164169.376182796,-13164169.376182796,-13164169.376182798,-13164169.376182798,-13164169.376182798
