,0,1,2,3,4,5,6,7,8,9,10,11,12,13,14,15,16,17,18,19,20,21,22,23,24,25,26,27,28,29,30,31,32,33,34,35,36,37,38,39,40,41,42,43,44,45,46,47,48,49,50,51,52,53,54,55,56,57,58,59,60,61,62,63,64,65,66,67,68,69,70,71,72,73,74,75,76,77,78,79,80,81,82,83,84,85,86,87,88,89,90,91,92,93,94,95,96,97,98,99,100,101,102,103,104,105,106,107,108,109,110,111,112,113,114,115,116,117,118,119,120,121,122,123,124,125,126,127,128,129,130,131,132,133,134,135,136,137,138,139,140,141,142,143,144,145,146,147,148,149,150,151,152,153,154,155,156,157,158,159,160,161,162,163,164,165,166,167,168,169,170,171,172,173,174,175,176,177,178,179,180,181,182,183,184,185,186,187,188,189,190,191,192,193,194,195,196,197,198,199,200,201,202,203,204,205,206,207,208,209,210,211,212,213,214,215,216,217,218,219,220,221,222,223,224,225,226,227,228,229,230,231,232,233,234,235,236,237,238,239,240,241,242,243,244,245,246,247,248,249,250,251,252,253,254,255,256,257,258,259,260,261,262,263,264,265,266,267,268,269,270,271,272,273,274,275,276,277,278,279,280,281,282,283,284,285,286,287,288,289,290,291,292,293,294,295,296,297,298,299,300,301,302,303,304,305,306,307,308,309,310,311,312,313,314,315,316,317,318,319,320,321,322,323,324,325,326,327,328,329,330,331,332,333,334,335,336,337,338,339,340,341,342,343,344,345,346,347,348,349,350,351,352,353,354,355,356,357,358,359,360,361,362,363,364,365,366,367,368,369,370,371,372,373,374,375,376,377,378,379,380,381,382,383,384,385,386,387,388,389,390,391,392,393,394,395,396,397,398,399,400,401,402,403,404,405,406,407,408,409,410,411,412,413,414,415,416,417,418,419,420,421,422,423,424,425,426,427,428,429,430,431,432,433,434,435,436,437,438,439,440,441,442,443,444,445,446,447,448,449,450,451,452,453,454,455,456,457,458,459,460,461,462,463,464,465,466,467,468,469,470,471,472,473,474,475,476,477,478,479,480,481,482,483,484,485,486,487,488,489,490,491,492,493,494,495,496,497,498,499,500,501,502,503,504,505,506,507,508,509,510,511,512,513,514,515,516,517,518,519,520,521,522,523,524,525,526,527,528,529,530,531,532,533,534,535,536,537,538,539,540,541,542,543,544,545,546,547,548,549,550,551,552,553,554,555,556,557,558,559,560,561,562,563,564,565,566,567,568,569,570,571,572,573,574,575,576,577,578,579,580,581,582,583,584,585,586,587,588,589,590,591,592,593,594,595,596,597,598,599,600,601,602,603,604,605,606,607,608,609,610,611,612,613,614,615,616,617,618,619,620,621,622,623,624,625,626,627,628,629,630,631,632,633,634,635,636,637,638,639,640,641,642,643,644,645,646,647,648,649,650,651,652,653,654,655,656,657,658,659,660,661,662,663,664,665,666,667,668,669,670,671,672,673,674,675,676,677,678,679,680,681,682,683,684,685,686,687,688,689,690,691,692,693,694,695,696,697,698,699,700,701,702,703,704,705,706,707,708,709,710,711,712,713,714,715,716,717,718,719,720,721,722,723,724,725,726,727,728,729,730,731,732,733,734,735,736,737,738,739,740,741,742,743,744,745,746,747,748,749,750,751,752,753,754,755,756,757,758,759,760,761,762,763,764,765,766,767,768,769,770,771,772,773,774,775,776,777,778,779,780,781,782,783,784,785,786,787,788,789,790,791,792,793,794,795,796,797,798,799,800,801,802,803,804,805,806,807,808,809,810,811,812,813,814,815,816,817,818,819,820,821,822,823,824,825,826,827,828,829,830,831,832,833,834,835,836,837,838,839,840,841,842,843,844,845,846,847,848,849,850,851,852,853,854,855,856,857,858,859,860,861,862,863,864,865,866,867,868,869,870,871,872,873,874,875,876,877,878,879,880,881,882,883,884,885,886,887,888,889,890,891,892,893,894,895,896,897,898,899,900,901,902,903,904,905,906,907,908,909,910,911,912,913,914,915,916,917,918,919,920,921,922,923,924,925,926,927,928,929,930,931,932,933,934,935,936,937,938,939,940,941,942,943,944,945,946,947,948,949,950,951,952,953,954,955,956,957,958,959,960,961,962,963,964,965,966,967,968,969,970,971,972,973,974,975,976,977,978,979,980,981,982,983,984,985,986,987,988,989,990,991,992,993,994,995,996,997,998,999,1000,1001,1002,1003,1004,1005,1006,1007,1008,1009,1010,1011,1012,1013,1014,1015,1016,1017,1018,1019,1020,1021,1022,1023,1024,1025,1026,1027,1028,1029,1030,1031,1032,1033,1034,1035,1036,1037,1038,1039,1040,1041,1042,1043,1044,1045,1046,1047,1048,1049,1050,1051,1052,1053,1054,1055,1056,1057,1058,1059,1060,1061,1062,1063,1064,1065,1066,1067,1068,1069,1070,1071,1072,1073,1074
0,-4507.572908420376,-4454.675658176928,-4491.37409272602,-4531.478950433747,-5325.062702112899,-3949.2562906407734,-4543.402551141887,-3631.5289166960797,-4506.769391055918,-3317.0291310954362,-4691.120808135335,-4368.889092968809,-4436.100162523766,-4477.550964097373,-4355.518039370387,-4474.980492920046,-4486.369225798154,-4439.855291181222,-4004.5840467341777,-4486.006423398152,-4480.706604227976,-4516.072340456972,-3605.8766695038667,-4484.28188462038,-4466.93264820834,-3325.5552138903736,-4808.224159976364,-4469.970153730488,-4456.271782143298,-4765.744771979052,-4351.804553231796,-4623.529777568,-3981.897918339565,-3964.0041379469453,-5300.083494988738,-4548.399875029321,-3992.500576113923,-4471.467741469367,-4527.961516142118,-3788.3684817725775,-5154.999870528659,-4199.85444096236,-5310.29248071507,-4576.585273496057,-4459.454911547899,-5312.418334751853,-4514.064955027429,-4443.757020866498,-4449.392753010104,-4493.562392279259,-4527.8299211150215,-4450.931588955011,-4513.048629418102,-3328.507583904823,-4448.042148987171,-3313.1640191624083,-4814.727730827,-3979.439882396097,-4499.359659762068,-4442.66569603108,-4836.16719782185,-4539.55399501073,-4454.385843352078,-4501.026366095677,-5335.505066258546,-4470.729797080769,-4579.5653008524005,-4493.291345740524,-4430.435023951489,-3332.7135548569736,-3956.526433910314,-4472.01132821741,-4453.221334212214,-4369.345496067364,-4022.3791227427328,-4767.169791066196,-4474.781466583154,-4500.173053048091,-4501.22737089728,-3902.3715465762016,-3214.332555694824,-4510.449030229046,-3301.2539418059214,-4524.8408966119605,-4507.889873588204,-4465.687845794403,-4492.405794459362,-3217.181681106182,-3534.5623386344823,-4494.831500373614,-4387.077791069428,-4024.4573700480905,-4434.785023984138,-4467.834359189253,-5319.925196252724,-4475.0801659506815,-4493.6715595079195,-5018.814018754441,-4487.790484754573,-4471.395445300135,-5303.125180035516,-3980.985877969683,-4451.896396539602,-3896.2122903743725,-4481.536234046901,-3310.090526589491,-4758.8082429202095,-4496.975654589786,-4458.9144921883235,-5345.2289900514215,-4357.853185454021,-4600.944088551033,-5329.435396346273,-4519.415860603846,-4449.236145005957,-3989.988828894645,-4033.1122643357985,-4436.319008623926,-4472.298446992213,-3611.690570070127,-4458.925200975426,-4123.518112188734,-3957.4579717180895,-4492.525847539436,-4623.30991251679,-4553.244828427069,-5334.534631021586,-3319.4883755722876,-4499.179169474468,-5330.220827785925,-4588.975864574463,-4570.173440317886,-2994.668733308741,-4476.723710972947,-4471.211392241747,-4785.34771488671,-3907.3757465356925,-4863.118136278293,-4440.255864663305,-5129.11791990177,-3616.689088571421,-4453.465787279362,-4462.235090101087,-4024.428976416906,-4019.9950565428203,-4493.099467814305,-3996.4466668506866,-3002.739397507081,-4502.368597208509,-3571.898428850516,-5308.321869657102,-5274.834335169676,-4476.160481304613,-4457.559581542441,-5323.914967289734,-3318.299593577761,-4464.604007683652,-4497.324821305178,-4501.820796995482,-4449.33776266116,-4389.177092483717,-3958.9273780524836,-4513.809428256983,-4487.643333489623,-3988.4497669445554,-3317.562858163504,-4011.0089764022327,-4020.9912365049395,-4481.599952406362,-4501.962902635848,-3618.2590140194807,-4130.0563838488615,-4509.567535558913,-3597.7248245882333,-4474.826369454729,-4480.472481205481,-4800.131119275698,-5768.0280425470755,-3324.6172400310957,-3967.8708133104246,-4518.221372737996,-4477.968538220683,-2765.9843024000775,-3240.4927807633776,-4518.1918907710915,-4136.466719086406,-4469.882414258949,-5303.713445867267,-4465.821735113143,-3057.094102729178,-3624.3521146536236,-4513.665533717883,-4386.366717214135,-3957.32090514102,-4602.338018608064,-4518.292226562307,-4024.047392101072,-4569.4102667928055,-4621.725912272557,-3907.0842768652424,-4621.198107007277,-4467.37757614135,-4975.296898403053,-4503.426213126377,-4494.9557387109035,-3984.569107606126,-4048.3728850039392,-4493.564659306894,-4441.610802181258,-4087.923359159893,-4494.000795560392,-3308.58858792899,-3616.5091955893326,-5340.759971447772,-4503.778861523176,-4484.028732844763,-3602.99192045262,-5259.633172438121,-4450.759104743515,-4992.495782758413,-4503.963664212974,-4519.409233389624,-4539.541001192868,-4022.1949807758574,-4608.566907231727,-3969.65590855168,-4567.117963473984,-4496.3746825828275,-3003.5724496822068,-4822.4261177764,-4511.466118418643,-4035.286861998782,-3604.1753079617556,-4485.627438926096,-4449.365480690924,-4023.441487468017,-4489.744058326295,-3308.2387203361027,-4510.197651097992,-2770.3680667050826,-4458.7637284551565,-4144.396652197205,-4053.3791438072335,-3952.228186593953,-4529.570715748056,-4550.019396713884,-3619.5528521185893,-4464.700709012068,-4496.0085669845885,-4595.104981401084,-5335.26510153908,-4793.083544545733,-3049.4176403680785,-3049.207032142432,-2997.159041586971,-4476.676055656428,-4131.047309478754,-4527.2592417346905,-4776.125326113511,-4474.599467688121,-4137.757798585897,-3956.2814468903875,-4793.0917519484865,-4491.437212208875,-5801.459213422367,-4499.725706640763,-3610.382756541114,-3321.691035091947,-4551.165512091497,-4793.704584837228,-3330.466620561723,-4479.032406136986,-4800.469559376049,-4805.061388637993,-3320.3890130233567,-4533.526285723212,-3898.506499352914,-4462.429863461966,-4488.205635594311,-3624.0602619360166,-5241.844338921304,-4479.802791282076,-4494.510752572377,-5314.497531108714,-4351.097266765426,-3311.9106815728264,-4026.703440237848,-4716.729289588997,-4502.5153954592115,-4448.640004821696,-4807.697487689592,-4443.4344073504,-4487.112971309784,-4785.552271288185,-3323.7675770797455,-3313.943115793265,-2997.6940572174294,-3553.2786007995664,-4470.834396180341,-4503.980510236803,-3559.1183268437426,-4527.344562421997,-4515.278536875102,-3964.5174148690935,-4498.273016994283,-4440.753621601654,-3957.4789665666044,-4745.395948928174,-4447.825123672218,-4615.947938031143,-3976.8938779783048,-4024.2922274355924,-4499.418006545552,-3220.5809437863622,-4487.792541345516,-3318.701670776013,-4490.349385099752,-2771.5491264791362,-4454.498683092486,-4472.351633060067,-2772.3623133636643,-4491.208010220592,-4439.6941972704935,-4020.6524680125112,-4754.5551646480435,-5465.543160585218,-4776.424944674226,-4466.628269020628,-4517.948387954272,-2606.5894032923484,-4554.136787415412,-4453.82128711011,-3559.9109834201167,-4491.023964552316,-4575.819547562997,-4497.701995746418,-4757.518482707324,-4575.044521090943,-4482.240100669159,-3992.7573474103588,-4515.7627681999365,-4377.185470610841,-3990.609035186664,-3326.553925115927,-5569.006624306375,-4799.224335560598,-4517.869073275403,-3323.0458815101124,-4792.165016629705,-4493.793481606329,-4153.59411964523,-4565.980446013017,-4820.701466534298,-4518.666849262851,-5061.532880102369,-3988.9817701232364,-5783.914536396327,-4502.148670790975,-4862.250004524784,-4571.18248928594,-4514.948087039959,-3245.773530791597,-3959.214630046253,-4491.235374790967,-4497.905507784309,-4435.301265966722,-3326.902486917684,-4458.087945426041,-3319.8619791310275,-3913.9021262869583,-4501.003636407785,-4584.194836916035,-3974.203764269064,-3002.9839232465506,-4462.090344719204,-4447.234665939433,-4030.850797948715,-3615.194576246008,-4504.51426691146,-4460.983002790251,-5349.696930117754,-4620.542733598179,-4580.39442007775,-4034.5351964422066,-4502.20668800767,-4581.047910121213,-3337.76195629767,-4559.628347588077,-3321.7093307569467,-4592.160782051431,-3248.3771949074417,-4474.531610988479,-5856.672965791465,-3564.7169970759546,-5529.253959697585,-4146.443534399209,-4040.421994782604,-4484.257691449588,-4456.662617299307,-4038.3707271306316,-4532.718331953125,-4502.279341805678,-4517.589893881237,-3986.623759353971,-5062.175307553541,-4556.828048910202,-3984.5266103175195,-4511.2396197318285,-4506.106781184062,-4539.597201769168,-5309.162320912035,-4458.651630574367,-4171.828909141676,-3991.6040599422345,-3958.021480235142,-4510.365139239983,-3960.727541933814,-4020.169949323864,-4518.691623570344,-4093.8006297049956,-3552.650516572297,-4934.178907749549,-4530.066770048584,-4304.3013354371205,-5617.704851348259,-4511.769815234065,-3324.062054905294,-4028.638332279625,-3564.457372048305,-4578.506894411891,-4450.113453649446,-3064.3060206280056,-4464.291905955805,-3990.6606575798583,-4756.772264842557,-4524.1661575874305,-3064.6270398014503,-4501.224008025572,-4093.3919475677917,-4844.4779678639625,-4485.876957308281,-3319.803725644781,-5014.418983276565,-3003.3649150489628,-4448.980355824432,-5029.4069206423665,-5007.7816920996265,-4590.341429730087,-2611.438600788672,-4511.1596894654185,-5065.08833305827,-4498.879113031218,-5572.808785432079,-4097.877630628111,-4576.938996176233,-4450.480040700096,-3007.1481179153693,-4494.942404458239,-3065.4597209445883,-4494.722808920377,-3984.3755922535474,-4445.523564858594,-4067.9244214748624,-2609.099673320609,-3600.1799142889818,-3324.6621743687665,-4476.053689528351,-3242.1204686624915,-4463.935986870448,-4438.142180312641,-4544.549403510901,-4046.1180055602026,-4509.497100583931,-3317.4044178692607,-3002.241436330591,-4085.1205390887635,-4513.811419056839,-4511.4215233917075,-4353.745195006931,-4504.586509845034,-4458.030694849196,-4092.2559326873106,-4526.962774026758,-3331.0364455155905,-3343.210450782582,-3941.796389463376,-4447.968231797982,-4072.7126380447417,-3939.157289833823,-4472.312171138512,-4173.0334468877,-3254.0563527263553,-5790.193556115169,-5074.334238617626,-3011.7752433285823,-4484.3809700343745,-4500.775969149237,-4457.359547618809,-4002.437154531447,-4452.308535132319,-4453.4462730645955,-4047.4099727239545,-3969.591315114207,-4482.304499049092,-4478.816601388936,-4835.55261728552,-4531.965326124882,-4492.823158548783,-3996.7006032814606,-4484.418340479016,-3324.575986936124,-4025.6575341584125,-3976.1351847170813,-4506.0662864079895,-4514.982793496014,-3908.3177617994256,-4761.290769269057,-4441.778398603606,-4471.497502182336,-4102.340045681725,-4518.214122347491,-4483.844106158166,-4042.272810547679,-4510.699962833342,-4597.034424654887,-4025.3611545920335,-3967.561197385775,-4459.482703326468,-4504.66246764534,-4804.506951079027,-3330.9090779989224,-4560.725768946368,-4035.5848749871157,-3964.1141090257634,-4561.26098793954,-4459.681767745845,-4771.594119100158,-4595.58945422002,-4473.486920527407,-3343.7173834496894,-5650.073388236077,-4528.757662626224,-3344.5403389392036,-4498.432881199157,-4488.070547824368,-3575.963473854188,-4176.889125446005,-4025.8874612514933,-4589.09572316513,-4463.187274338374,-4013.4942535876153,-4473.258072870793,-4472.211435082344,-3588.415448485363,-4506.586796083542,-4190.091032776813,-4112.827220965736,-4473.359057331796,-4501.251213256143,-4516.949897036004,-4537.912046223322,-4497.800147381863,-4182.384231770852,-2616.108681067626,-5658.571683683018,-4538.896584805623,-3337.85504267273,-4518.591831214235,-5496.451215870973,-3014.8450623155154,-5453.2645892066785,-4511.248730297903,-4106.407809296023,-4606.519170026099,-3329.8006218928817,-4030.9253260171,-4200.257690402494,-3988.1034983992276,-3972.3220876376604,-4478.990441913767,-4570.358169725452,-4538.518317034615,-4493.602164282222,-3010.3695862329664,-3956.044212049545,-3320.9467354919016,-3929.46087856036,-4498.756405505911,-4508.836782563614,-2814.571270386984,-3082.9031569508784,-4100.073285529312,-4516.474212302546,-4167.54498768578,-3592.0572216824244,-4519.7882863074865,-2817.1535981286047,-5593.619118334051,-4040.9076757753614,-4512.834424452063,-4583.92457560111,-2616.573556783072,-4532.046602891482,-3064.235752193258,-4548.558439207992,-4027.020789853591,-4512.494343907504,-4473.471780729694,-4036.0656873757107,-4534.484784449037,-4482.850488437451,-3014.243351963882,-3012.704318278327,-4510.263377706519,-4503.4710845901,-4046.7404632616717,-4176.866262303107,-4462.038047274383,-4891.5517308209955,-3329.4436644397197,-4522.88375109318,-3258.256542266867,-4531.6474872208,-4531.550089355752,-3999.196438279154,-4187.875412354052,-4018.311728852188,-4542.868456849161,-4458.959130389614,-3576.0242954348446,-4584.455409471285,-2817.829744063253,-4095.4809024346755,-3955.059621872007,-4164.585750612456,-5457.389236529115,-4040.791887025288,-5526.399326828039,-3339.710497660063,-4490.038507226906,-4564.259195942807,-5182.16293649103,-4096.293609957649,-4500.3961064913965,-5677.42001372048,-4040.4855768398993,-4545.109658549397,-3329.5685680428583,-4100.49164745039,-4050.0757455290673,-4514.017913121605,-5616.318612155909,-4015.2150306094863,-4478.868754322745,-4181.539774106349,-4032.9380982813927,-4527.114754797841,-3069.4654438967236,-3577.8257349199757,-5138.195952600358,-3332.7308152549444,-4840.953539168259,-3069.9957340924225,-3789.4755449434724,-3013.8921589594206,-5070.368363694714,-4556.857919831646,-2620.76613475784,-4507.703023331221,-5445.0704348030695,-4106.3751378668085,-5055.16989584351,-4499.939547376092,-2994.0119788834572,-4538.014557478905,-4517.765665513968,-3593.569109157402,-4500.254091508394,-3322.845914708351,-3015.5238439595464,-3070.3546866765073,-4201.461496610888,-4782.776220964254,-4459.6399444732815,-4090.2597153708807,-4553.410108212187,-4513.49869462356,-4487.856576856079,-4065.121013401938,-4639.843781200682,-3966.4676937348904,-4174.225879103732,-4482.207236463048,-5462.9366436609525,-5628.200012069115,-3014.580367268002,-4516.1671880162485,-4504.5385853308,-4109.71936958241,-4500.019612789172,-4524.4200213352005,-3570.888588797163,-3336.6644293343015,-4513.252742127546,-4524.781649446752,-4045.6950767280355,-5483.03670156699,-4019.9106317643677,-3972.5780362628097,-2827.254719699516,-3983.2193483104243,-4554.532689633799,-3750.92790918264,-3016.992464142543,-3331.3372179482208,-4561.733645980466,-4032.181501219094,-4536.489133381719,-4188.819749687461,-4018.2734111441537,-3074.719526296392,-4495.96924432532,-4043.7639869845398,-4167.219199342699,-4567.012321137823,-3338.8202928556143,-3010.5624911506593,-5536.418772158414,-4542.540335283947,-4034.4923501702137,-4584.28740028541,-4476.97375927699,-4001.3738831917126,-4511.215210300609,-4489.8283750832925,-3586.683527163128,-4483.744920747453,-4563.195728880146,-4579.292987317798,-4034.14112199737,-3792.752083134996,-4526.554311653257,-4579.855217539105,-4558.157925375499,-3338.7953511555484,-3341.125643971364,-4467.711118320829,-4542.880747805557,-3256.269921714608,-4468.865443912874,-4500.514215025796,-4550.2716568480555,-3969.8979571130326,-3320.5467045682412,-4098.386682847632,-3338.4837308827796,-4529.5784742344795,-3354.6197027710127,-3968.1902432551838,-3326.596647605973,-4525.752498101078,-3594.874249135301,-4530.569616174658,-4191.684006024066,-3588.7133850889086,-4590.516425558224,-4481.166533008429,-4032.267665601635,-4566.291071633108,-4203.952805961813,-4530.2997816632505,-4527.790948231802,-4480.70072801075,-3020.0864908131575,-4504.848367110677,-5431.756659242483,-4510.748877504679,-4025.739893985526,-4578.337411632934,-3267.8890876617766,-4638.391378530753,-4517.3379903723435,-4740.318101235966,-4159.646778936898,-4461.533969408462,-4505.499248992165,-4471.900197445096,-4603.450267599459,-3357.5973201851084,-4485.821123846309,-5496.297093264556,-5481.219701325526,-3981.699353313529,-4574.00670771211,-4577.267272918803,-4592.803445828037,-3017.132532241016,-4506.802993121432,-4555.1962093349,-4094.30675629246,-4491.999696888441,-4499.325797881763,-3605.1078728615926,-3967.053359257139,-4444.221694505097,-4527.563129118514,-2626.5077990555365,-4011.0985220242833,-4180.461619006165,-4547.941458830851,-4049.0176991469316,-5383.1485232248915,-3323.50612425788,-4008.632481382149,-4834.840965934864,-3323.19861827944,-3328.0769384154455,-4000.3709516986546,-4480.735066168577,-4479.198937956944,-3336.5895721591023,-3575.3407016408246,-3074.665293366013,-4466.277102202531,-2628.262993955063,-4183.312578023691,-2817.9014321011086,-3354.2741839191717,-3911.179813548615,-5586.460605525193,-5074.249082887612,-4546.511973822014,-4519.095998411982,-4467.8490611613815,-3348.743318842254,-4475.993534237918,-4476.327079594286,-4028.2126195822475,-4022.8247041011223,-4199.265470076063,-3257.5816286417457,-5417.880205058626,-4558.959418008862,-4102.261745255338,-5842.994625806153,-5564.544730921089,-3021.985048836882,-4564.420485171248,-5389.657021272124,-3349.247673330173,-3971.5736939527233,-3322.5347614817097,-5390.441542323904,-4100.500548885967,-3074.865364762405,-4195.132704547789,-4480.215192808312,-3350.4244260109326,-3347.406180250046,-4502.345875597299,-5537.53076505488,-5489.200935689609,-3352.5191850296173,-4574.364483950477,-4528.613524804303,-4000.4887242406967,-4465.719028682025,-5547.739118368288,-3018.7451688144824,-4055.8153008979825,-4509.18934618956,-4457.056736548524,-4033.096414956563,-2999.0338645437123,-4513.615646699012,-4479.973187982259,-4038.729260456651,-4001.347428948389,-4476.330433893217,-4571.221319051292,-4039.5096681855266,-3583.0183817555126,-4187.546300265183,-4034.4241960356007,-4580.665544709364,-4577.70466051539,-2630.2389624087,-5577.265006612798,-4509.906009813223,-4003.5418164838284,-4567.102720640193,-4503.872702004668,-4101.08190865509,-4567.503468589034,-5081.186087736573,-5082.160431196915,-4112.094079379177,-3322.6816240636417,-4530.195958729961,-4012.327937144592,-5414.261527034901,-4204.068773834263,-4534.72521969225,-4539.547804079821,-4498.753208006674,-3990.4496506816836,-4178.875756376594,-4570.588289370711,-4047.992178554115,-4536.318590967078,-4195.766847056279,-4041.2956680327707,-5493.4746523898475,-5397.150357218838,-4040.689125514794,-4091.7932494995853,-4195.158063655679,-4038.297814210808,-4830.230496926984,-4547.819215239843,-4581.298155204445,-3602.235820447271,-3328.748406260536,-4554.22619596324,-4114.823047708108,-4484.225363210163,-5738.713181699782,-3351.9300153447684,-3268.1828370462413,-5680.9035792147315,-5078.091142587108,-4029.739973894298,-4193.1869092056695,-4566.802290295575,-4025.8010561121155,-5621.289270598269,-3020.5637153517437,-4004.9603902922017,-4494.868247873573,-4092.4521372251816,-3595.5914719047123,-3018.466545879447,-4475.802342624297,-5516.721297991973,-4391.204178365599,-4016.200484307452,-3690.199614102667,-4032.4403525594703,-4004.9107555284454,-5579.113777981165,-4563.149760536699,-4021.2094097115896,-4024.585320172106,-4465.332624117224,-3343.8364121381555,-4004.806158696971,-4500.787376761652,-4513.796331173,-3022.5376679739,-4100.917026691367,-4190.234266977802,-5419.055190356486,-4589.2166518513295,-5401.111567866518,-5592.759310336119,-4479.553494381831,-3610.4105819974084,-4521.328764509154,-5545.918688336215,-3021.9270312511817,-2803.445278467266,-4553.889548860106,-4457.224960037883,-3991.2044482812557,-4747.901559059326,-4508.318629948514,-4476.459288648281,-4115.018016365395,-4096.40886880389,-4492.626642859728,-4522.39001563886,-3608.2275047757967,-4485.602697347989,-4463.3823707866695,-4025.994662373181,-4470.756740231218,-4197.827010174794,-4066.811697896472,-4514.298134687058,-5106.532281642052,-4573.265465999164,-4014.558850659855,-4512.433150390942,-4464.8880668756565,-5491.279628837996,-3584.104502651867,-4474.786853986671,-4463.752025893461,-3586.0208211256327,-4573.577405126311,-5105.195886683624,-3359.6601390193678,-4035.583428716527,-4166.69702362101,-3990.0239303805242,-4524.472342028617,-4470.99625143186,-4050.329399321341,-3569.4701712697342,-3542.5373249358768,-4457.356362029295,-4481.578185381438,-4051.0685749061886,-3611.816631995912,-3983.9253932307206,-2826.992136349806,-3333.9621992926745,-4523.531813698379,-3384.8817630593066,-4054.1877797527736,-5635.226107269331,-4489.164719330073,-3359.1584026860064,-4031.6792216416393,-4527.716989474201,-5542.955929394596,-4119.137002793711,-4193.957198354028,-4560.587781331298,-4044.6546995890153,-3007.2194561426086,-3326.706474613563,-5508.646061931859,-4954.482514175131,-4093.485511321618,-4548.49810788983,-4538.526417252562,-3359.323975641795,-4033.3802606599165,-5585.9644795861295,-4477.048058779332,-3349.3034551015394,-4051.455481292273,-3328.90163418359,-5490.428805590232,-4009.9773244152093,-4475.71821561484,-4478.926874280818,-4035.0334989236926,-4060.9970443139314,-4469.5793908251035,-4509.8551605623625,-5154.72070603564,-4515.3567628070805,-4735.206394193426,-4563.131043119598,-4570.634143818596,-3621.5865735934867,-4521.54801902286,-5338.621437307565,-4120.524054191296,-4044.642047653708,-4177.95738718765,-3596.051305749051,-3341.115233358926,-4537.468782270198,-4553.735762645786,-3589.672951532299,-5454.6286969236335,-4490.5008441534355,-3347.6151121018106,-4553.235302590694,-4515.031404617408,-4118.2806693378825,-5141.22892898206
1,336.37377514046744,336.37395020181424,336.3737894656334,336.3738600648552,334.3716549589535,337.374963694524,336.373906029051,338.3761958932178,336.37382030475214,339.37722599702533,335.3728953200046,336.37377081082394,336.37378439650496,336.3737879798391,336.37378037133567,336.3739101877731,336.3738505279415,336.3737793164901,337.3748905272252,336.3737807751228,336.3740248117135,336.3737511930854,338.37619412026527,336.37376742532024,336.3738522797478,339.3771793242161,335.37276882506546,336.37398242734014,336.3740668421434,335.3727529699877,336.3737504089268,336.37393610524936,337.37488314893454,337.3748795408547,335.3727678089653,336.37390539028803,337.3749726659662,336.37413293359504,336.37379506651973,337.3749521323106,334.37157541423755,336.37376629170785,334.3717023236281,336.37378733892143,336.3737692433539,334.37154956331597,336.3738619043864,336.3738102125786,336.37387716355573,336.3738044799366,336.3737502186812,336.3737828938898,336.37409661735416,339.3771809579182,336.3739229632672,339.37742441952685,335.3728426604253,337.3749403323295,336.37380595252637,336.37395642604173,335.3728395111153,336.37382598032775,336.3738284975841,336.37386147601546,334.37167041918445,336.3739906686991,336.3737589069631,336.37381472190845,336.37378520668403,339.3773066132149,337.37497293616,336.37387898428517,336.3738719125894,336.3737804899843,337.37499818729646,335.37265379479055,336.37374955544567,336.37392689002024,336.3737769760895,337.3748798616586,339.3773074533789,336.37391011974427,339.37708775810887,336.3738533102867,336.37385896942254,336.3738230715729,336.37391130522775,339.37710988357736,338.3762800749575,336.373872643961,336.37389693665233,337.37497927088907,336.3739050809551,336.3738548403772,334.37170189862906,336.37376267833486,336.3739011988402,335.3726979020328,336.37390171570246,336.3738616152728,334.3715720837884,337.3748683407023,336.3738003246227,337.37494038360904,336.3738624439324,339.37725843861256,335.3727013004016,336.37384394764354,336.3738606899151,334.37155442860416,336.37379703242124,336.37384662112527,334.37157201805655,336.37392967603864,336.37379725357823,337.3749726315657,337.3750483971627,336.3737864295743,336.3738720249599,338.3760960926345,336.3738443093457,337.3749904859077,337.37489048765065,336.3738012098909,336.3738329571305,336.37377741200436,334.37166556648987,339.37710537307953,336.3740282241723,334.3715457022982,336.3737753696232,336.37379520160044,340.3783025682097,336.3738907195953,336.37399337003484,335.3726733760164,337.374899773292,335.37265794539314,336.3737639529461,335.3726438323488,338.3761690943407,336.3740502918967,336.3737869100588,337.3749591015951,337.3748875393936,336.37381352279107,337.37492841509237,340.3782699206451,336.3737964541226,338.3759811823903,334.3715531601754,334.371592079738,336.3738108663997,336.37394333284425,334.37155068130465,339.37730556100064,336.37399067352175,336.3739055156803,336.3739265903178,336.3737962798193,336.37390816268714,337.37515011149026,336.37383146114956,336.3740032925018,337.3749887209323,339.37711761393393,337.3750576336378,337.37492772232605,336.37391912406935,336.37381660252936,338.3760826369362,337.37493141643773,336.3739677608279,338.37599654815546,336.3739535892188,336.373840353383,335.3727374377685,335.3726539607575,339.3773330472186,337.37490157982705,336.3738167484995,336.3737558991878,341.37952268500425,339.37748670106714,336.37387142269745,337.37510285671385,336.3738207628771,334.3718272661941,336.37398498119535,340.37841061607566,338.37602073088493,336.373884484166,336.37379399510434,337.3748971385583,336.373770737849,336.3737864276673,337.3751093527715,336.3740133341209,336.37388887505034,337.3750367690408,336.3737784219902,336.37384249813044,335.3727725210266,336.37376081475344,336.37382229904733,337.3748912109105,337.3751910458987,336.37401052149346,336.37376889186265,337.3748865220447,336.37376121357335,339.37710425737293,338.37597454994466,334.3715576303919,336.3739729255114,336.37377953157323,338.376372769446,334.3716095834882,336.37393471828403,335.37270988414593,336.3738645501894,336.37376590304115,336.374007360627,337.37493181614866,336.37379922883724,337.3749615017256,336.3737755659947,336.37394741378284,340.3783541334229,335.37281970200024,336.3738099849952,337.37525894427455,338.3760304670575,336.3738701778206,336.37386833528046,337.3749817279573,336.3738063226728,339.37715395231555,336.37387600374103,341.37997189588776,336.37390334453244,337.37506211546315,337.37497124958986,337.3750199877521,336.3737743029235,336.37380805226223,338.3760674679167,336.37377230292566,336.3739138282475,336.3739312844467,334.37170298837214,335.37272833771294,340.3782049916498,340.3785755551338,340.3786128650379,336.373857643471,337.37525027843,336.3737895000058,335.3727479245239,336.3737490893448,337.37498850459536,337.3748836262834,335.37279072466686,336.37382414407125,335.37265595908946,336.37417722102384,338.37603857232165,339.3772466582824,336.3737506397036,335.372694522243,339.3770915572088,336.3737638641544,335.37276022234704,335.3728901418344,339.37723252355056,336.3738022270915,337.3750745615487,336.3738503971203,336.373815994543,338.37628868221753,334.3715628644115,336.3738192521094,336.37381641857166,334.37158353713716,336.37384330710375,339.3773648085579,337.3749797641024,335.3727858777997,336.37380244057596,336.3738674933043,335.3726687114164,336.37395547905487,336.3740081619152,335.37265361078585,339.3771156955344,339.37710537330935,340.3786015229708,338.376015514776,336.373777193052,336.3738783470018,338.3762083477336,336.37375481778815,336.3739390222011,337.3749816162348,336.37385596099455,336.37377618518747,337.3749378044437,335.37267392482505,336.3738346758951,336.3737961871264,337.3750785208404,337.3748990764191,336.3737797427503,339.37722482493547,336.37375432417883,339.37715862088373,336.37380585319863,341.37938424678737,336.37397048100974,336.3740020178089,341.37941403157754,336.3737594460005,336.37385053005636,337.3749617215968,335.37288389221845,335.3728506383031,335.3726953773242,336.373867016482,336.3739402040042,342.3807344895671,336.37387545126364,336.3737526221337,338.3761141213236,336.3739603071194,336.37392333810953,336.37385541581506,335.37264560457777,336.3737644629603,336.3738010410306,337.37500412150644,336.37378775503726,336.373836879692,337.37496578274533,339.3772366736001,335.372714126012,335.3726610385683,336.37392357837143,339.37708700089104,335.3727015391616,336.3738210906563,337.37510371629907,336.37394976046505,335.37278243904245,336.37377129545536,336.3738036199415,337.3748633699828,335.3727115528884,336.37378379268426,335.3727059713977,336.3738126118152,336.37382253718334,339.3772787004549,337.37507345552245,336.3739542624978,336.37398230063746,336.37393375688225,339.3772461353053,336.3738496299376,339.37713430955466,337.3749407879138,336.3737906518791,336.37383274858297,337.3751559312728,340.3782575824174,336.3737495971942,336.3738182112117,337.37492586581504,338.3760151778739,336.37384344103464,336.3737666733188,334.3715771181793,336.3737872387154,336.3739388279173,337.37496034469376,336.37385015578275,336.3738394899519,339.37771707061836,336.373823786606,339.37719459537686,336.37389605659973,339.3773044752735,336.3737945903418,335.372640957256,338.37608111110853,335.3726671734447,337.3749667101923,337.3749498566794,336.3737888549423,336.3738328563701,337.37497458959365,336.37406003053184,336.3738420401071,336.37377317573083,337.37495024377375,336.3738305716302,336.3739079059479,337.37493863708556,336.37395702983497,336.37389767281394,336.3739824187326,334.37160317622624,336.3738805577357,337.3749090535875,337.375189933747,337.3750257959339,336.37378742061213,337.3749104272202,337.3749218412209,336.37380774236135,337.37516110899026,338.3760116999314,334.3716274442583,335.37279960923615,336.3738393872139,335.3726434086693,336.3738610294825,339.37711460411344,337.3749455282653,338.3763899333666,336.3737695014169,336.37378538873156,340.3782178442104,336.3737985907719,337.37491579108473,335.37271102777163,336.37377192949936,340.37835323537547,336.37380933711665,337.37522509654445,335.372875870211,336.3738540936395,339.37734373683713,336.3738647703516,340.3783204072708,336.3739382214823,336.3738978744812,336.3737767821637,336.37383143710326,342.3804239441586,336.3738379737861,335.3727032859626,336.3738560065117,335.3727236475872,337.3749892339608,336.37381809018467,336.3738727251142,340.37822416681456,336.37378978128146,340.3783892744958,336.37393193624564,337.3750670331876,336.3737525494525,338.37603964330094,342.38068071869793,338.3761222096367,339.3771316744144,336.3739159624933,339.37712249115293,336.37378585538136,336.37375963387666,336.3739357407122,337.37497332840195,336.3740093348843,339.37714720232344,340.37835756268214,337.37522913183057,336.3740343097863,336.3740559004036,336.3738889727438,336.37381981587504,336.37375161951746,337.374886503043,336.3741238266672,339.37727291168414,339.37708900790216,337.3750496716432,336.3739185219907,337.3748994905539,337.37490257890823,336.3737537670183,337.37496509897284,339.3771503614867,335.37266223318875,336.3738510731006,340.3782562585888,336.3737529873143,336.3739649631153,336.37383098157966,337.3749241908304,336.3739823387589,336.37378370524897,337.37494521985667,337.37494710913774,336.37378360847333,336.37380666510893,335.37275830073236,336.3738438940269,336.3737549690755,337.37488713210735,336.37409936671133,339.3770872794067,337.3748782052261,337.3748893794398,336.3737945845091,336.3738570074075,337.37492634833086,335.37271924519985,336.3739386890139,336.37390516519866,337.37493007286173,336.3739201098994,336.37413345843294,337.375188476845,336.3737991768628,336.3737966336362,337.37500634990704,337.37505588696376,336.37380535528547,336.3740160052325,335.3726599420904,339.37722089634053,336.3739148875641,337.3748841464022,337.37487246256836,336.37386446196655,336.37381129193744,335.37275915214417,336.37393135611256,336.3738339828867,339.3771322249728,335.3726676038044,336.3739610395063,339.3771147179662,336.3740348029585,336.37379434753376,338.37623015760084,337.3748903613827,337.37492185952834,336.37381356813506,336.37391054664164,337.37491989271626,336.3737959134109,336.3739135356237,338.376047718401,336.3737818170629,337.3750857678184,337.3752909298004,336.37378007683185,336.37382548741914,336.3738878585878,336.3738120305456,336.3739311383403,337.37501399377635,342.38058996238266,335.37265844939213,336.37378668394746,339.37720487262084,336.37381579371777,335.3727520318668,340.3784420151151,335.3727991227876,336.3738067167881,337.37488715144764,336.37412177492143,339.37720291512085,337.3751178731052,337.37520345106054,337.374933153346,337.37499708965566,336.3738155321662,336.37399778464265,336.37384371978567,336.3738046892873,340.3785268760597,337.37535785265885,339.37721197803364,337.3750340936472,336.37387662858714,336.37387152092566,341.37946082418523,340.3788454088784,337.37509472205545,336.37375015708346,337.3748812438504,338.37606608348864,336.37400976359305,341.37932338988566,335.3726439726516,337.37492409056586,336.37385501023465,336.3738027072068,342.38060315460825,336.37377401254713,340.3782996968377,336.37379417561084,337.374899181909,336.37386275735827,336.3737493389648,337.37498574758416,336.3737518742453,336.37378124759977,340.37824967122265,340.3784114142381,336.3738846820902,336.37385863978056,337.3751073729928,337.3752149798624,336.37380475932264,335.3727329049363,339.37739737027823,336.37375320847264,339.377697345878,336.37380453829496,336.37380973925656,337.37490522787766,337.3750956040603,337.3748765539748,336.3739085789842,336.3739053499868,338.37603512691135,336.3737595180376,341.37965373462436,337.3749756938521,337.3749388386383,337.374896390832,335.37280735078906,337.3750942295787,335.37270923832216,339.37754081392154,336.37376304730526,336.3737544921147,335.3726867253987,337.3749379206177,336.3737817332225,335.37275223608776,337.3750094375513,336.3737567913012,339.3770973798142,337.3749449295704,337.37490574688235,336.37382842917646,335.3727631266555,337.3748955890258,336.3739410128282,337.37487227336686,337.37508746710637,336.37380799232847,340.37822498593766,338.3762368786048,335.3728386757423,339.3773192048528,335.3728187577632,340.3784448515775,338.3761133764452,340.37882920846147,336.3738834349867,336.3739296740898,342.3805698168241,336.373800884617,335.37265135975815,337.37511012024083,336.373752093144,336.37404657480266,340.3782522758209,336.3739564232514,336.37381127548247,338.37622743788563,336.37377712287747,339.3775451550922,340.37840862988116,340.37870903543467,337.37489551731625,335.3726398884414,336.3739045998023,337.3748717991909,336.3737536257849,336.3738410222051,336.3737690306146,337.37501452179225,335.3727826566554,337.37494767712997,337.3750055685953,336.37393151918224,335.3727130365241,335.372761587924,340.37845946597,336.37378157256137,336.37375398320063,337.3750082182658,336.37378345342245,336.37383855593094,338.37616038747893,339.37723546129126,336.37399972993546,336.3737845260799,337.3749789006037,335.37268235585884,337.3748985969142,337.37486778699713,341.3794355241954,337.37490534998784,336.3738839453502,338.37605605772546,340.37840959765754,339.3773212190301,336.3738227576732,337.37491521147706,336.37375590761866,337.37489485713706,337.3749863089156,340.37835353271544,336.3737991807343,337.3751313000623,337.3750837819889,336.3737774479135,339.3771818788301,340.3785921399506,335.3726747440923,336.37384534409154,337.37511617771366,336.3737869811852,336.3737581832721,337.37488679338196,336.3739130222033,336.3738029263007,338.3759810153055,336.37383918377594,336.3738265352382,336.3738610934506,337.3749163231632,338.3759739063742,336.3738547272828,336.37379372241924,336.3739200183293,339.37741449284374,339.3771582430653,336.37380972869624,336.37375159258477,339.3771879957522,336.3738870503964,336.37388344250377,336.3737868508898,337.37486301929476,339.3770974583402,337.37502725305234,339.37715696681056,336.37393778145497,339.37722165082994,337.3751347033687,339.37723851464574,336.37379073691466,338.37599413240144,336.3737813559735,337.37491586296557,338.3764219371756,336.37386549933774,336.3737826036644,337.3748708817811,336.3738325128337,337.3749632598051,336.37416620144876,336.373839342236,336.37385824878186,340.37846842455554,336.37380407808007,335.37272927720545,336.37379771111364,337.3748879718783,336.3737928107006,339.3772596819048,335.37267368878906,335.3727435359441,335.37271014877854,337.3749044660849,336.3740750642515,336.37377450923435,336.373967371109,336.3740020149929,339.3773235923883,336.3739655034682,335.3729280478625,335.37266231571886,337.3750486116656,336.3737940485671,336.37404428840546,336.3738013640687,340.3784449939495,336.37391977760245,336.3737791032612,337.3748743052644,336.37392607294686,336.3738919113634,338.37620114603027,337.375108008911,336.3739858290894,336.37388209848433,342.38071261300485,337.3750741963608,337.37508441513967,336.37380294490794,337.37487975987364,335.3728359530174,339.37709792933737,337.37486475662513,335.3728297359547,339.37731207177563,339.3771783026205,337.37504675200375,336.3738554896146,336.3739908276579,339.37717330169005,338.37609318286707,340.3782057787221,336.37378200788015,342.3807929490933,337.3751257413903,341.37943516921047,339.3772235233388,337.374976475051,335.3727810720311,336.3738590198067,336.37377469780193,336.37385966933977,336.37393213637426,339.377110088814,336.3741812883496,336.3740066323612,337.37501792661857,337.3750478285613,337.3749069213901,339.37728871414606,335.372637555165,336.37395443797897,337.3750215505807,335.37269073891645,335.37264826864634,340.37825247588916,336.37380771541063,335.3727613585144,339.37725953914133,337.37516091388176,339.3773860207459,335.37273510837974,337.37491111322544,340.37843617335926,337.3751002208722,336.37388550714763,339.37750892100144,339.3771222386701,336.37381167618,335.37273736608273,335.37266673133564,339.3771495125249,336.3737489686196,336.3739127802963,337.37488603287693,336.3738383975728,335.37263949399926,340.3787106428419,337.3749737745562,336.37383957070244,336.37377225158986,337.37489717005224,340.37820149741935,336.37388228202,336.37379658219277,337.37495255498055,337.3748970397032,336.3738220080185,336.3740585303955,337.37506961135523,338.376015114971,337.3749252754873,337.3749724789439,336.37377357010956,336.3738564211878,342.3806639586117,335.3726527654432,336.37385208109174,337.3749582029151,336.37389034240084,336.37380281909316,337.37501621380875,336.3737541877658,336.374005758076,335.3728630187597,337.3749744463087,339.3773228218913,336.37380658836105,337.374885764596,335.37271527909536,337.3749934995037,336.37379026656737,336.3737821330266,336.3737821204263,337.37492718980656,337.37492325194813,336.3738757790969,337.37516012971906,336.37390630258,337.3750076607012,337.3749119930424,335.37273151751714,335.37278893967846,337.3751159844615,337.37491292198587,337.3748663157361,337.37512311153597,335.372864125134,336.3738140399428,336.3738869718136,338.3760589337753,339.37748518172907,336.37401918761884,337.3751402246608,336.3737660221745,335.3727066428861,339.3773658996971,339.37750313217543,335.3726403322727,336.3737529478312,337.37501913511477,337.3752071364486,336.37376683479636,337.37491093704415,335.37264588194154,340.3785268070391,337.37510351463754,336.373985370721,337.37500063118915,338.37597645717995,340.3784847197911,336.37396608985506,335.37273361559664,336.373832305301,337.3750028161711,338.37609830538014,337.37501860630226,337.37512433654064,335.3726879285412,336.3738278831771,337.37486722500773,337.37494696180124,336.3738746223367,339.3772030016168,337.3750067274459,336.374005847374,336.37409255016837,340.3784855035479,337.37493323808235,337.3748794034066,335.3726999950743,336.373764042468,335.3726759427939,335.37267284316357,336.3738800224033,338.3760320032186,336.37376334020837,335.37269333669684,340.37825461650004,341.37978833515217,336.3738640759692,336.3738648773288,337.3751154720459,335.37267491815203,336.3737792417179,336.37387168259227,337.3750216731021,337.3748701929583,336.37399376792024,336.3738791915988,338.3760030715122,336.37380347414876,336.3737951102729,337.37510110256505,336.37398544237,337.37506683202315,337.3749113471076,336.3739830115278,336.3737789788163,336.3740369347108,337.37527682956215,336.3738275665249,336.3739405226058,335.37264197814125,338.37606969488746,336.37388332388923,336.3738208659393,338.3761801078767,336.3738555860053,335.3727863107462,339.3772119771318,337.374861992375,337.3749659656434,337.3750464768918,336.37381680992695,336.373889349587,337.3748631183974,338.37622295926764,338.3762745650593,336.37379345772655,336.37375429576105,337.375038574027,338.37608554213404,337.3749946028755,341.37961492290486,339.3772202539683,336.3737820281128,339.37720514209445,337.3749543862802,335.3728285799692,336.3737502208081,339.37729060656295,337.3750476041406,336.3737763851736,335.3727151642478,337.37523022747416,337.3750768926871,336.3738762026971,337.3748901794054,340.37897817180243,339.3771201798137,335.3728135081291,335.37268039168526,337.3753016879419,336.3741325908968,336.3737562041059,339.37735907375304,337.3752461961138,335.3726583784013,336.37377068107696,339.3771570655395,337.3750036775388,339.3772958642123,335.37278189639255,337.37514182387974,336.37385110535814,336.373761477633,337.3750932240809,337.37529325444234,336.37383238315203,336.37382466818565,335.3726918030327,336.3739025436098,335.37266044490747,336.3737665196497,336.3739773961727,338.3760517295442,336.3738183823078,335.3726412664337,337.3749530337918,337.3750271730162,337.3749702982682,338.3763478633597,339.3774760405754,336.3738180289604,336.3738064225078,338.37598150388334,335.372811702078,336.3738193940864,339.3774652781738,336.37377119972047,336.37378700841305,337.3748842600623,336.37387427398886
2,-0.004244502405718086,-0.004128686811516937,-0.004393332022422296,-0.0043022161387165645,-0.004925032165995741,-0.0034745836236041504,-0.004287940993007948,-0.0032789035372279905,-0.0042966939367172306,-0.003194881356669961,-0.004125306467096075,-0.004007066994019094,-0.004130893474988258,-0.00427479434783522,-0.004043742913022734,-0.004199755423083166,-0.004391157030853689,-0.00405583712538805,-0.0035634489133921773,-0.004424656815395187,-0.0042103075842931876,-0.00422809541860503,-0.0031991643811981945,-0.004244624735345526,-0.004203412509229845,-0.0031637827590148934,-0.00440717066955305,-0.004216143052842689,-0.00417491784933537,-0.004332204296500696,-0.0040132734856150164,-0.0045040160190680046,-0.0034815370281223073,-0.003701507555838586,-0.005130650128076456,-0.004271176576031846,-0.003488213338040322,-0.004165127423097978,-0.004257734662442899,-0.003082768562063391,-0.004137705184465184,-0.0033131658745173616,-0.004967951385244833,-0.0043880590253048786,-0.0040896783326240405,-0.004808946587676897,-0.00427382633123964,-0.0040585109419830016,-0.004099595765049081,-0.004095592163727343,-0.00428049864951883,-0.004108580751091898,-0.004281378347112538,-0.0032201262704896426,-0.004094143640300037,-0.0031567883725853434,-0.004423960376765903,-0.003495206941540838,-0.00424831038116713,-0.004058258968724332,-0.004410465629748931,-0.004373949889625816,-0.004184001608398234,-0.004237944902646401,-0.004871442596871683,-0.004215452448766099,-0.004437788576350922,-0.004194491053270658,-0.004081013561324241,-0.003198058038789493,-0.003611291440032245,-0.004153365948327605,-0.004125166761531507,-0.004043055028504021,-0.003706431035245294,-0.004401682790074533,-0.004222847479510142,-0.004352676514008889,-0.004202066199696893,-0.003350868491745149,-0.002891508794109658,-0.004256509298342347,-0.003124234722205318,-0.004292787609273105,-0.004166711797139661,-0.004126131849301502,-0.004168643900872794,-0.002883528156037319,-0.003145178425830711,-0.004214541182918312,-0.0040265061240476055,-0.0036948075251054206,-0.004055660127784712,-0.004144777904646171,-0.0048445291486759945,-0.004248667531083713,-0.004348567403486857,-0.004503675617887526,-0.0042062163001996165,-0.0042044100150744204,-0.00480718508122441,-0.0035044350017780774,-0.004096115049690352,-0.003338523746634692,-0.004233810335941337,-0.0031420563022131914,-0.004363928942896125,-0.004252718982032908,-0.0041035356213684525,-0.004829186429949849,-0.003979061365424889,-0.004417878304676705,-0.004844066707833625,-0.004284952104263553,-0.004062631047554832,-0.003475980244350283,-0.003741510575708315,-0.004067698088812162,-0.004183132066411689,-0.003210754837684216,-0.004146490443771494,-0.004004632695547518,-0.0036250483139261577,-0.004147369056744671,-0.004485088540978068,-0.004310673562059382,-0.0048473960224823896,-0.003190392598701227,-0.004244803734297208,-0.004875004302835418,-0.004465569989506379,-0.004402643375220924,-0.0027859267569637467,-0.004184807031533874,-0.004181903198087717,-0.00440903146749787,-0.0033644532693945218,-0.004402384838678433,-0.004171703635990704,-0.00507269634692718,-0.003242472707741827,-0.0041223291719349455,-0.00421512833728785,-0.0037229148988920623,-0.0037210575605649858,-0.004279570391881857,-0.003539740408948052,-0.0028003616566013045,-0.0042729758705347815,-0.003269112458809818,-0.00492831930243973,-0.004827814442426468,-0.004286299471352333,-0.004143344956644334,-0.004796299178608656,-0.0031164232376048686,-0.004158404029318479,-0.004164297123854156,-0.0042528442054102404,-0.004111636097904317,-0.0040209590595010475,-0.003637203214161914,-0.004286794269978269,-0.004095411743203839,-0.0034685504332264494,-0.003140343588920459,-0.003565800252653458,-0.003712745234329172,-0.004380930253390402,-0.004179002466305239,-0.0032417603119812535,-0.004040431315642705,-0.004398409995314955,-0.0031702149959071976,-0.004398969851367139,-0.004124294891729393,-0.004335511221782344,-0.00504829324811884,-0.0031837450133392104,-0.003650355338456435,-0.00435082501535361,-0.004224958795988718,-0.0027717235106655552,-0.00290658241359162,-0.004340147344859703,-0.004032008062645267,-0.004188619219736752,-0.004847616363181324,-0.004185969562745299,-0.003011734129963545,-0.00322709950208215,-0.004284841281751802,-0.0040093500063679,-0.0036401618786039576,-0.004499261041360056,-0.004282006847541592,-0.0037213407266925127,-0.004461023001583977,-0.004471000096395369,-0.0033351864664750326,-0.004448861396409819,-0.004155742619167817,-0.004410732124429366,-0.004215285703182412,-0.004202187943594483,-0.0036135333212292883,-0.003778470907229419,-0.004290315390522839,-0.00415389738328814,-0.003784335959447665,-0.004226632916964338,-0.003108956836370718,-0.003199299086485078,-0.004833613903767374,-0.004291447252460122,-0.004312885739576301,-0.003182872862927513,-0.004759997962301943,-0.004121793891285912,-0.004428029135666273,-0.00425580410948067,-0.004329764716186561,-0.004368334077467534,-0.003702534476416153,-0.004487267473698877,-0.0035686831013704706,-0.004320734401765097,-0.004358550262082848,-0.0027980194567622566,-0.004355858948073413,-0.004276266491020317,-0.0036941734589749156,-0.0031904680138256656,-0.00437405758687766,-0.004134541263110448,-0.0036986525580912045,-0.004183959141588027,-0.0030945584161111866,-0.004209917032421698,-0.002788522841362553,-0.00410152463089897,-0.0040159843036007585,-0.0037522022660662745,-0.003623319262595228,-0.004273689527349096,-0.004218241662523711,-0.0031884750892454115,-0.004165563139243436,-0.004252095503501156,-0.004426099547083835,-0.004834500915169261,-0.004443333292489316,-0.002980276818413032,-0.0029637685001352534,-0.0027945624788536585,-0.00416732679992008,-0.004028648465685402,-0.004329597575035981,-0.004432559048994178,-0.0042559086939165615,-0.0040482877412562485,-0.003639597656600188,-0.004454312764583077,-0.0042664439418977395,-0.0050213818836477245,-0.004253790456788504,-0.0032406409708718143,-0.003200041836872733,-0.004360913867902693,-0.004482733418001492,-0.0032178769790768584,-0.004281601143404063,-0.004445564389562342,-0.004437627865106022,-0.0031998477316259114,-0.004364662405351125,-0.003377681397851897,-0.004223065893902392,-0.00428061074610853,-0.0032641474768905624,-0.004885222955425043,-0.004260292323692702,-0.004275707649036869,-0.004898873440552263,-0.004050911653100517,-0.0031473663342529187,-0.003745194962529501,-0.004277794996317838,-0.004351388524320174,-0.004179715930678552,-0.004437421303151891,-0.004131433814441448,-0.0042129702491709355,-0.0044778119665883475,-0.0032115666284585733,-0.003152488483348921,-0.002813185694391773,-0.0031503968916191264,-0.004230002033272618,-0.004291353619814451,-0.003184063390637546,-0.004366705257519,-0.004309037128971377,-0.003674789034141229,-0.004218488528406519,-0.004092764019913513,-0.003651391588798018,-0.004293366649291791,-0.004130481600062463,-0.004477291958750071,-0.0036982511542437277,-0.0037278826582397336,-0.0042768048341859655,-0.002911870153259173,-0.0041716006522424885,-0.0031712031106297823,-0.004209899449301289,-0.00279793199032239,-0.004172930493329581,-0.004210048454885166,-0.0028031941425433783,-0.004427639042142643,-0.004123400340801108,-0.0037155374490239995,-0.004406988181183398,-0.005062763138498616,-0.0044152300699314365,-0.0041270770256799675,-0.004292820888393507,-0.002902901884270011,-0.00435907802768156,-0.004037773148695327,-0.0031651287744028926,-0.004232802034260689,-0.00446306436274304,-0.004246821712553005,-0.004171205838212557,-0.004434091201586745,-0.004180896229666284,-0.0035906096571127217,-0.004336736871677667,-0.0040690281199668,-0.003635373343694737,-0.003214853891848764,-0.005031088911440663,-0.004398357509416722,-0.004373059808790676,-0.003162218673240257,-0.00439263587637767,-0.004214833840621445,-0.003995217890643756,-0.004346584116592354,-0.004368336002817842,-0.004344567731434883,-0.004451102150651921,-0.0036287050850553997,-0.005037582216022118,-0.004357040528092038,-0.004430363141702038,-0.004339019887596695,-0.004258349669322066,-0.0029140376143577743,-0.0036377490613035777,-0.004348475381163341,-0.0042578853739904995,-0.004327954620714918,-0.0032125012263214993,-0.00420257353947126,-0.0031916904859259775,-0.0034197409616638893,-0.00425090179591352,-0.004392185330935356,-0.0035780846369518043,-0.0028021911961083825,-0.00416390223408174,-0.004130915453735902,-0.003735331641412706,-0.0032504003362466894,-0.004312585022845808,-0.004086551357624939,-0.004860137034003669,-0.004462567009771883,-0.004399410529158702,-0.003701178131847364,-0.0042635330618277555,-0.004441924689810805,-0.0031075394528070344,-0.004372753002981607,-0.003174297603847736,-0.004485535369261345,-0.002922189144637025,-0.004245607010747541,-0.0049964733412495395,-0.0031391439721027625,-0.005068706611084648,-0.004036141851526062,-0.0037213390719542,-0.004206633424393102,-0.004116911749607283,-0.0037056114916519827,-0.004302636643149404,-0.004256353287350376,-0.004258236351496306,-0.0036371830434479835,-0.0044068365075385215,-0.004332605955418754,-0.0035623195510019095,-0.004272774844300847,-0.00424179453053505,-0.00428067371521955,-0.004884083847076368,-0.004121593859716179,-0.004059973877558549,-0.003615494944023182,-0.003630215732879365,-0.004275089016915885,-0.003608301887579018,-0.0036656542658964984,-0.004241290084637598,-0.003804990046981958,-0.003084509849616561,-0.00400841019920565,-0.0035754098132953914,-0.004018681793984741,-0.005005217042399286,-0.0042968379580126306,-0.0031649297302647037,-0.003755333873128302,-0.003186602837823953,-0.004466127431434215,-0.004191370059721204,-0.003016411451487607,-0.0042000420236445206,-0.0036257130851938117,-0.004318644218045901,-0.004321995392696683,-0.0030283781891347144,-0.004289709617484758,-0.0038572043649462207,-0.0045204882064512125,-0.004259251082905763,-0.0032013671297425198,-0.004439719594470861,-0.002827123373690449,-0.004192140278716266,-0.004431860026485202,-0.004438759227624233,-0.004506052539026092,-0.002921486593829413,-0.0043426669783412294,-0.005091754664342984,-0.00435556553477997,-0.005142364334474283,-0.0038800809443412386,-0.004509155697762173,-0.00416938687624476,-0.0028357083097913524,-0.004311244073172166,-0.0030306882960318532,-0.004476156731797245,-0.003702523052847029,-0.0042196354340632534,-0.0034727789325641072,-0.0029160050662818122,-0.0032414259200093023,-0.003215983748056972,-0.004227216188959942,-0.002963532859655545,-0.004285849674645784,-0.004155970077876211,-0.004353588966206393,-0.0038005185542391413,-0.004339123864172066,-0.0031784877491054845,-0.002824173743677624,-0.0038455279487585527,-0.004334628258413076,-0.0043143191867237776,-0.00392407450897375,-0.004343074465999551,-0.00419747757720129,-0.0038390169937768817,-0.004399621848846567,-0.0032230494531127374,-0.0031893673148591646,-0.0036554392740564033,-0.004201260290269948,-0.0038794981827252133,-0.0035915302674999643,-0.004269668701088848,-0.003999947778280732,-0.002950434270258457,-0.0051155968901390216,-0.0044287856258762815,-0.0028371315431775248,-0.0042490672577947175,-0.00430000747625976,-0.004138986480436445,-0.0036651125813054104,-0.0041512097385827855,-0.004177537575681181,-0.003804854984148707,-0.003639288662294684,-0.004268930864961186,-0.004225138905582857,-0.004493982721123184,-0.004404052468229791,-0.004270768755696006,-0.003644378643608144,-0.004168014820210147,-0.0031783816469069448,-0.0037440056738703566,-0.003627145361253661,-0.004322009893784495,-0.0043639546254411596,-0.003344887396022114,-0.004318379898954972,-0.004199023193685535,-0.004203222098802758,-0.0038240814778095072,-0.004360360770187388,-0.004216143687458771,-0.003699958132932784,-0.0042785472321407066,-0.004463436897699115,-0.003723274754538805,-0.003679418956168915,-0.004161248865782363,-0.004253119899650154,-0.004285531480524586,-0.003175255421071051,-0.004386196257543492,-0.003728346465398494,-0.003579661091932454,-0.0044016958769749915,-0.004132842383600205,-0.004392330179026243,-0.004462566294666767,-0.004144979927432143,-0.003175252610861146,-0.005009881789224376,-0.004317093422741616,-0.0031531337861515933,-0.004299608410401381,-0.004371754162643727,-0.0031961584096487283,-0.0040586305222040505,-0.0036639477155294225,-0.004457686742946879,-0.004130672554289086,-0.0036424506146251587,-0.004167294718690123,-0.004129523191236942,-0.0032405450634577456,-0.0043085179683320955,-0.004071319862500618,-0.0038322166662212195,-0.004179803719387203,-0.004368850178791253,-0.0044232903765383975,-0.004354823281641628,-0.004283363077137929,-0.0040789972464615465,-0.0029239388747660296,-0.005036997558559905,-0.004300778786972259,-0.0031297537652058664,-0.0043199155753536125,-0.005075565784826831,-0.0028252421664428057,-0.005054501060278876,-0.004353429443916615,-0.003821541893751555,-0.004469939388681186,-0.003080384551050895,-0.0037365108713038235,-0.00412418187242714,-0.003600314644534186,-0.003619801457392734,-0.00421727686710349,-0.00435542958115483,-0.004320854796214557,-0.0043704594754649245,-0.002831681268365392,-0.003670418737845748,-0.0031725195622759285,-0.0035057121592198337,-0.0043379031844999315,-0.00432495936044632,-0.0028898248322518747,-0.0030741200024240367,-0.003842409257779623,-0.004354170815027167,-0.004019051388928158,-0.0032174751143864587,-0.004318855265455268,-0.0028891912656064302,-0.005169620665765473,-0.0037845103903627825,-0.0043705301673073235,-0.0044957734421722595,-0.002933670395533843,-0.004384218177173769,-0.0030204860539284036,-0.0044063504454562455,-0.0037384124334164256,-0.0043300694722171445,-0.004225270834716663,-0.003729616323305862,-0.004418553506637614,-0.004250093889379455,-0.002826331502576375,-0.002822506277228912,-0.004372770995711392,-0.004278478321406269,-0.003801639446027273,-0.004021455170112929,-0.00423672516306197,-0.004514866198838079,-0.0031736584958521417,-0.004286739255735358,-0.0029104937517510946,-0.0043112522255806226,-0.004371092094731038,-0.0036570315511065227,-0.003989889632667569,-0.0037199767301888107,-0.004416438592889764,-0.004185859043766256,-0.0031685851402085802,-0.004413314265609578,-0.0028893199223140767,-0.003859102114229077,-0.0036869858233048664,-0.004144594893638297,-0.005094294170228414,-0.003733097305208922,-0.005057022674033952,-0.0031072790962485353,-0.004223223044927171,-0.00439384463898587,-0.0050431421113180715,-0.003805765521018436,-0.004361332546964338,-0.005037833657827965,-0.0037038455543011127,-0.0043345728149936195,-0.0031634700900623827,-0.003822977328416087,-0.003757969577486232,-0.004326450301343152,-0.0050356690352098225,-0.003655686073740112,-0.004216480732371821,-0.004082789432606019,-0.0037024655087260425,-0.004363912323687624,-0.003017812430825332,-0.003163195327413773,-0.005038622977797021,-0.0030857767968295664,-0.004474972538410134,-0.0030300534587285924,-0.003729762376028887,-0.0028304393534164876,-0.004458826070150778,-0.004394420436188188,-0.0029309142822997914,-0.004306698261228301,-0.005066905601833374,-0.003871806624719043,-0.004450296298777621,-0.0042871910447006955,-0.0027936146836408807,-0.0043391188958941925,-0.004220405725987828,-0.003250893806400579,-0.004320735029021591,-0.003166963114767958,-0.0028373058050097525,-0.0030206710124777263,-0.004116708016522813,-0.004300036185037062,-0.004135592669798185,-0.0037760077849715223,-0.004278751931151542,-0.004339523720099367,-0.004347791799116351,-0.0038381662481828684,-0.00394102606091983,-0.0036137328608865566,-0.004105541450364963,-0.004139623518005988,-0.00504100601647262,-0.005097762429377837,-0.0028285768260882214,-0.004346187989597182,-0.0043568696385699315,-0.003856371504263429,-0.004343987458557022,-0.00428556553689537,-0.003195231118785921,-0.003199341761472724,-0.0043529355704973625,-0.004339470334676219,-0.003799176240866576,-0.005046463890355289,-0.0036546066196922913,-0.0035924773241565043,-0.0029182027610344143,-0.0036061865122926987,-0.004397829019681757,-0.0036388818426009817,-0.0028243261286784783,-0.0031835434172817222,-0.004419829516746248,-0.0037685347663517187,-0.004407531485979012,-0.0041398770037703,-0.0037353892159373158,-0.0030258884399225693,-0.004344967318166138,-0.0037598872971000277,-0.004113462824119773,-0.00447841764843817,-0.0031444979549662853,-0.002838704917305452,-0.005095671112605724,-0.004337187812382963,-0.0036827945247943595,-0.004438607068071968,-0.0041570587126478625,-0.0036662435775344612,-0.004315827858177882,-0.00421974752221166,-0.0032089903936306325,-0.004254801949344632,-0.004485822136649765,-0.004459391513872819,-0.0037467389958836454,-0.003739537542378462,-0.004318286365116744,-0.004415238655782334,-0.00436666577413082,-0.0031164833420000452,-0.003144217217707938,-0.004382875084929988,-0.00434110685270102,-0.0029030413943739574,-0.0041784285687220795,-0.004272515491992656,-0.004442273300173396,-0.0036253656515001426,-0.003168050457344051,-0.003826744489886127,-0.0031950806624424137,-0.004305801688189828,-0.003133728673686443,-0.0035847850501505786,-0.003183772866656525,-0.0043194851117603844,-0.0032081926424156844,-0.004305462977519424,-0.004097098297707512,-0.003224276915038153,-0.004449653306789077,-0.0042032593761658415,-0.0037000412711152364,-0.004463228256531848,-0.0041478172771711105,-0.004227857289583413,-0.004235799530283102,-0.004222687609260407,-0.0028346187863715314,-0.004297931469058095,-0.005059470826037809,-0.004199834894848151,-0.0037039954074796645,-0.004461079884286681,-0.0029608887715530463,-0.003913315088709222,-0.0036178366150401656,-0.004104794243648791,-0.004072093038500274,-0.004209771180676159,-0.004268891162904033,-0.004153494548912721,-0.004455444564407589,-0.003171745508466545,-0.004210875684275027,-0.0050970671680553,-0.005133540850603398,-0.0036417483990611797,-0.004466030101705215,-0.0044260230655100265,-0.004436010904019688,-0.002819136646825964,-0.0042848275489113605,-0.004431048333560163,-0.0038362260464343324,-0.0043882033083230436,-0.004273065814139914,-0.0032502677143811903,-0.0036085039875135613,-0.004182561622774599,-0.004343003019702594,-0.0029525491984041825,-0.003685041227843828,-0.003977814913481119,-0.004354686556945839,-0.003748981085103963,-0.005086163982376214,-0.0031656855403476864,-0.0036747338047517777,-0.00448691315457174,-0.0031791209572767706,-0.0031622255898946755,-0.003652913609789208,-0.004231572835543601,-0.004263549425852433,-0.003200354520052939,-0.0032136162400287797,-0.0030481367624723243,-0.004193771398275748,-0.0029560162718182494,-0.004011153745704009,-0.002884506743268928,-0.003250514695368681,-0.0034903001609124977,-0.005121283281147361,-0.0044474489824940285,-0.004269468414405466,-0.004377181418401401,-0.004134277324074265,-0.0031294704369757296,-0.004218527834268311,-0.004229993325291311,-0.003746686393927142,-0.003771429101841976,-0.004110883012268394,-0.0029200045369231005,-0.005061724567176568,-0.004239048060776409,-0.0038156879928258787,-0.0051470429405266445,-0.005095901678516357,-0.0028378468281758454,-0.004457486101751307,-0.005079091240452288,-0.00314786494620991,-0.0036256893110687004,-0.00314339929493903,-0.0050718969905319536,-0.0038651809359361252,-0.003040320657749351,-0.004121406467877502,-0.004197533166913303,-0.0031516355107390663,-0.0031423737457482305,-0.0042786164040430315,-0.0051034920198193,-0.005150295519132213,-0.0031763974743040813,-0.004457657623146113,-0.004356701710303538,-0.0036427636891051313,-0.004213354718866967,-0.00509404198877885,-0.0028239469010579083,-0.0037698392311573976,-0.004301774592359841,-0.004157076161348957,-0.0037421504671959487,-0.0028203612114567093,-0.0043484389943493525,-0.004236569578061247,-0.003683024190908312,-0.003651466851911456,-0.004264339700573657,-0.004474407518688074,-0.0037983165132975077,-0.003242308596868646,-0.004163975394694907,-0.0037193316756892166,-0.0044271771130114795,-0.004411263507624527,-0.002960617968254266,-0.0051062672427484015,-0.004185288253211215,-0.0036379476633416866,-0.004444295899292505,-0.004322295310658488,-0.0038008136363626484,-0.004438703727805359,-0.004466535340672883,-0.005084062542778316,-0.0039030251696940753,-0.0031234921675721934,-0.004226496484125183,-0.0036202990873535987,-0.005093728942945282,-0.004206428080032648,-0.004385424017550845,-0.004391304354238071,-0.004314591408976503,-0.0035831118777803705,-0.004093568183049684,-0.0044376907986346924,-0.0037629544106191053,-0.004424673111010418,-0.0041312441665738225,-0.0037192166611779527,-0.005109505218290392,-0.005080301069848188,-0.0037663448381137876,-0.0038429700619333662,-0.004124606421129522,-0.003706151878220396,-0.004420252516716591,-0.004347929324963573,-0.004384402352486196,-0.003213398199763399,-0.0031551009038443666,-0.004392549006035511,-0.0038262838034033115,-0.004239363638024916,-0.005077436737374406,-0.0031288854413302255,-0.002964929022037217,-0.005160846550735371,-0.004452028139561801,-0.0036679130030015084,-0.004088073119514141,-0.00439251105768428,-0.003653884673891127,-0.005042128032858724,-0.0028194594868400573,-0.0036581957527845967,-0.004348892769363073,-0.003767775949128838,-0.0032408598411800614,-0.002839389183522694,-0.004263775326979107,-0.005337143463264593,-0.004015531755458455,-0.0037164912258098853,-0.0034559849914596206,-0.0037319757032872507,-0.003673219633145432,-0.0051200279639000215,-0.004398132528976573,-0.003693381672508788,-0.0037289980313977254,-0.004202232223117282,-0.003140498094085222,-0.0036539938685903207,-0.004388365414956323,-0.004307518345685404,-0.0028380823882461306,-0.0038587370398179047,-0.004118595300696709,-0.005099579876133134,-0.004511700630156477,-0.005148118238285959,-0.005106873148498534,-0.004228091134795453,-0.0032687586519983686,-0.004363747111409523,-0.005113921313024689,-0.0028358681290562627,-0.0027999879091350857,-0.004441475370122053,-0.004154101937712285,-0.0036223942933336813,-0.004330220280762392,-0.004358389642532412,-0.004217578994790085,-0.0038854220304048396,-0.0038533400253537367,-0.004308347611692444,-0.0042073619137398205,-0.003251172115145266,-0.00426758282401183,-0.0042087991781593476,-0.003600706102905499,-0.004171462202096662,-0.004101061578764514,-0.0038152674016641488,-0.004350651146409892,-0.004466680565521422,-0.004465112688085073,-0.0036790878108029445,-0.004347778341093633,-0.004217141071370591,-0.005182294688635343,-0.003219734648410569,-0.004237968713004189,-0.004199445130534767,-0.0031706516014598177,-0.004410212507119639,-0.004999804974722002,-0.0031726883108792654,-0.00377450859544208,-0.0040133744808985945,-0.0036027890285885325,-0.004292677158597472,-0.004169673376563871,-0.003707033485094448,-0.0031252322195440135,-0.003042276916122817,-0.004190417361680288,-0.0042895977314927345,-0.003739936923367095,-0.003231270080498774,-0.0035865019688128617,-0.0029020744961273594,-0.003171576355089484,-0.004320802134518386,-0.003235930319472133,-0.0037941385200375285,-0.005129802095674228,-0.004246775559076713,-0.0031828987506829234,-0.0037496624382525327,-0.00431669524105397,-0.005150467271980379,-0.0038837593385744043,-0.004138507456469868,-0.004416783499290398,-0.003770328531511022,-0.0028312672429489523,-0.0031748392724464084,-0.005086397966852208,-0.004618537108162696,-0.0038562560588567716,-0.0043888915703529105,-0.004382554660838238,-0.003208556933907357,-0.0037289797738653914,-0.005130373127661097,-0.004242492565208107,-0.0031375779206109767,-0.0037902175223675275,-0.0031803962038340038,-0.005142770268906587,-0.003650437605452599,-0.004215417430698174,-0.004234830012451196,-0.00375354304273789,-0.003820410298900276,-0.004232472089108625,-0.004365926044949926,-0.0050702094500870145,-0.0042703431531445546,-0.004344990791336744,-0.0044262342774417755,-0.004377640179218016,-0.0032217872626692824,-0.004293646214059809,-0.005035691713388981,-0.0038796868289702902,-0.003768715565942234,-0.0040789142431565594,-0.003217846860605721,-0.0031148495602512025,-0.004361415342244112,-0.004408317011231754,-0.0032289222040225354,-0.005132871937842301,-0.004249630165119199,-0.0031291326808094762,-0.004372171892132158,-0.004236423026120023,-0.003826354936568279,-0.0044561982237199226
3,-13164169.376181552,-13164169.37618155,-13164169.37618155,-13164169.376181548,-13164169.376181548,-13164169.376181547,-13164169.376181547,-13164169.376181545,-13164169.376181545,-13164169.376181543,-13164169.376181543,-13164169.376181541,-13164169.376181541,-13164169.37618154,-13164169.37618154,-13164169.376181537,-13164169.376181537,-13164169.376181535,-13164169.376181535,-13164169.376181534,-13164169.376181532,-13164169.376181532,-13164169.37618153,-13164169.37618153,-13164169.376181528,-13164169.376181528,-13164169.376181526,-13164169.376181526,-13164169.376181524,-13164169.376181524,-13164169.376181522,-13164169.376181522,-13164169.37618152,-13164169.37618152,-13164169.376181519,-13164169.376181519,-13164169.376181517,-13164169.376181517,-13164169.376181515,-13164169.376181515,-13164169.376181513,-13164169.376181513,-13164169.376181511,-13164169.376181511,-13164169.37618151,-13164169.37618151,-13164169.376181507,-13164169.376181507,-13164169.376181506,-13164169.376181506,-13164169.376181504,-13164169.376181504,-13164169.376181502,-13164169.376181502,-13164169.3761815,-13164169.376181498,-13164169.376181498,-13164169.376181496,-13164169.376181496,-13164169.376181494,-13164169.376181494,-13164169.376181493,-13164169.376181493,-13164169.37618149,-13164169.37618149,-13164169.376181489,-13164169.376181489,-13164169.376181487,-13164169.376181487,-13164169.376181485,-13164169.376181485,-13164169.376181483,-13164169.376181483,-13164169.376181481,-13164169.376181481,-13164169.37618148,-13164169.37618148,-13164169.376181478,-13164169.376181478,-13164169.376181476,-13164169.376181476,-13164169.376181474,-13164169.376181474,-13164169.376181472,-13164169.376181472,-13164169.37618147,-13164169.37618147,-13164169.376181468,-13164169.376181468,-13164169.376181467,-13164169.376181467,-13164169.376181465,-13164169.376181465,-13164169.376181463,-13164169.376181463,-13164169.37618146,-13164169.376181459,-13164169.376181459,-13164169.376181457,-13164169.376181457,-13164169.376181455,-13164169.376181455,-13164169.376181453,-13164169.376181453,-13164169.376181452,-13164169.376181452,-13164169.37618145,-13164169.37618145,-13164169.376181448,-13164169.376181448,-13164169.376181446,-13164169.376181446,-13164169.376181444,-13164169.376181444,-13164169.376181442,-13164169.376181442,-13164169.37618144,-13164169.37618144,-13164169.376181439,-13164169.376181439,-13164169.376181437,-13164169.376181437,-13164169.376181435,-13164169.376181435,-13164169.376181433,-13164169.376181433,-13164169.376181431,-13164169.376181431,-13164169.37618143,-13164169.37618143,-13164169.376181427,-13164169.376181427,-13164169.376181426,-13164169.376181426,-13164169.376181424,-13164169.376181424,-13164169.376181422,-13164169.376181422,-13164169.37618142,-13164169.37618142,-13164169.376181418,-13164169.376181418,-13164169.376181416,-13164169.376181414,-13164169.376181414,-13164169.376181412,-13164169.376181412,-13164169.37618141,-13164169.37618141,-13164169.376181409,-13164169.376181409,-13164169.376181407,-13164169.376181407,-13164169.376181405,-13164169.376181405,-13164169.376181403,-13164169.376181403,-13164169.376181401,-13164169.376181401,-13164169.3761814,-13164169.3761814,-13164169.376181398,-13164169.376181398,-13164169.376181396,-13164169.376181396,-13164169.376181394,-13164169.376181394,-13164169.376181392,-13164169.376181392,-13164169.37618139,-13164169.37618139,-13164169.376181388,-13164169.376181388,-13164169.376181386,-13164169.376181386,-13164169.376181385,-13164169.376181385,-13164169.376181383,-13164169.376181383,-13164169.37618138,-13164169.37618138,-13164169.376181379,-13164169.376181379,-13164169.376181377,-13164169.376181377,-13164169.376181375,-13164169.376181375,-13164169.376181373,-13164169.376181373,-13164169.376181372,-13164169.376181372,-13164169.37618137,-13164169.37618137,-13164169.376181368,-13164169.376181368,-13164169.376181366,-13164169.376181366,-13164169.376181364,-13164169.376181364,-13164169.376181362,-13164169.376181362,-13164169.37618136,-13164169.37618136,-13164169.376181358,-13164169.376181358,-13164169.376181357,-13164169.376181355,-13164169.376181355,-13164169.376181353,-13164169.376181353,-13164169.376181351,-13164169.376181351,-13164169.37618135,-13164169.37618135,-13164169.376181347,-13164169.376181347,-13164169.376181345,-13164169.376181345,-13164169.376181344,-13164169.376181344,-13164169.376181342,-13164169.376181342,-13164169.37618134,-13164169.37618134,-13164169.376181338,-13164169.376181338,-13164169.376181336,-13164169.376181336,-13164169.376181334,-13164169.376181334,-13164169.376181332,-13164169.376181332,-13164169.37618133,-13164169.37618133,-13164169.376181329,-13164169.376181329,-13164169.376181327,-13164169.376181327,-13164169.376181325,-13164169.376181325,-13164169.376181323,-13164169.376181323,-13164169.376181321,-13164169.376181321,-13164169.37618132,-13164169.37618132,-13164169.376181317,-13164169.376181317,-13164169.376181316,-13164169.376181316,-13164169.376181314,-13164169.376181314,-13164169.376181312,-13164169.376181312,-13164169.37618131,-13164169.37618131,-13164169.376181308,-13164169.376181308,-13164169.376181306,-13164169.376181306,-13164169.376181304,-13164169.376181304,-13164169.376181303,-13164169.376181303,-13164169.3761813,-13164169.3761813,-13164169.376181299,-13164169.376181299,-13164169.376181297,-13164169.376181297,-13164169.376181295,-13164169.376181295,-13164169.376181293,-13164169.376181293,-13164169.376181291,-13164169.376181291,-13164169.37618129,-13164169.37618129,-13164169.376181288,-13164169.376181288,-13164169.376181286,-13164169.376181286,-13164169.376181284,-13164169.376181284,-13164169.376181282,-13164169.376181282,-13164169.37618128,-13164169.37618128,-13164169.376181278,-13164169.376181278,-13164169.376181277,-13164169.376181277,-13164169.376181275,-13164169.376181275,-13164169.376181273,-13164169.376181273,-13164169.37618127,-13164169.37618127,-13164169.376181269,-13164169.376181269,-13164169.376181267,-13164169.376181267,-13164169.376181265,-13164169.376181265,-13164169.376181263,-13164169.376181263,-13164169.376181262,-13164169.376181262,-13164169.37618126,-13164169.37618126,-13164169.376181258,-13164169.376181258,-13164169.376181256,-13164169.376181256,-13164169.376181254,-13164169.376181254,-13164169.376181252,-13164169.376181252,-13164169.37618125,-13164169.37618125,-13164169.376181249,-13164169.376181249,-13164169.376181247,-13164169.376181247,-13164169.376181245,-13164169.376181245,-13164169.376181243,-13164169.376181243,-13164169.376181241,-13164169.376181241,-13164169.37618124,-13164169.37618124,-13164169.376181237,-13164169.376181237,-13164169.376181236,-13164169.376181236,-13164169.376181234,-13164169.376181234,-13164169.376181232,-13164169.376181232,-13164169.37618123,-13164169.37618123,-13164169.376181228,-13164169.376181228,-13164169.376181226,-13164169.376181226,-13164169.376181224,-13164169.376181224,-13164169.376181222,-13164169.376181222,-13164169.37618122,-13164169.37618122,-13164169.376181219,-13164169.376181219,-13164169.376181217,-13164169.376181217,-13164169.376181215,-13164169.376181215,-13164169.376181213,-13164169.376181213,-13164169.376181211,-13164169.376181211,-13164169.37618121,-13164169.37618121,-13164169.376181208,-13164169.376181208,-13164169.376181206,-13164169.376181206,-13164169.376181204,-13164169.376181204,-13164169.376181202,-13164169.376181202,-13164169.3761812,-13164169.3761812,-13164169.376181198,-13164169.376181198,-13164169.376181196,-13164169.376181196,-13164169.376181195,-13164169.376181195,-13164169.376181193,-13164169.376181193,-13164169.37618119,-13164169.37618119,-13164169.376181189,-13164169.376181189,-13164169.376181187,-13164169.376181187,-13164169.376181185,-13164169.376181185,-13164169.376181183,-13164169.376181183,-13164169.376181182,-13164169.376181182,-13164169.37618118,-13164169.37618118,-13164169.376181178,-13164169.376181178,-13164169.376181176,-13164169.376181176,-13164169.376181174,-13164169.376181174,-13164169.376181172,-13164169.376181172,-13164169.37618117,-13164169.37618117,-13164169.376181168,-13164169.376181168,-13164169.376181167,-13164169.376181167,-13164169.376181165,-13164169.376181165,-13164169.376181163,-13164169.376181163,-13164169.376181161,-13164169.376181161,-13164169.37618116,-13164169.37618116,-13164169.376181157,-13164169.376181157,-13164169.376181155,-13164169.376181155,-13164169.376181154,-13164169.376181154,-13164169.376181152,-13164169.376181152,-13164169.37618115,-13164169.37618115,-13164169.376181148,-13164169.376181148,-13164169.376181146,-13164169.376181146,-13164169.376181144,-13164169.376181144,-13164169.376181142,-13164169.376181142,-13164169.37618114,-13164169.37618114,-13164169.376181139,-13164169.376181139,-13164169.376181137,-13164169.376181137,-13164169.376181135,-13164169.376181135,-13164169.376181133,-13164169.376181133,-13164169.376181131,-13164169.376181131,-13164169.37618113,-13164169.37618113,-13164169.376181128,-13164169.376181128,-13164169.376181126,-13164169.376181126,-13164169.376181124,-13164169.376181124,-13164169.376181122,-13164169.376181122,-13164169.37618112,-13164169.37618112,-13164169.376181118,-13164169.376181118,-13164169.376181116,-13164169.376181116,-13164169.376181114,-13164169.376181114,-13164169.376181113,-13164169.376181113,-13164169.37618111,-13164169.37618111,-13164169.376181109,-13164169.376181109,-13164169.376181107,-13164169.376181107,-13164169.376181105,-13164169.376181105,-13164169.376181103,-13164169.376181103,-13164169.376181101,-13164169.376181101,-13164169.3761811,-13164169.3761811,-13164169.376181098,-13164169.376181098,-13164169.376181096,-13164169.376181096,-13164169.376181094,-13164169.376181094,-13164169.376181092,-13164169.376181092,-13164169.37618109,-13164169.37618109,-13164169.376181088,-13164169.376181088,-13164169.376181087,-13164169.376181087,-13164169.376181085,-13164169.376181085,-13164169.376181083,-13164169.376181083,-13164169.376181081,-13164169.376181081,-13164169.37618108,-13164169.37618108,-13164169.376181077,-13164169.376181077,-13164169.376181075,-13164169.376181075,-13164169.376181075,-13164169.376181073,-13164169.376181073,-13164169.376181072,-13164169.376181072,-13164169.37618107,-13164169.37618107,-13164169.376181068,-13164169.376181068,-13164169.376181066,-13164169.376181066,-13164169.376181064,-13164169.376181064,-13164169.376181062,-13164169.376181062,-13164169.37618106,-13164169.37618106,-13164169.376181059,-13164169.376181059,-13164169.376181057,-13164169.376181057,-13164169.376181055,-13164169.376181055,-13164169.376181053,-13164169.376181053,-13164169.376181051,-13164169.376181051,-13164169.37618105,-13164169.37618105,-13164169.376181047,-13164169.376181047,-13164169.376181046,-13164169.376181046,-13164169.376181044,-13164169.376181044,-13164169.376181042,-13164169.376181042,-13164169.37618104,-13164169.37618104,-13164169.376181038,-13164169.376181038,-13164169.376181036,-13164169.376181036,-13164169.376181034,-13164169.376181034,-13164169.376181033,-13164169.376181033,-13164169.37618103,-13164169.37618103,-13164169.376181029,-13164169.376181029,-13164169.376181027,-13164169.376181027,-13164169.376181025,-13164169.376181025,-13164169.376181023,-13164169.376181023,-13164169.376181021,-13164169.376181021,-13164169.37618102,-13164169.37618102,-13164169.376181018,-13164169.376181018,-13164169.376181018,-13164169.376181016,-13164169.376181016,-13164169.376181014,-13164169.376181014,-13164169.376181012,-13164169.376181012,-13164169.37618101,-13164169.37618101,-13164169.376181008,-13164169.376181008,-13164169.376181006,-13164169.376181006,-13164169.376181005,-13164169.376181005,-13164169.376181003,-13164169.376181003,-13164169.376181,-13164169.376181,-13164169.376180999,-13164169.376180999,-13164169.376180997,-13164169.376180997,-13164169.376180995,-13164169.376180995,-13164169.376180993,-13164169.376180993,-13164169.376180992,-13164169.376180992,-13164169.37618099,-13164169.37618099,-13164169.376180988,-13164169.376180988,-13164169.376180986,-13164169.376180986,-13164169.376180984,-13164169.376180984,-13164169.376180982,-13164169.376180982,-13164169.37618098,-13164169.37618098,-13164169.376180978,-13164169.376180978,-13164169.376180977,-13164169.376180977,-13164169.376180975,-13164169.376180975,-13164169.376180973,-13164169.376180973,-13164169.376180973,-13164169.376180971,-13164169.376180971,-13164169.37618097,-13164169.37618097,-13164169.376180967,-13164169.376180967,-13164169.376180965,-13164169.376180965,-13164169.376180964,-13164169.376180964,-13164169.376180962,-13164169.376180962,-13164169.37618096,-13164169.37618096,-13164169.376180958,-13164169.376180958,-13164169.376180956,-13164169.376180956,-13164169.376180954,-13164169.376180954,-13164169.376180952,-13164169.376180952,-13164169.37618095,-13164169.37618095,-13164169.376180949,-13164169.376180949,-13164169.376180947,-13164169.376180947,-13164169.376180945,-13164169.376180945,-13164169.376180943,-13164169.376180943,-13164169.376180941,-13164169.376180941,-13164169.37618094,-13164169.37618094,-13164169.376180938,-13164169.376180938,-13164169.376180936,-13164169.376180936,-13164169.376180934,-13164169.376180934,-13164169.376180934,-13164169.376180932,-13164169.376180932,-13164169.37618093,-13164169.37618093,-13164169.376180928,-13164169.376180928,-13164169.376180926,-13164169.376180926,-13164169.376180924,-13164169.376180924,-13164169.376180923,-13164169.376180923,-13164169.37618092,-13164169.37618092,-13164169.376180919,-13164169.376180919,-13164169.376180917,-13164169.376180917,-13164169.376180915,-13164169.376180915,-13164169.376180913,-13164169.376180913,-13164169.376180911,-13164169.376180911,-13164169.37618091,-13164169.37618091,-13164169.376180908,-13164169.376180908,-13164169.376180906,-13164169.376180906,-13164169.376180904,-13164169.376180904,-13164169.376180902,-13164169.376180902,-13164169.376180902,-13164169.3761809,-13164169.3761809,-13164169.376180898,-13164169.376180898,-13164169.376180897,-13164169.376180897,-13164169.376180895,-13164169.376180895,-13164169.376180893,-13164169.376180893,-13164169.376180891,-13164169.376180891,-13164169.37618089,-13164169.37618089,-13164169.376180887,-13164169.376180887,-13164169.376180885,-13164169.376180885,-13164169.376180883,-13164169.376180883,-13164169.376180882,-13164169.376180882,-13164169.37618088,-13164169.37618088,-13164169.376180878,-13164169.376180878,-13164169.376180876,-13164169.376180876,-13164169.376180874,-13164169.376180874,-13164169.376180872,-13164169.376180872,-13164169.376180872,-13164169.37618087,-13164169.37618087,-13164169.376180869,-13164169.376180869,-13164169.376180867,-13164169.376180867,-13164169.376180865,-13164169.376180865,-13164169.376180863,-13164169.376180863,-13164169.376180861,-13164169.376180861,-13164169.37618086,-13164169.37618086,-13164169.376180857,-13164169.376180857,-13164169.376180856,-13164169.376180856,-13164169.376180854,-13164169.376180854,-13164169.376180852,-13164169.376180852,-13164169.37618085,-13164169.37618085,-13164169.376180848,-13164169.376180848,-13164169.376180846,-13164169.376180846,-13164169.376180844,-13164169.376180844,-13164169.376180844,-13164169.376180843,-13164169.376180843,-13164169.37618084,-13164169.37618084,-13164169.376180839,-13164169.376180839,-13164169.376180837,-13164169.376180837,-13164169.376180835,-13164169.376180835,-13164169.376180833,-13164169.376180833,-13164169.376180831,-13164169.376180831,-13164169.37618083,-13164169.37618083,-13164169.376180828,-13164169.376180828,-13164169.376180826,-13164169.376180826,-13164169.376180824,-13164169.376180824,-13164169.376180822,-13164169.376180822,-13164169.37618082,-13164169.37618082,-13164169.376180818,-13164169.376180818,-13164169.376180818,-13164169.376180816,-13164169.376180816,-13164169.376180815,-13164169.376180815,-13164169.376180813,-13164169.376180813,-13164169.37618081,-13164169.37618081,-13164169.376180809,-13164169.376180809,-13164169.376180807,-13164169.376180807,-13164169.376180805,-13164169.376180805,-13164169.376180803,-13164169.376180803,-13164169.376180802,-13164169.376180802,-13164169.3761808,-13164169.3761808,-13164169.376180798,-13164169.376180798,-13164169.376180796,-13164169.376180796,-13164169.376180796,-13164169.376180794,-13164169.376180794,-13164169.376180792,-13164169.376180792,-13164169.37618079,-13164169.37618079,-13164169.376180789,-13164169.376180789,-13164169.376180787,-13164169.376180787,-13164169.376180785,-13164169.376180785,-13164169.376180783,-13164169.376180783,-13164169.376180781,-13164169.376180781,-13164169.37618078,-13164169.37618078,-13164169.376180777,-13164169.376180777,-13164169.376180775,-13164169.376180775,-13164169.376180774,-13164169.376180774,-13164169.376180772,-13164169.376180772,-13164169.376180772,-13164169.37618077,-13164169.37618077,-13164169.376180768,-13164169.376180768,-13164169.376180766,-13164169.376180766,-13164169.376180764,-13164169.376180764,-13164169.376180762,-13164169.376180762,-13164169.37618076,-13164169.37618076,-13164169.376180759,-13164169.376180759,-13164169.376180757,-13164169.376180757,-13164169.376180755,-13164169.376180755,-13164169.376180753,-13164169.376180753,-13164169.376180751,-13164169.376180751,-13164169.376180751,-13164169.37618075,-13164169.37618075,-13164169.376180748,-13164169.376180748,-13164169.376180746,-13164169.376180746,-13164169.376180744,-13164169.376180744,-13164169.376180742,-13164169.376180742,-13164169.37618074,-13164169.37618074,-13164169.376180738,-13164169.376180738,-13164169.376180736,-13164169.376180736,-13164169.376180734,-13164169.376180734,-13164169.376180733,-13164169.376180733,-13164169.37618073,-13164169.37618073,-13164169.37618073,-13164169.376180729,-13164169.376180729,-13164169.376180727,-13164169.376180727,-13164169.376180725,-13164169.376180725,-13164169.376180723,-13164169.376180723,-13164169.376180721,-13164169.376180721,-13164169.37618072,-13164169.37618072,-13164169.376180718,-13164169.376180718,-13164169.376180716,-13164169.376180716,-13164169.376180714,-13164169.376180714,-13164169.376180712,-13164169.376180712,-13164169.37618071,-13164169.37618071,-13164169.37618071,-13164169.376180708,-13164169.376180708,-13164169.376180707,-13164169.376180707,-13164169.376180705,-13164169.376180705,-13164169.376180703,-13164169.376180703,-13164169.376180701,-13164169.376180701,-13164169.3761807,-13164169.3761807,-13164169.376180697,-13164169.376180697,-13164169.376180695,-13164169.376180695,-13164169.376180694,-13164169.376180694,-13164169.376180692,-13164169.376180692,-13164169.376180692,-13164169.37618069,-13164169.37618069,-13164169.376180688,-13164169.376180688,-13164169.376180686,-13164169.376180686,-13164169.376180684,-13164169.376180684,-13164169.376180682,-13164169.376180682,-13164169.37618068,-13164169.37618068,-13164169.376180679,-13164169.376180679,-13164169.376180677,-13164169.376180677,-13164169.376180675,-13164169.376180675,-13164169.376180675,-13164169.376180673,-13164169.376180673,-13164169.376180671,-13164169.376180671,-13164169.37618067,-13164169.37618067,-13164169.376180667,-13164169.376180667,-13164169.376180666,-13164169.376180666,-13164169.376180664,-13164169.376180664,-13164169.376180662,-13164169.376180662,-13164169.37618066,-13164169.37618066,-13164169.376180658,-13164169.376180658,-13164169.376180656,-13164169.376180656,-13164169.376180656,-13164169.376180654,-13164169.376180654,-13164169.376180653,-13164169.376180653,-13164169.37618065,-13164169.37618065,-13164169.376180649,-13164169.376180649,-13164169.376180647,-13164169.376180647,-13164169.376180645,-13164169.376180645,-13164169.376180643,-13164169.376180643,-13164169.376180641,-13164169.376180641,-13164169.37618064,-13164169.37618064,-13164169.37618064,-13164169.376180638,-13164169.376180638,-13164169.376180636,-13164169.376180636,-13164169.376180634,-13164169.376180634,-13164169.376180632,-13164169.376180632,-13164169.37618063,-13164169.37618063,-13164169.376180628,-13164169.376180628,-13164169.376180626,-13164169.376180626,-13164169.376180625,-13164169.376180625,-13164169.376180623,-13164169.376180623,-13164169.376180623,-13164169.37618062,-13164169.37618062,-13164169.376180619,-13164169.376180619,-13164169.376180617,-13164169.376180617,-13164169.376180615,-13164169.376180615,-13164169.376180613,-13164169.376180613,-13164169.376180612,-13164169.376180612,-13164169.37618061,-13164169.37618061,-13164169.376180608,-13164169.376180608,-13164169.376180608,-13164169.376180606,-13164169.376180606,-13164169.376180604,-13164169.376180604,-13164169.376180602,-13164169.376180602,-13164169.3761806,-13164169.3761806,-13164169.376180599,-13164169.376180599,-13164169.376180597,-13164169.376180597,-13164169.376180595,-13164169.376180595,-13164169.376180593,-13164169.376180593,-13164169.376180591,-13164169.376180591,-13164169.376180591,-13164169.37618059,-13164169.37618059,-13164169.376180587,-13164169.376180587,-13164169.376180585,-13164169.376180585,-13164169.376180584,-13164169.376180584,-13164169.376180582,-13164169.376180582,-13164169.37618058,-13164169.37618058,-13164169.376180578,-13164169.376180578,-13164169.376180576,-13164169.376180576,-13164169.376180576,-13164169.376180574,-13164169.376180574,-13164169.376180572,-13164169.376180572,-13164169.37618057,-13164169.37618057,-13164169.376180569,-13164169.376180569,-13164169.376180567,-13164169.376180567
