,0,1,2,3,4,5,6,7,8,9,10,11,12,13,14,15,16,17,18,19,20,21,22,23,24,25,26,27,28,29,30,31,32,33,34,35,36,37,38,39,40,41,42,43,44,45,46,47,48,49,50,51,52,53,54,55,56,57,58,59,60,61,62,63,64,65,66,67,68,69,70,71,72,73,74,75,76,77,78,79,80,81,82,83,84,85,86,87,88,89,90,91,92,93,94,95,96,97,98,99,100,101,102,103,104,105,106,107,108,109,110,111,112,113,114,115,116,117,118,119,120,121,122,123,124,125,126,127,128,129,130,131,132,133,134,135,136,137,138,139,140,141,142,143,144,145,146,147,148,149,150,151,152,153,154,155,156,157,158,159,160,161,162,163,164,165,166,167,168,169,170,171,172,173,174,175,176,177,178,179,180,181,182,183,184,185,186,187,188,189,190,191,192,193,194,195,196,197,198,199,200,201,202,203,204,205,206,207,208,209,210,211,212,213,214,215,216,217,218,219,220,221,222,223,224,225,226,227,228,229,230,231,232,233,234,235,236,237,238,239,240,241,242,243,244,245,246,247,248,249,250,251,252,253,254,255,256,257,258,259,260,261,262,263,264,265,266,267,268,269,270,271,272,273,274,275,276,277,278,279,280,281,282,283,284,285,286,287,288,289,290,291,292,293,294,295,296,297,298,299,300,301,302,303,304,305,306,307,308,309,310,311,312,313,314,315,316,317,318,319,320,321,322,323,324,325,326,327,328,329,330,331,332,333,334,335,336,337,338,339,340,341,342,343,344,345,346,347,348,349,350,351,352,353,354,355,356,357,358,359,360,361,362,363,364,365,366,367,368,369,370,371,372,373,374,375,376,377,378,379,380,381,382,383,384,385,386,387,388,389,390,391,392,393,394,395,396,397,398,399,400,401,402,403,404,405,406,407,408,409,410,411,412,413,414,415,416,417,418,419,420,421,422,423,424,425,426,427,428,429,430,431,432,433,434,435,436,437,438,439,440,441,442,443,444,445,446,447,448,449,450,451,452,453,454,455,456,457,458,459,460,461,462,463,464,465,466,467,468,469,470,471,472,473,474,475,476,477,478,479,480,481,482,483,484,485,486,487,488,489,490,491,492,493,494,495,496,497,498,499,500,501,502,503,504,505,506,507,508,509,510,511,512,513,514,515,516,517,518,519,520,521,522,523,524,525,526,527,528,529,530,531,532,533,534,535,536,537,538,539,540,541,542,543,544,545,546,547,548,549,550,551,552,553,554,555,556,557,558,559,560,561,562,563,564,565,566,567,568,569,570,571,572,573,574,575,576,577,578,579,580,581,582,583,584,585,586,587,588,589,590,591,592,593,594,595,596,597,598,599,600,601,602,603,604,605,606,607,608,609,610,611,612,613,614,615,616,617,618,619,620,621,622,623,624,625,626,627,628,629,630,631,632,633,634,635,636,637,638,639,640,641,642,643,644,645,646,647,648,649,650,651,652,653,654,655,656,657,658,659,660,661,662,663,664,665,666,667,668,669,670,671,672,673,674,675,676,677,678,679,680,681,682,683,684,685,686,687,688,689,690,691,692,693,694,695,696,697,698,699,700,701,702,703,704,705,706,707,708,709,710,711,712,713,714,715,716,717,718,719,720,721,722,723,724,725,726,727,728,729,730,731,732,733,734,735,736,737,738,739,740,741,742,743,744,745,746,747,748,749,750,751,752,753,754,755,756,757,758,759,760,761,762,763,764,765,766,767,768,769,770,771,772,773,774,775,776,777,778,779,780,781,782,783,784,785,786,787,788,789,790,791,792,793,794,795
0,-2745.094897977037,-3062.411773968217,-2452.607239318017,-2704.777107192082,-3332.33198968044,-3070.559965833193,-2774.478083093766,-2746.191407707827,-2510.67455683136,-2422.633162154473,-3223.7473366323043,-2690.0755982144597,-2770.577084565961,-2742.9366778367466,-2786.716539661065,-2749.941983115843,-2739.4323322143478,-2586.626542758915,-2724.4694734908426,-2656.202572793086,-2982.1424641132726,-2736.4566452111017,-2756.356554303886,-3166.070689928655,-2732.843296149908,-2577.875412873248,-2739.365400717077,-2557.7119325604162,-2666.5918163557835,-2701.8924827027126,-2578.541837077347,-2518.689942216368,-2849.853800981379,-2755.8988465768407,-2740.3205384253442,-2763.6346278056158,-2901.6815715371267,-2756.67846259568,-2685.388973584853,-2870.195828003013,-2668.9355836021655,-2688.0516877513733,-2741.6753851412973,-2883.6066432784614,-2506.187590203297,-2563.622378881663,-3105.680689444803,-2529.6065906043314,-2521.2994601600813,-2584.4132062739495,-3091.252213957274,-2478.9286697399284,-2498.4382834601442,-2751.973133541064,-3131.52541920677,-2749.5044519039147,-3238.1945289204755,-2745.515005279746,-2749.6364195109695,-2681.47783210176,-2856.3721577838014,-2829.6739319864855,-2755.380967903382,-2757.9323089232794,-2426.059900757949,-2385.649260699575,-2919.4141059375547,-2478.330003838984,-2653.803305727822,-2504.1893418992454,-2570.0591488172204,-3104.4899625031535,-2684.850616117457,-3100.4553794502385,-2826.1942756743847,-2905.7874165875846,-2566.6885946810607,-2577.0940675403235,-2660.110245710452,-2505.2372931099626,-2757.3473583671666,-2739.47699551902,-2907.4356687951577,-2748.7138297686834,-2754.6857119739057,-2673.771251855689,-2751.0667797972824,-2782.1854412483162,-2743.0472457235887,-2880.3216411319154,-2745.398577883168,-2750.649083806528,-2753.901166930769,-2497.9086273062153,-2762.9049385201906,-2773.069840962738,-2835.439922735566,-3148.513125742051,-3194.1587763420835,-2733.7701769115884,-2504.1349276473375,-2655.1401263665816,-2488.1661947632547,-2932.2616128939676,-2958.3096765890614,-2546.3765653601713,-2895.488597652067,-2588.970619181221,-3074.7246853131755,-2735.9228470003104,-2657.0608550498723,-2551.3126912048206,-2745.4385751007435,-2565.386798997652,-2682.714418938514,-2878.685969944012,-3116.49691379772,-2753.2255815220396,-2691.819113252038,-2436.7667765389315,-2752.2723283766964,-2498.6042320092015,-2863.00378483916,-2750.796046268618,-3087.0863238288584,-3018.930851458099,-2727.749790208173,-2522.0632345247936,-2534.261439874761,-2734.666635946408,-3197.2611694477573,-2428.0213415842836,-2730.8563878930618,-2704.564988564739,-2965.664217039542,-2950.118574892382,-2779.2155641402005,-2748.067056365644,-2712.3969727014137,-3063.753576512373,-2735.2052349447335,-2850.388285191295,-2716.7847104549064,-2549.246439169584,-2671.3956097995438,-2733.4408261995814,-2890.837295666694,-2772.5503611616796,-2756.702383397214,-2497.478410681353,-2526.8482780478425,-2760.111782361272,-2670.593327980532,-2865.3556686381717,-2791.043641167214,-2433.6155029506904,-2826.0815561043883,-2875.018794872676,-2730.995458441837,-2704.708182956154,-2713.310880704968,-3231.827279374225,-2504.879254277038,-3145.7972881469586,-2925.253507066781,-3085.9651577467416,-3056.3920806738165,-2746.930217008012,-2570.526172985976,-2994.156041975268,-2656.7438851746406,-2750.3950981846738,-2751.9131838503654,-2741.49982735417,-3122.2082840020457,-2742.582676569044,-3148.185602965851,-3323.430667987829,-2572.3183149671195,-2732.989783164096,-2664.020562488337,-2754.6004671328055,-3242.5323674601805,-2748.030407743841,-2678.436478871485,-2577.0463151643,-2549.3960323160895,-2737.3695173974043,-2511.375689213216,-2918.001132609557,-2725.1914293969417,-2745.8162793192637,-2745.979702139834,-2505.4489501374073,-2754.894198547249,-2751.5795730321893,-2930.8300873279563,-2728.8939791041385,-2762.326759603817,-2881.370621894123,-2813.084512748252,-2759.7500869229275,-2768.8552493493653,-3052.019784944649,-2913.8134347776586,-2583.778420583373,-3218.7000363806264,-3111.338182452025,-2901.6597210977507,-2877.067415080321,-2584.7305544578962,-2687.9689370400615,-2761.7238100278437,-2518.291543373332,-2543.580053166873,-2563.743389597741,-2756.6335903185477,-2792.0119076593146,-2758.7456095106854,-2791.829044311841,-3173.539168783107,-2885.866609961917,-3181.6939147092544,-3201.8149181289336,-3237.0762605533987,-2543.4424865151827,-2769.5768461675875,-2698.935622574947,-2649.932479805008,-2719.8783934816875,-2980.168108397218,-3180.197143226205,-3259.4999650622385,-2536.709105900999,-2424.1485054691816,-3015.2047346499944,-2851.022933062377,-2723.1308327216443,-2430.9283725628698,-2750.5862861969263,-2939.307987766343,-3319.6298504769725,-2546.6578887062333,-2768.3989484665713,-2745.4783882840134,-2546.579075852509,-2766.9685559666864,-3130.3431623189185,-2732.5882420453863,-2560.344370494956,-3154.760948773912,-2894.0914631651335,-2745.926558704583,-2951.3638755241514,-2751.9627231704126,-2944.9076605984014,-2823.126108598254,-2564.1560369718004,-2774.5279373901762,-2717.328715083188,-2684.94561648103,-3143.7784571987922,-2685.6186019662896,-2559.4105751850207,-2435.369319068884,-2557.457563067987,-2845.777821587241,-2749.3306000639673,-2762.9704528875263,-2609.904235585473,-2840.236658437341,-2754.504376155259,-2742.782454030004,-3064.0457785245817,-2866.6431106861332,-2738.9605887460734,-2740.292128934305,-2907.742176056787,-2428.9683331550505,-3264.713721206221,-3165.479866875054,-2415.475522422188,-2753.471737257547,-2751.77862845484,-3192.9693011778727,-2750.236397283083,-2750.432478200999,-2633.3335757031405,-2883.5333882102454,-2548.098586519532,-3113.690186094776,-2426.890434928362,-2552.820019493535,-2906.5877235402954,-2912.4067284389826,-2744.9910444511806,-2745.9135070676507,-3229.513038452851,-2645.379384880456,-3126.656233608545,-3018.879640414894,-3188.09162333969,-2657.7679474373112,-2867.3726663749458,-2423.44629679789,-2763.3191955764237,-3114.5193499094103,-2742.089625753684,-3188.371337632751,-2767.008108097117,-2738.490303256692,-2529.6726653820056,-2751.6146038312986,-2898.68049315657,-2660.0147814183056,-3149.8111010813454,-2758.912972285573,-2766.7646121893586,-2746.4548945497463,-2714.5765803181084,-2910.2126708067367,-2440.693375123692,-3230.596616949802,-3179.891331345068,-2851.9040798588744,-2556.1340014915345,-2760.8460714367748,-2952.1946268288443,-2507.62114915733,-2744.295144543948,-2567.8932767505994,-3037.768899176501,-2577.458473432921,-2770.66004232114,-3159.669949863795,-2723.245448251766,-2736.808776597349,-2821.3928203051896,-2542.994312956696,-2738.4154926350616,-2806.4621625724926,-2736.277231406484,-2760.0987738164317,-2898.0579916157426,-2488.6840900353536,-2742.9924667125706,-2569.9785804312387,-2728.948028986278,-2663.8973535450446,-2559.3072454692347,-2582.8100865889446,-2897.6810228185946,-3143.488065177386,-2760.5104064079073,-2763.41655146844,-2807.4796600302507,-2837.405442090211,-2760.0573111337335,-2429.21278941741,-2799.389171165062,-2647.4171817073516,-2743.061959245119,-2764.310864552729,-2749.6178734056152,-2734.8397330177113,-2860.5399248998483,-3249.1094199588233,-2746.1233959234114,-2693.748643152909,-2424.20494962874,-2745.6943478169915,-2866.8944043078423,-3112.658201877854,-2746.50133439547,-2541.9423087163013,-2893.8080337969955,-2748.809045424537,-2547.8798277538604,-2871.9872476695555,-2420.7780757136175,-3081.230778052958,-2889.380705056757,-2665.1109164702634,-2867.1171467085496,-2745.053127362414,-2751.8544343592375,-2863.6357866360063,-2721.1438853893196,-3047.6067425018764,-2729.522516480522,-2725.9055080436424,-2429.330756106366,-2742.2899991802915,-2799.963347012896,-3177.3737627317464,-3106.138443469486,-2741.2164821044,-2742.9173641347634,-3165.7640224913584,-2882.365590785199,-2748.57165655855,-3103.6448814395653,-2732.063088074351,-3145.8728201408353,-2745.463368215751,-2688.618401084814,-2731.838977673905,-2577.2908949479192,-2754.2047767867125,-2651.135968311513,-2558.606825084616,-2436.0296740316803,-3126.601281734748,-2718.18846603062,-3159.003165762268,-2427.9993013507674,-3212.8815172971154,-2551.4640550288254,-2652.023520782799,-2745.8784312402136,-2868.66743282279,-3280.498646241282,-3164.028437381075,-2569.5632361763014,-2538.2581090309486,-2744.705807650166,-2430.7135534992817,-2695.9668986037586,-3125.1515618828194,-2415.782827486978,-2743.791241642754,-2739.14162026887,-2723.081836179252,-2738.396091281024,-2735.4079556965294,-2431.463460848455,-3188.5777585796495,-2720.270181653926,-3091.487383600116,-2738.938918568639,-2877.9738060943173,-2630.313771185319,-2724.6340291169813,-2570.255878351567,-2411.491630666072,-3195.603165784837,-3174.9846194007155,-2733.198434213636,-2437.4265545111853,-2769.7806451472848,-2655.2590314213458,-2726.0108426721804,-2723.202023729008,-2753.4769126704605,-2531.8189295741054,-2835.430453466132,-2520.1684752721476,-2431.3824117819404,-2585.8251575639424,-2878.9703055813684,-3044.9965241801947,-2841.663570259364,-3165.9249753988165,-2727.5857426300654,-2733.467652059595,-3087.4699200784835,-2732.5870092205287,-2730.1517295504536,-2932.0016841886345,-2417.987684839948,-2429.233699925365,-2732.0140917160174,-2636.106941322878,-2548.929827944047,-2879.9136887057616,-2442.1130330703027,-2929.376373530246,-2652.1744583900245,-3159.7364367116206,-2726.5850471195504,-2418.4512939347037,-2898.378139716454,-2768.3071324193675,-2422.0573793848107,-2905.4892453839893,-2549.3922353701937,-3080.90252028601,-3147.457409930587,-2861.439724524054,-3036.113525242907,-2748.0523771734215,-2928.2552054034,-2645.4056935438894,-2753.8529674232905,-2549.8018128638096,-2737.876654565897,-2765.5449026235015,-2749.672680057818,-2561.030405379432,-3081.4860773177475,-3030.081794616499,-2547.9251156962396,-2583.0344905205757,-2740.0085084877983,-2747.289995924191,-2566.762949527442,-2762.1288632080477,-2754.9652394721843,-3174.395501102394,-2550.0121527290653,-2753.5462119403473,-3143.714378821525,-3189.204238370431,-2650.410851456396,-2426.5611449647936,-2748.6295137866023,-2653.4238437623303,-2744.3495179309343,-2760.480372422715,-2867.845728410496,-2754.973217781642,-3202.877247514566,-2717.1741631099385,-2901.9308362978377,-2952.7141826867432,-2431.137178478137,-3146.308620146261,-2655.534331646302,-2546.816872643098,-2533.596666359617,-2685.260077999739,-2630.669791045667,-2591.0463302923486,-3009.9165601793375,-2888.1307453532077,-3017.7955595449957,-2744.033911286336,-2736.9325448679188,-2654.84966850594,-3140.243513288571,-2755.9260862925576,-2630.9254095021683,-2509.8493745809237,-2872.539097879782,-2948.636777498074,-2735.953051875209,-2563.7475321206657,-2716.542485188659,-2748.980559575617,-2738.0018189947887,-3040.9601588768546,-2753.1634297783553,-2842.2253074701443,-2728.7800304304888,-3021.6021529534974,-3245.548140177037,-2563.5720523427194,-3130.5440087659917,-2625.9390459558986,-3124.1036785887236,-2704.825141375829,-2420.014939179525,-2566.744876162361,-2999.9933395669727,-2743.825853386004,-2736.306158409403,-3166.3287657997344,-3228.875243119911,-3067.111589408032,-2719.69440318587,-2529.7625547915545,-2832.7038763486144,-2726.6489167405134,-3109.700322405433,-3070.9681883908365,-2788.35583777357,-3203.225335174457,-2856.948641388041,-2934.2466092009136,-2673.2333803142137,-2899.4357079909123,-3051.8423940231496,-2758.004347974862,-2427.524952779374,-2665.802381067054,-2981.1602876444385,-2742.016987536885,-2729.031151797168,-2743.3668721879617,-3175.0979158294085,-2714.2903952486668,-2429.5273330726686,-2414.2625290448964,-2659.822117733481,-2433.074337975979,-2430.749067786343,-2853.89341224916,-2856.314374231725,-2839.0801109566687,-3113.223171258433,-2682.123160601487,-3062.314218989545,-3187.0936594762675,-2726.878662855337,-2542.2844191452477,-2733.4788715115706,-2745.1529100546145,-3021.169204958353,-2741.894979622858,-2852.265445417806,-2509.7995486191912,-2707.1226757980353,-2739.055640502118,-2344.893443084966,-2428.015400185253,-2927.5117553894243,-3103.777641596379,-2727.9619792688654,-2767.552632418061,-3169.834795044124,-2428.2147968386394,-3090.6073972283834,-2729.669913051245,-2809.7684289905874,-2502.3585187282706,-2570.499284900136,-2808.616184335025,-2725.666537926341,-2872.6806256450923,-2557.2806494289903,-2723.57486118424,-3157.91534547213,-2923.8761504783565,-2724.42286211694,-2871.438112917063,-3118.589171030575,-2727.9424394556545,-2577.495002184788,-2739.4217370794595,-2890.756131752317,-3071.650743660968,-2553.254310259229,-2765.7239954767633,-2881.3537330563086,-2750.473079829021,-2434.6039000385204,-2554.5557528631603,-3101.5587589304487,-2723.279311718921,-2727.748069495038,-2432.4708700930587,-2969.917846208547,-2888.5671325919307,-2677.7289285147976,-2585.126991122016,-2430.1138875855017,-3041.977788759567,-2882.3311282719933,-3118.460947559033,-2944.121972015828,-2725.059964015301,-2555.5850613301523,-2735.378446515483,-2720.506001785843,-2968.4628651117578,-3045.780701931453,-2735.0362081291382,-2764.264779585095,-3031.036781516994,-3083.3277751694804,-2873.0520524089898,-3073.815135644548,-2627.2407273938534,-2949.149156269818,-2423.205637341844,-2725.672452733078,-2732.315687792553,-2656.7752866857877,-2840.4513234218916,-2562.97364241806,-2705.3798708636446,-3009.741310313115,-2720.0548336455154,-2713.1286501597115,-2747.728849387211,-2745.271914725237,-3086.6847588414175,-2821.636984292738,-2582.9830301152006,-3028.6590495777546,-2720.891622083377,-2717.9315062219594,-2718.4668613734475,-2749.7713282852287,-2567.217278500635,-2745.574999155979,-2892.568830972654,-3128.055166614061,-2992.9413511088337,-2901.674285194599,-2430.7821356464424,-2431.1543726145223,-2709.4894134785277,-2938.781401081406,-2744.4624378148847,-3391.9438408732885,-2737.7413291076473,-3136.3881318340987,-2642.425600649111,-2539.583389007166,-2740.480227720527,-2733.2146118545324,-3130.662198202846,-2724.884798255476,-2745.623916077223,-2822.711354371549,-3137.1579472139592,-2535.2875462798866,-3129.1391879145585,-2904.572747410786,-2832.136937658135,-2590.3558810774975,-3385.4114850317414,-2737.558176997934,-2865.265301660239,-2787.8539726555077,-2844.2453979202196,-2544.143326110767,-2744.3592668446154,-2739.408977001186,-2770.418136684846,-2718.8254046154952,-2659.5195261604417,-3154.4642750951493,-3206.9437536704504,-2737.074481690237,-3011.8152452941044,-2830.686528697454,-2891.4187431932646,-3137.1265056440657,-2735.573493887709,-3124.608415413357,-2868.9643764963685,-2564.15120753249,-2864.6481648395657,-2864.2840681162843,-2756.2114713810543,-2857.254313345135,-3048.366275815712,-2755.3308843748086,-3193.6877957107067,-2889.214190744239,-3004.6912351241804,-2906.6623183564175,-2911.6025545371085,-3333.035166588016,-2559.1819741667387,-2679.082613428438,-2853.702260196803,-3123.3988794868,-2741.010531932287,-2543.241184672452,-3098.75369248564,-3090.700620929338,-2744.8066720693223,-2733.218749809138,-3191.5954855887258,-2887.2497715884406,-2841.28757174652,-2745.1483499105357,-2728.8709609085686,-2740.0026521735967,-3152.9338841585227,-2580.0388627801153,-2762.411200829873,-2910.36156255133,-2731.4921399429572,-2435.3167625112105,-2577.0384906575377,-2732.6276990437455,-2526.109883943401,-2820.532633202372,-3112.8330417501056,-3136.6835828204003,-2722.763527544975,-2850.8361861390827,-3027.594931948413,-2428.573647176541,-2427.404533157502,-2734.574049696713,-2438.67152832036,-2561.5451325871677,-2738.8665376793865,-3104.932399867291,-2643.4190060078217,-2737.0245668934053
1,341.3797495948606,340.3783479625077,343.38169500523514,341.37935411627575,338.376098136718,339.37742910819225,341.37961468326057,341.3794200834251,342.3804819028455,343.38225651596235,340.3787973395258,341.37942305626814,341.3793910233232,341.3793765032466,341.3797064950784,341.3793848937818,341.3795407496162,342.38046966822003,341.37931264925646,341.37955178063453,339.37709879261234,341.37937875837446,341.37950686992787,339.37764825657393,341.3798631770738,342.38062075940155,341.3795958180655,342.3805816330711,341.37953026715496,341.37972319887245,342.3805151419377,342.3809474180643,340.37846498935056,341.37935887714576,341.37940599622806,341.3794211751694,340.37854986988464,341.37938757269205,341.3800236490183,340.3784679741319,341.379608829267,341.37944255283037,341.3801600261054,340.3783642820516,342.38091102047036,342.3805370007272,340.3784850551826,342.3808107576349,342.38128776431273,342.3809206442431,340.3784338053909,342.38047546823526,342.3810823017833,341.37935473190356,340.37824711514776,341.379520828957,339.377298526533,341.37948682387247,341.3799523327427,341.37957263542836,340.3787689370947,340.37875836639176,341.3800926737562,341.3794766394638,343.3817213133647,343.38168026928906,340.37842529849996,342.38044679820536,341.379727697802,342.38062226333903,342.38047400756517,340.3785555763363,341.38025615322624,339.37714663013713,340.37828103208966,340.37825322522946,342.3808216826426,342.3806348338507,342.3807001840463,342.38100407479465,341.3793831422313,341.37939491778184,340.3788324832706,341.37934422972967,341.37954297162287,341.379312166909,341.3795733973721,341.37938734717824,341.3796795974558,340.37826564882306,341.3795716958888,341.3794054509567,341.3795159444085,342.3806358451094,341.3793907917231,341.3793976667199,340.3786560873596,339.37731674211005,339.3771526094788,341.3793184076316,342.3804659360341,341.3793247010871,342.38062162761827,340.3782250678305,340.37889264710554,342.3807734891381,340.3783246142052,342.38045005541136,340.3783515566361,341.3794036010311,341.3793751563305,342.38054864812983,341.37946129117756,342.3807207190438,341.37951107632483,340.37874634984956,340.3783648359013,341.3797958520545,341.3795241749503,343.3820757581534,341.37948592994627,342.38100247193154,340.37835141225986,341.3794256179822,339.3773863011315,339.37731749402997,341.3800329367878,342.38062657884797,342.3805565824297,341.3795523237414,339.37714721647706,343.3819158804439,341.37950817470005,341.37941225591413,340.3785488689075,340.3787536187805,341.3795567419366,341.37997039630176,341.37957203989237,339.3773702494543,341.37953833867,340.37822132790785,341.37936126078444,342.38123191459584,341.37933207982,341.3794502590688,340.3783363416004,341.37933098562416,341.37937367812367,342.38062269015813,342.38081730185,341.37942599200153,341.37977388873736,340.37821852018936,340.37848578876515,343.38222953020204,340.3785817650524,340.37849964921566,341.37965308647733,339.3772195180102,341.379516631323,339.3774384269337,342.38113256990516,340.3783111102446,340.37853385335,339.3770910404703,339.377114203486,341.3794526501916,342.3807065357297,340.3783744661966,341.3793111731094,341.3797573007151,341.379494356576,341.3797769500016,340.3782659815965,341.3794121733403,339.3771918058057,338.3760055123001,342.38084679440925,341.3797594990735,341.3794381819671,341.37953329361835,339.37711620137327,341.3793935773901,341.379315241594,342.3804494045601,342.38057250579965,341.3795875225817,342.3805689561006,340.3788291984455,341.3793268584462,341.3796973657888,341.37991929852086,342.3807759807175,341.37963400868597,341.3793869625552,340.3782466864054,341.3794602833613,341.37935483783076,340.3782004128748,340.3782144011643,341.37977864402114,340.3782125178636,339.37715092979795,340.37832319494237,342.3808286876683,339.37711535210855,340.37850204353526,340.37828803435565,340.3787079453551,342.3808957375005,341.3793932979088,341.37943223369024,342.38046716427607,342.38061006816986,342.3806299519722,341.3794747228105,340.3786468849736,341.3797156334827,341.3794684618347,339.37735722893285,340.37865225544675,339.3775759222907,339.37710798695224,339.3771566879153,342.3806158509436,341.37940356444614,341.3797318421175,341.37956167828105,341.37932528831544,340.3784082994451,339.3771607958024,339.37721481334063,342.38050158436295,343.38170382012436,340.3783895265092,340.37874082570096,341.3794733566272,343.38184211576726,341.37955914925055,340.3782887299908,338.3765138610758,342.38119346456983,341.37946549906013,341.379759143019,342.38052032377874,341.3796473574909,339.37717492199897,341.37937183043,342.3808895189736,340.37822776033363,340.378324170766,341.37959987511715,340.37852885953646,341.3794233593205,340.37824280987456,340.37830084809895,342.3806256719696,341.37948301978605,341.37961547136865,341.3793467132939,340.3783277583152,341.3793144929926,342.3815130566035,343.38182773032713,342.3807741432718,340.37825620991083,341.3796939103119,341.3793741491524,341.37972312925774,340.37823866255667,341.37946184100514,341.37933254683503,340.3782995001441,340.37827879540123,341.37936739453625,341.3796135836337,340.3782018662165,343.3820279725819,339.3771193105666,339.37738712006654,343.3816793664515,341.3800828840579,341.37943117963476,339.37709256364366,341.37933746552187,341.37947282291844,341.3795774009535,340.37829901537845,342.3805545754354,340.3782857691753,343.3817306552455,342.38045678082005,340.3784294956728,340.3783582728231,341.37948836823506,341.37940998783586,339.37742643747004,341.37954983986515,339.37711913486254,340.3783156312375,339.3772127918568,341.3796579126636,340.37872981470434,343.381605955843,341.37940149369706,339.3773689254876,341.3794437685427,339.37716334081523,341.3797182062811,341.379323086578,342.38071865345796,341.37942564730054,340.3784546133468,341.37934704160267,339.3776296368513,341.37960879769975,341.3795918905466,341.3795806962855,341.3794138351712,340.37832650086995,343.3816869078202,339.3776744138981,339.3771111465489,340.3785853814139,342.3812525258204,341.3796355240092,340.3782577580578,342.38127330558723,341.3794047321304,342.38077021262376,340.37832105677154,342.38045494674594,341.37934438936804,339.37736660162716,341.37936143837214,341.3798395006142,340.3782426842359,342.38065892199893,341.37976603644205,340.37825109602403,341.37978998553996,341.37931965751676,340.37827798091655,342.3804360144292,341.37935011208094,342.3804679716972,341.37940055017583,341.3794318212114,342.38054436946965,342.38048727426695,340.3783346198147,339.37736057959785,341.3796805937483,341.37954762865905,340.37866090711503,340.37842519953955,341.37956210752833,343.3817285079091,340.37858212493825,341.3794204160131,341.37931748593417,341.3796369309369,341.3795234008707,341.37950635990705,340.37843018621487,339.37714240595756,341.37957231215006,341.3794553626248,343.38219357383497,341.37968076327275,340.3786644962159,339.37728876989536,341.3794540062724,342.3805174652479,340.3783391732558,341.3793990442135,342.3808647221986,340.3783362930271,343.38168297857544,340.37829270134,340.3782364989172,341.37984627208175,340.37882962040266,341.3793928896214,341.37935163317763,340.37872494711155,341.380039897744,340.3783422587483,341.380006815195,341.3793563716442,343.38196784078264,341.3794989800133,340.37824228998414,339.3771817680916,339.3772974657646,341.3795444133254,341.3794343583053,339.37732443979303,340.37834285472763,341.3798052353955,339.37718565825975,341.37966787756096,340.3783433913144,341.37936499375655,341.3796378344822,341.3797275737221,342.38108334665435,341.37947028567976,341.3800730388564,342.3807107308435,343.3816701657379,339.3771650972494,341.3793989629608,339.37717172042943,343.382593648301,339.3772824427035,342.3814685807229,341.37944696051727,341.37944782850843,340.37835894626926,338.3764959911614,339.3771293719531,342.3808057932982,342.38085238998553,341.3797105112361,343.38174441175016,341.37962542911,339.37725093425786,343.3815517891914,341.379346002068,341.37955101938053,341.3794363179689,341.37960095780204,341.3795758686661,343.3819516366606,339.3771653004269,341.37936322266563,340.3782190494879,341.3795323715439,340.3787311033845,341.37957804341676,341.3793443086911,342.3807332217642,343.38248794027635,339.37717881125485,339.3771479309029,341.3794492285573,343.38157352222515,341.3798412617355,341.3794044913775,341.379413639054,341.37989037516064,341.37935756477475,342.3805674256661,340.37832671746423,342.38045141753565,343.38169436874585,342.38074216345507,340.3786519012208,340.37827749350816,340.3782784423683,339.37708807485745,341.3794958299903,341.3793564304249,340.3782670465508,341.37965454296875,341.3796513742519,340.37822534644226,343.38237456914806,343.38165354720417,341.3794129909457,341.379547306784,342.3806188532625,340.37828038704515,343.38173156833665,340.37831120154647,341.379992663178,339.37726620641536,341.37984094293057,343.382076019823,340.3783012825136,341.37956614258235,343.38232091710205,340.37840922781993,342.3805495843787,340.37849960983016,339.3772911616092,340.37821802961025,340.3782749808652,341.3795806500484,340.37850450745333,341.3796258821449,341.3798594072612,342.38047648855814,341.3799829863536,341.3797529090755,341.3794395596789,342.3808131586549,340.3783481389779,340.3784081364783,342.38122944075883,342.38059423007616,341.37971919003957,341.3793185403482,342.38043073026995,341.37959566800356,341.37935568010306,339.37714713774557,342.38045715334295,341.37950672310836,339.3774775411657,339.3771620441982,341.3794419776049,343.38159926600076,341.37954026314804,341.3794901460931,341.3795140236924,341.3794318314413,340.37823742440094,341.3793741929915,339.3772771330503,341.37963064452657,340.3784371779268,340.3782495730534,343.3816626361686,339.37715409025793,341.37972722656457,342.38066184939106,342.3804846683469,341.37943060102936,341.3793253008431,342.38076092105644,340.37822022260025,340.37860199501176,339.37782550144607,341.37950635765685,341.3797793869846,341.3794486763995,339.3771345055579,341.37939348944593,341.3794133495486,342.38043745569786,340.37826101911566,340.3782486670062,341.379387430259,342.3805723977138,341.3799011390968,341.37966442098354,341.37950343762475,340.37846617680003,341.37938576570934,340.3783204130255,341.3798817360481,340.3783332303671,339.37714570332463,342.38081264626106,339.37717350341904,341.3796941163977,339.37718868747163,341.37982553513655,343.38160948087045,342.380523800237,339.3770991144558,341.3799144379976,341.37941580536074,339.37713839551316,339.3774178438396,340.3785529834953,341.3793600344849,342.38043054594124,340.3783520229222,341.37949659723745,340.3782665914977,339.3773404807478,340.37877361172065,339.3772819914725,341.37955490030237,340.37820300083865,341.37942877916583,340.3786300072905,339.3771669826509,341.3793604991204,343.3817384264612,341.37957317679775,339.3770863554528,341.37958829960746,341.3794052608092,341.38005592777984,339.3773893640465,341.3798884438162,343.3823216451119,343.3819917498215,341.37968797749375,343.3822817290787,343.3819806103155,340.37828388960804,340.37834147479407,340.37822873136196,340.37825602704856,341.37949145752486,339.37742794656384,339.377173435523,341.3794771661795,342.3808770586375,341.37965520746,341.3799563762614,339.37744213981415,341.379505752395,340.3789202954087,342.3807206445607,341.3795195894777,341.3795755611822,344.382804240772,343.3818952311837,340.3786214542075,339.3771704179875,341.3793218565076,341.37948834533233,339.37719051041785,343.3816262289179,340.37821592751203,341.37950739389566,340.3782714101167,342.3805210712162,342.3806825780281,340.37820407926523,341.3794334737573,340.37853367000355,342.3806208353,341.37964871756105,339.37767924341995,340.37822134820715,341.37984563626793,340.37824556400307,339.3771242709446,341.37963445631453,342.3806298431185,341.3793236325986,340.3786736723925,339.377221091682,342.38089020689193,341.3793929331591,340.37820456445064,341.37937392050713,343.38158489040734,342.38064427797804,339.37718556453444,341.3796552603447,341.3793676872531,343.381631346371,340.37820955678046,340.37846807088044,341.3795438240018,342.38082638408815,343.38157801423006,339.3771598507461,340.37828665775464,339.3772951418181,340.3782579577508,341.37933099269526,342.38057946074497,341.37995855059444,341.37972541027244,340.37834029794845,339.3771465767011,341.3795001825718,341.37948216053167,339.3771213718305,339.37720811504045,340.37827293589805,340.3782088139274,341.3793567559953,340.37829556777007,343.3818463122403,341.37938965835235,341.3798505055239,341.37943102943103,340.3782956536108,342.3809453772955,341.3793632387438,340.3783360998333,341.37995925498916,341.3797893774206,341.3799278211294,341.3798237190068,339.3772068663261,340.3784743261223,342.38073487272084,340.3784973204232,341.3794987968788,341.37934169733785,341.3795971771442,341.3794228432093,342.38051498077925,341.3795042639827,340.37838647629496,339.37755330105927,340.37846632217753,340.3782480825851,343.3815742309757,343.38230507608245,341.3793853539641,340.3785695458206,341.37953325849213,338.37603645401015,341.3794279460297,339.3774414211526,341.3794759836098,342.3805744272495,341.3795162713327,341.3798971489545,339.3772456202652,341.37944773812393,341.3794941959838,340.3783024586253,339.3772210320101,342.38083063022606,340.37836141270503,340.37834603030825,340.3785111518735,342.3805152930501,338.3760914317082,341.37940780117236,340.3785071243453,341.37937284587827,340.3786841719039,342.38045444025056,341.37946970130713,341.3793792157895,340.37824724615473,341.3800547030501,341.37954419583406,340.378238081563,339.3776630783626,341.3797250726338,340.37820546620475,340.3785487846907,340.37825457917506,340.3782887194832,341.37947808027087,339.37714680735917,340.3782945512879,342.38097993453715,341.3793936012689,340.3784935242572,341.37931852754804,340.3783625671359,340.3782684090226,341.37931092028504,339.37739311124926,340.37827548695844,340.37828211491563,340.3783778774144,340.3785303642876,338.3760145743838,342.3806032738365,341.3797809068273,340.3783290346506,339.37710359543246,341.3794385887981,342.3810151990789,339.3771384979689,339.3778660681682,341.3798896359281,341.3798661117544,339.37711182739895,340.3783754089284,340.37837058409076,341.37939771654624,341.3793399519598,341.3798846827872,339.37730997662067,342.3806656812128,341.37984473208206,340.37852343488345,341.37966997473393,343.38227351636107,342.38071450262123,341.37946926551325,342.3808148822001,340.3786179497845,339.3772177534422,340.3783189436054,341.3796667496554,340.37856821472656,339.3773590242066,343.38195388716434,343.38165966944536,341.37958573831156,343.3819106338514,342.3808194585016,341.3795377779221,339.37724920253936,341.37942810890087,341.37954009564953
2,-0.0031777110348519327,-0.0035727328162673223,-0.0031270391527697763,-0.003002031687491197,-0.003881154638896065,-0.003332104823462002,-0.003114491701789071,-0.003189994188668472,-0.0028556892595777497,-0.003104311225654905,-0.004058819874345333,-0.0029296428473312283,-0.003192173139113325,-0.0031900767120330124,-0.0031349946273833977,-0.003065268065129354,-0.003130720594917601,-0.0030640143209863585,-0.0031332682548354577,-0.002794947575363218,-0.003375040145048494,-0.00322578929245747,-0.003108642392515167,-0.003685477899084345,-0.003100718645196723,-0.003020823361513266,-0.0031886368929470625,-0.002883069603242548,-0.0029579789965079924,-0.002959130399202698,-0.0029802607724867146,-0.002854347931676273,-0.003072916542907666,-0.0031912588415685993,-0.00311214155180462,-0.0030921089739381676,-0.0032816511540861254,-0.003302249787057733,-0.0029517814723320655,-0.003202975014339703,-0.0029840611621005705,-0.0028528292352948048,-0.0030684106708678957,-0.003308379215241754,-0.002803149175611209,-0.0030895255790380246,-0.0038448873825191825,-0.0029929899046603203,-0.0029969921782769422,-0.0030441856057292333,-0.003886120132165167,-0.0028497605404551127,-0.0028557085351537683,-0.003353447530983642,-0.003983480369136816,-0.0031559810405171296,-0.004005424044989438,-0.0031480801608136056,-0.0030826755313408793,-0.002946386778803315,-0.0031026668026942587,-0.0031082505213433755,-0.003126821831212976,-0.003071499677217903,-0.0031288231697542608,-0.0031312944587512763,-0.0031531713235389796,-0.0028578019693893363,-0.002885676286245295,-0.0028160776529537242,-0.003092057812170788,-0.004172852212798423,-0.0029340069243855463,-0.003604526920897123,-0.0030363278594900353,-0.0032312127474673352,-0.0028868786059654834,-0.003010572767034648,-0.003282589710433906,-0.0028673243952730587,-0.0031250978043067318,-0.003075145566757774,-0.0033616238732859047,-0.0030766390366879235,-0.0031296420622209005,-0.0029966690889893155,-0.0030821397170196266,-0.0032693708308131402,-0.003161082830287845,-0.0033798822767987934,-0.003309134762733137,-0.003113367223635304,-0.0031174127578643723,-0.002766493444390894,-0.0031764071984646267,-0.0030801280077592925,-0.0030843616773174403,-0.0039776188637347465,-0.003921493859574332,-0.003118766402211236,-0.0028521738631813297,-0.003080663167433796,-0.0028457826987736824,-0.0036567110280984623,-0.003039429848727099,-0.00299844254503219,-0.003568650379853894,-0.003045653023592328,-0.003977236029292617,-0.0031742898421630644,-0.0030045872228117625,-0.0031323647259181337,-0.0031861992037147927,-0.0029659662679283874,-0.0027928435398246044,-0.0031648113170086537,-0.0040567452453450625,-0.003192507266388644,-0.002940013614556846,-0.0031171370804542724,-0.00304341189788283,-0.002855110811632082,-0.0032083732423932717,-0.0031030861164778353,-0.003643288459826061,-0.003644059535775338,-0.003149730327632878,-0.0028370671620063853,-0.0031101338091081543,-0.0031082694344409362,-0.0037195945106781006,-0.0031056320578861612,-0.003139225499680425,-0.003037866186546136,-0.0036790912389024354,-0.003240821358146435,-0.0032591155340299218,-0.0030814920136858033,-0.002989918987958731,-0.003711757491844451,-0.0031319765100342152,-0.0029316554029959127,-0.0029839352883819724,-0.0029832696757486304,-0.002945462914679497,-0.00312805985700266,-0.0031366634923056017,-0.003310901508287334,-0.003045529697248262,-0.0028463102290656023,-0.00288292816259642,-0.00306601113249304,-0.0029548968804292515,-0.0031146815127483405,-0.0030014566873616264,-0.0031314438787094644,-0.003106600759922615,-0.0032799336139023774,-0.003013609254294785,-0.003840724810028373,-0.0029866004545198075,-0.003846807298225171,-0.0028332345892044066,-0.003876752792268097,-0.00334460532302452,-0.003363403934979812,-0.0036063206133402025,-0.003104887064778095,-0.0029420459698924505,-0.0029961070781731386,-0.0027102969429592975,-0.0030958998526961117,-0.003053349863333332,-0.0030889365270244133,-0.003756863365511766,-0.0030433744640434345,-0.003971572897790523,-0.004029529145827826,-0.0030367926432698397,-0.0030633093874253797,-0.002897165046489603,-0.003208654169209029,-0.003968687174890124,-0.0031381742606195633,-0.0028994879647597127,-0.0030399766561569957,-0.0029057857605247453,-0.0030287240293887163,-0.0028354601794750092,-0.0032775900501704294,-0.003220204237607046,-0.003059809455077919,-0.003013363903825005,-0.0028697818320486913,-0.0031473031792442025,-0.003045250825812115,-0.0033767565909471765,-0.00307584389225598,-0.0030728961390714925,-0.002935951889122455,-0.002926870625227693,-0.0030659281586769,-0.0028697783982496133,-0.003294522599852333,-0.003026858555667849,-0.003044869409225627,-0.0035001388211041216,-0.0038182791424649005,-0.003419609178236943,-0.0029666377674482237,-0.0030357510346908593,-0.0029310037093313247,-0.003090326815247076,-0.0028372985428313322,-0.0029076193217457105,-0.0030535166267475025,-0.003141014661232682,-0.0028800345157840605,-0.003188400612756609,-0.003157748193478299,-0.0035450184722686296,-0.0030486717421059958,-0.0035824571284824996,-0.0041168590990682714,-0.0036657289607609565,-0.0029196156176879737,-0.0030690924631106295,-0.0028680579960901733,-0.002710171627974813,-0.0030207109717898255,-0.003282160744062495,-0.0037131172174608208,-0.003690595519018441,-0.0028263734107115217,-0.0030587428068171558,-0.0033217729408800485,-0.0033389801333984677,-0.003220696595976743,-0.003096868497538607,-0.0030255338361390494,-0.0035129272389213483,-0.004205060382527117,-0.0028993984332373658,-0.0030239129787603255,-0.0030179977716602966,-0.002890976313949355,-0.003017719295275563,-0.003283217742686134,-0.0031647445815719093,-0.0030963035717362824,-0.003947735305654646,-0.0033227940276953647,-0.0031394786752886724,-0.0030966250266445394,-0.003096004537696431,-0.003295446208616303,-0.0029728747582281325,-0.00298957108552668,-0.003176037128360901,-0.002981445652898269,-0.002805379427977876,-0.004051260770418154,-0.002888758907954553,-0.0029582159107285192,-0.0031113049274169324,-0.0028938147643738634,-0.0030446944800665335,-0.0031051671747965408,-0.0030671646203059926,-0.0026050773776462336,-0.0033291535505555942,-0.0030719311652861467,-0.002989592013538389,-0.00418962220215438,-0.003060870815230038,-0.003120878010556082,-0.002987893572341199,-0.003427740404736482,-0.0030855602452585654,-0.003737282093295656,-0.0036399317199693327,-0.003050869226891128,-0.003041179395705282,-0.003120957310478468,-0.0036134036649396795,-0.0030824899794437426,-0.003133094672749344,-0.0026557484550356514,-0.0031067592894742113,-0.002904002716154792,-0.003757264861972797,-0.0030851334903069555,-0.002890757755977272,-0.0031051204056634606,-0.0031052652744669135,-0.0031359410845388275,-0.003103925701081082,-0.0035883583818858322,-0.0027562068814016767,-0.003614869891115799,-0.003413277211954926,-0.0037562291997434365,-0.0027866548476215476,-0.0033842697181688587,-0.003096622758459516,-0.003040020732065014,-0.0035835824416716364,-0.0030402119419399233,-0.003761276594288638,-0.003018986971205981,-0.003027774662867873,-0.0028140044806381054,-0.003097148212057472,-0.003189132082390335,-0.0027332620200992428,-0.003817928760971824,-0.003072802385221269,-0.00315322026171037,-0.0030990677070078204,-0.0030716975676232175,-0.003163838396925185,-0.0031222484292352214,-0.003783331352140588,-0.0037557228908045473,-0.00304369241164606,-0.0028918902381344135,-0.003035004100450965,-0.0034490259018513255,-0.0028595771518235345,-0.003111790943242009,-0.0030583940393630305,-0.004028893344518356,-0.003062752342352156,-0.003138048048120322,-0.0036789437781378576,-0.003149092042793954,-0.0031274338225276495,-0.0030715082493722613,-0.002902705839429351,-0.003079088454341565,-0.002897117569130411,-0.003113277376933438,-0.0031120113528569043,-0.003412768863760784,-0.002837189340482777,-0.00303153100963808,-0.0030652054901445383,-0.0031147358872942255,-0.0028984187175935218,-0.003066152539556816,-0.0030454315993845796,-0.0032625829611726553,-0.00373334550726575,-0.0031380750054209932,-0.0030658873914343123,-0.0031599779839949437,-0.0032242576301817413,-0.0031186060911012536,-0.0031188347394699024,-0.0030127486156687057,-0.002886126908464894,-0.0031071684536505394,-0.003065110321981564,-0.0030969467254303978,-0.003069355463411347,-0.0032418714258346366,-0.0038168783850919792,-0.0031231265721464044,-0.002940359506275522,-0.003109681310894676,-0.003174859348950735,-0.003091586187645836,-0.0036620734915939067,-0.003077369731749299,-0.0028797576365139944,-0.003099469272975883,-0.0030288708648032164,-0.0029078492728939233,-0.003080657901752641,-0.0031243864220152815,-0.0037484030087253928,-0.003327691400189206,-0.0029323208608797342,-0.0032345188432639136,-0.00320153217760319,-0.003132665352707575,-0.003319200482129581,-0.0031171416409640977,-0.0037431155725661507,-0.003193253861374657,-0.0030698018706778987,-0.003150111967856953,-0.0031139755976317637,-0.0026938408968640816,-0.0038512893823194794,-0.003867496961179533,-0.0031400782601328,-0.0030694658754087025,-0.0038735642902890527,-0.003118959966016624,-0.0030969456075841035,-0.004015112044813868,-0.0031083310571496663,-0.004159959377433976,-0.0032071070746341962,-0.003068209039253862,-0.003151917693476166,-0.0030652822813296253,-0.0031601670373236812,-0.002992482981342518,-0.00290179038366824,-0.0031078523413760432,-0.003591607031049212,-0.0031078854012961143,-0.003594734538012174,-0.0031243249281183785,-0.0037386127139318217,-0.002971557542024352,-0.0028639771977483166,-0.003143730687096132,-0.0032452885329486807,-0.004058178309891896,-0.00367453658767855,-0.0030725451070736215,-0.002903534820463614,-0.0031554633740310638,-0.0031151450330003986,-0.0030210863576217114,-0.003644125939535881,-0.003102771443927495,-0.003155701824001455,-0.0031737835462506904,-0.003155300464122737,-0.003089871590134454,-0.0032463485151603562,-0.0031118359650301156,-0.0036189806402860537,-0.0030629059275703394,-0.003861588477558022,-0.0030138354688133487,-0.003265091586534895,-0.0029752743096344856,-0.003140538847278781,-0.0030206619488635576,-0.003091864907882029,-0.0036650982131180053,-0.003907051557339993,-0.003189234979674729,-0.0031371518936543085,-0.0031481067411315493,-0.002932773375129708,-0.0030120188483475593,-0.0030144548552965924,-0.0029966267900472373,-0.002888597245496053,-0.0030223570128765963,-0.0028374022234950867,-0.003127677174591807,-0.0030595709190261947,-0.0032145264982631344,-0.00373932677803855,-0.003246547853963217,-0.003821068357539847,-0.0030247454344784317,-0.003046015846009573,-0.0039811464887998796,-0.0030869771807253655,-0.0031867999647779053,-0.003497319389510833,-0.003114726191449189,-0.0030873096480890146,-0.003132342144647654,-0.0026462165551492008,-0.002980917787790259,-0.0031755177580466095,-0.0031683678519249647,-0.003634869073033469,-0.0030076544209204185,-0.003714677100331822,-0.0030293251360265557,-0.003097601818913071,-0.003324261419321278,-0.0032599755814467697,-0.0031273415481304833,-0.0033057707429432833,-0.0029375378563749883,-0.004028826579109611,-0.0038265088192727718,-0.003064066626025779,-0.0037537207149491657,-0.003138953816675455,-0.0035086581850457925,-0.0028780646193364142,-0.003216823825340617,-0.0029672848428770214,-0.0030664551478989843,-0.00318988380973245,-0.003101525542742015,-0.002947403652369,-0.003718618989798964,-0.003689305559114783,-0.00295304980806214,-0.0030620584033464525,-0.003039527285290777,-0.0030904417764583427,-0.002955090479989715,-0.003091987295644586,-0.003135776096469126,-0.0037727159224578955,-0.0029762434457263594,-0.003100539302326631,-0.00373098796896644,-0.003776853247686043,-0.0028719464687795237,-0.00313554762712257,-0.0031986651158970062,-0.0029193670734513895,-0.003111236557046659,-0.0030782861713067183,-0.0029744238945157613,-0.003120449401209069,-0.003788070967659907,-0.00307872767980701,-0.0032384090410505976,-0.0032796740859375876,-0.0031510178820576837,-0.0038034106010745635,-0.0028647056865619127,-0.002962491670715006,-0.00287059887118051,-0.0029565896175252266,-0.0029430468780664997,-0.002970324154668213,-0.0035045690389980243,-0.003088283224566056,-0.0035517884479165634,-0.0030916437765839996,-0.002938168409604785,-0.0029396260857761196,-0.0036408083342245393,-0.003150041579872884,-0.0029989511086402237,-0.002845529783204966,-0.003281541305727335,-0.0034811016730604155,-0.003118534532077813,-0.003056098683943056,-0.003076633712750943,-0.0031277207707203587,-0.0032290718833119037,-0.003920198990941748,-0.0031548002055510633,-0.0033035574281970056,-0.003102028071721327,-0.0037872804506807415,-0.0037065305712196774,-0.003024319971955119,-0.0037299734553072578,-0.002923142289365009,-0.0038026076035996446,-0.0030503875001063655,-0.0030573159429961006,-0.00290714778964446,-0.0034602554242445507,-0.0030091140590940454,-0.0031952330767957104,-0.0038308114903943947,-0.003735883540563673,-0.003737569102169248,-0.0031517697859828222,-0.002858040561729212,-0.0034447281668967163,-0.003003628558038651,-0.003973188489876809,-0.0035854608086663986,-0.002967534586676175,-0.0037480797173171415,-0.0035462994274506345,-0.0035005747730059646,-0.002803137417273963,-0.0031236674581489577,-0.0034285080896449935,-0.0030946690502181074,-0.003102969694801613,-0.0027623662765918562,-0.003271780761030399,-0.0031056650217406007,-0.003066418073361075,-0.00308019942005562,-0.0038782765761904794,-0.0030115751713550376,-0.0031033433545623146,-0.0031115094508444552,-0.0029087013701166115,-0.0031460840956947854,-0.0030895867435261734,-0.003195605322399852,-0.0033466033206508206,-0.0030590117040557143,-0.0037788810956442187,-0.002969157953716788,-0.0035050895735959614,-0.003731039169022712,-0.003106669997488214,-0.0029324457182062034,-0.0031571998499536455,-0.003021353274435645,-0.0033586938399824064,-0.003150081359830198,-0.003115510893909074,-0.0028461169917525326,-0.00310446829224031,-0.0031295682601161965,-0.0035113163323533705,-0.0031538331244320454,-0.0035983029921942545,-0.003979719469239524,-0.0031120714822689176,-0.0030866132604858636,-0.0037430071091653656,-0.0031626075908422124,-0.003698679858801565,-0.0030039645614307674,-0.0031202314704959944,-0.002883731843109364,-0.002976860167032724,-0.003054783826764236,-0.0031297760158119753,-0.0031479449204738067,-0.0029999127644135537,-0.003074213031912177,-0.0038196972828983345,-0.0035252356179629016,-0.0030546970096636777,-0.0030774356356757736,-0.003908289847107675,-0.00300672112042977,-0.0030431444710741704,-0.003058318349591777,-0.0033444668328862204,-0.003385514492030236,-0.0029923679289366174,-0.0031695700142617897,-0.0031734215317879666,-0.003107938882564601,-0.0031463137631202627,-0.0029703801310597432,-0.0035888987450339496,-0.0030870722660256192,-0.0030478123706506707,-0.0031500007358826543,-0.003484538524335223,-0.003326039356533234,-0.0029104064801235077,-0.0030301833150736227,-0.003152150226515874,-0.0033840475350619785,-0.0033411339312653747,-0.003884923812641391,-0.0033131761525769902,-0.0031926319681493953,-0.0029564458919704756,-0.0031655223009728305,-0.0029729143226559476,-0.003335155788015211,-0.0035675089909033525,-0.002997996090200694,-0.00303221231414021,-0.003197870747308935,-0.003763571134384728,-0.003163925136304254,-0.003958368017446766,-0.002646055717234758,-0.0035822324205953067,-0.0031006268529443393,-0.0031187716050703074,-0.0031053797946102735,-0.0029349054497181514,-0.003021370357156218,-0.00300760618427522,-0.0031428917451957732,-0.003658646277729773,-0.0029759736295840076,-0.0029364914786932823,-0.003075415780057984,-0.0031272909054442955,-0.003563171652500079,-0.0030492029208489227,-0.0030496593162535604,-0.0037346347548448244,-0.003064454619557604,-0.003048584760293752,-0.0029969966888074625,-0.0029802356352996023,-0.002996314186658059,-0.0029999920510608447,-0.0031878848102855667,-0.003331817819447665,-0.0033723512015772,-0.0031539820480630835,-0.0031404539330988713,-0.003117095249424529,-0.002975375817638192,-0.0031608209715542485,-0.003028432952656138,-0.003950902887863282,-0.0030172478867423747,-0.003343349139491162,-0.0027414027537573985,-0.0029121120779584523,-0.003081605419685877,-0.0030646435108914612,-0.0036037399916829657,-0.0029326597031718183,-0.0030658810097621476,-0.0029472799057124175,-0.0037386372087997014,-0.0028930792478229343,-0.0038537488874373807,-0.003408307282589628,-0.0030914321670434328,-0.0030496249336216725,-0.0039005581328099242,-0.002996691341495218,-0.002916398950400778,-0.0027664933590814227,-0.0030714247365426204,-0.0029384623186643885,-0.0030820909502588365,-0.0030690882286833845,-0.00293498494012543,-0.003114522023288853,-0.002884582203977031,-0.004174683584960245,-0.0036305000892776673,-0.0030269025224834677,-0.003577540580298521,-0.003016245152395751,-0.0033814567041585237,-0.004023147382613387,-0.0031241152155749856,-0.0036741717067848593,-0.003063480946900546,-0.0030601097901973096,-0.0036015791488578507,-0.00306664292976698,-0.0031134562450242697,-0.003027361941544838,-0.003887418006057503,-0.0031120392333678364,-0.0038352446385148974,-0.003309044033559888,-0.0033688316654238363,-0.0029994983457422076,-0.0030546744339810658,-0.003685423497264448,-0.002881437816368127,-0.0028055154169294824,-0.0031076302381858704,-0.0034586513650972563,-0.0030233951842649764,-0.0029531144105491344,-0.0035774555763623144,-0.003803058814204657,-0.003066833904238922,-0.0029669487728235223,-0.0037450950396533643,-0.0031434988667696996,-0.002999580492752191,-0.0030995995312202485,-0.00299906231924332,-0.0030860163668383765,-0.003648794740588631,-0.0030635898328760128,-0.003152112173463353,-0.003521149712464776,-0.003025542307136543,-0.0031573617181779087,-0.002945242144199765,-0.0029905914308208433,-0.002886398558290484,-0.0031349367044838927,-0.003614571491902189,-0.004089327366513333,-0.0030592215385266807,-0.003325284831827264,-0.0036492821310674796,-0.0031507359039469503,-0.0031035326537631677,-0.002996651300303058,-0.003154912475774793,-0.0029350895498173658,-0.002969026014955657,-0.0035521126764846206,-0.002743732915352564,-0.003022473980341885
3,-13164169.376183387,-13164169.376183387,-13164169.376183385,-13164169.376183383,-13164169.376183383,-13164169.376183381,-13164169.376183381,-13164169.37618338,-13164169.376183378,-13164169.376183378,-13164169.376183376,-13164169.376183376,-13164169.376183374,-13164169.376183372,-13164169.376183372,-13164169.37618337,-13164169.37618337,-13164169.376183368,-13164169.376183366,-13164169.376183366,-13164169.376183365,-13164169.376183365,-13164169.376183363,-13164169.37618336,-13164169.37618336,-13164169.376183359,-13164169.376183359,-13164169.376183357,-13164169.376183355,-13164169.376183355,-13164169.376183353,-13164169.376183353,-13164169.376183352,-13164169.37618335,-13164169.37618335,-13164169.376183348,-13164169.376183348,-13164169.376183346,-13164169.376183344,-13164169.376183344,-13164169.376183342,-13164169.37618334,-13164169.37618334,-13164169.376183338,-13164169.376183338,-13164169.376183337,-13164169.376183335,-13164169.376183335,-13164169.376183333,-13164169.376183333,-13164169.376183331,-13164169.37618333,-13164169.37618333,-13164169.376183327,-13164169.376183327,-13164169.376183325,-13164169.376183324,-13164169.376183324,-13164169.376183322,-13164169.376183322,-13164169.37618332,-13164169.376183318,-13164169.376183318,-13164169.376183316,-13164169.376183316,-13164169.376183314,-13164169.376183312,-13164169.376183312,-13164169.37618331,-13164169.37618331,-13164169.376183309,-13164169.376183307,-13164169.376183307,-13164169.376183305,-13164169.376183305,-13164169.376183303,-13164169.376183301,-13164169.376183301,-13164169.3761833,-13164169.3761833,-13164169.376183297,-13164169.376183296,-13164169.376183296,-13164169.376183294,-13164169.376183294,-13164169.376183292,-13164169.37618329,-13164169.37618329,-13164169.376183288,-13164169.376183288,-13164169.376183286,-13164169.376183284,-13164169.376183284,-13164169.376183283,-13164169.376183283,-13164169.37618328,-13164169.376183279,-13164169.376183279,-13164169.376183277,-13164169.376183277,-13164169.376183275,-13164169.376183273,-13164169.376183273,-13164169.376183271,-13164169.376183271,-13164169.37618327,-13164169.376183268,-13164169.376183268,-13164169.376183266,-13164169.376183266,-13164169.376183264,-13164169.376183262,-13164169.376183262,-13164169.37618326,-13164169.37618326,-13164169.376183258,-13164169.376183257,-13164169.376183257,-13164169.376183255,-13164169.376183255,-13164169.376183253,-13164169.37618325,-13164169.37618325,-13164169.376183249,-13164169.376183249,-13164169.376183247,-13164169.376183245,-13164169.376183245,-13164169.376183243,-13164169.376183243,-13164169.376183242,-13164169.37618324,-13164169.37618324,-13164169.376183238,-13164169.376183238,-13164169.376183236,-13164169.376183234,-13164169.376183234,-13164169.376183232,-13164169.376183232,-13164169.37618323,-13164169.376183229,-13164169.376183229,-13164169.376183227,-13164169.376183227,-13164169.376183225,-13164169.376183223,-13164169.376183223,-13164169.376183221,-13164169.376183221,-13164169.37618322,-13164169.376183217,-13164169.376183217,-13164169.376183216,-13164169.376183216,-13164169.376183214,-13164169.376183212,-13164169.376183212,-13164169.37618321,-13164169.37618321,-13164169.376183208,-13164169.376183206,-13164169.376183206,-13164169.376183204,-13164169.376183204,-13164169.376183202,-13164169.3761832,-13164169.3761832,-13164169.376183199,-13164169.376183199,-13164169.376183197,-13164169.376183197,-13164169.376183195,-13164169.376183193,-13164169.376183193,-13164169.376183191,-13164169.376183191,-13164169.37618319,-13164169.376183188,-13164169.376183188,-13164169.376183186,-13164169.376183186,-13164169.376183184,-13164169.376183182,-13164169.376183182,-13164169.37618318,-13164169.37618318,-13164169.376183178,-13164169.376183176,-13164169.376183176,-13164169.376183175,-13164169.376183175,-13164169.376183173,-13164169.37618317,-13164169.37618317,-13164169.376183169,-13164169.376183169,-13164169.376183167,-13164169.376183165,-13164169.376183165,-13164169.376183163,-13164169.376183163,-13164169.376183162,-13164169.37618316,-13164169.37618316,-13164169.376183158,-13164169.376183158,-13164169.376183156,-13164169.376183154,-13164169.376183154,-13164169.376183152,-13164169.376183152,-13164169.37618315,-13164169.37618315,-13164169.376183148,-13164169.376183147,-13164169.376183147,-13164169.376183145,-13164169.376183145,-13164169.376183143,-13164169.376183141,-13164169.376183141,-13164169.37618314,-13164169.37618314,-13164169.376183137,-13164169.376183135,-13164169.376183135,-13164169.376183134,-13164169.376183134,-13164169.376183132,-13164169.37618313,-13164169.37618313,-13164169.376183128,-13164169.376183128,-13164169.376183126,-13164169.376183124,-13164169.376183124,-13164169.376183122,-13164169.376183122,-13164169.37618312,-13164169.37618312,-13164169.376183119,-13164169.376183117,-13164169.376183117,-13164169.376183115,-13164169.376183115,-13164169.376183113,-13164169.376183111,-13164169.376183111,-13164169.37618311,-13164169.37618311,-13164169.376183107,-13164169.376183106,-13164169.376183106,-13164169.376183104,-13164169.376183104,-13164169.376183102,-13164169.3761831,-13164169.3761831,-13164169.376183098,-13164169.376183098,-13164169.376183096,-13164169.376183094,-13164169.376183094,-13164169.376183093,-13164169.376183093,-13164169.37618309,-13164169.37618309,-13164169.376183089,-13164169.376183087,-13164169.376183087,-13164169.376183085,-13164169.376183085,-13164169.376183083,-13164169.376183081,-13164169.376183081,-13164169.37618308,-13164169.37618308,-13164169.376183078,-13164169.376183076,-13164169.376183076,-13164169.376183074,-13164169.376183074,-13164169.376183072,-13164169.376183072,-13164169.37618307,-13164169.376183068,-13164169.376183068,-13164169.376183067,-13164169.376183067,-13164169.376183065,-13164169.376183063,-13164169.376183063,-13164169.37618306,-13164169.37618306,-13164169.376183059,-13164169.376183057,-13164169.376183057,-13164169.376183055,-13164169.376183055,-13164169.376183053,-13164169.376183052,-13164169.376183052,-13164169.37618305,-13164169.37618305,-13164169.376183048,-13164169.376183048,-13164169.376183046,-13164169.376183044,-13164169.376183044,-13164169.376183042,-13164169.376183042,-13164169.37618304,-13164169.376183039,-13164169.376183039,-13164169.376183037,-13164169.376183037,-13164169.376183035,-13164169.376183033,-13164169.376183033,-13164169.376183031,-13164169.376183031,-13164169.37618303,-13164169.37618303,-13164169.376183027,-13164169.376183026,-13164169.376183026,-13164169.376183024,-13164169.376183024,-13164169.376183022,-13164169.37618302,-13164169.37618302,-13164169.376183018,-13164169.376183018,-13164169.376183016,-13164169.376183014,-13164169.376183014,-13164169.376183013,-13164169.376183013,-13164169.37618301,-13164169.37618301,-13164169.376183009,-13164169.376183007,-13164169.376183007,-13164169.376183005,-13164169.376183005,-13164169.376183003,-13164169.376183001,-13164169.376183001,-13164169.376183,-13164169.376183,-13164169.376182998,-13164169.376182998,-13164169.376182996,-13164169.376182994,-13164169.376182994,-13164169.376182992,-13164169.376182992,-13164169.37618299,-13164169.376182988,-13164169.376182988,-13164169.376182986,-13164169.376182986,-13164169.376182985,-13164169.376182983,-13164169.376182983,-13164169.37618298,-13164169.37618298,-13164169.376182979,-13164169.376182979,-13164169.376182977,-13164169.376182975,-13164169.376182975,-13164169.376182973,-13164169.376182973,-13164169.376182972,-13164169.37618297,-13164169.37618297,-13164169.376182968,-13164169.376182968,-13164169.376182966,-13164169.376182966,-13164169.376182964,-13164169.376182962,-13164169.376182962,-13164169.37618296,-13164169.37618296,-13164169.376182958,-13164169.376182957,-13164169.376182957,-13164169.376182955,-13164169.376182955,-13164169.376182953,-13164169.376182953,-13164169.376182951,-13164169.37618295,-13164169.37618295,-13164169.376182947,-13164169.376182947,-13164169.376182945,-13164169.376182944,-13164169.376182944,-13164169.376182942,-13164169.376182942,-13164169.37618294,-13164169.37618294,-13164169.376182938,-13164169.376182936,-13164169.376182936,-13164169.376182934,-13164169.376182934,-13164169.376182932,-13164169.37618293,-13164169.37618293,-13164169.376182929,-13164169.376182929,-13164169.376182927,-13164169.376182927,-13164169.376182925,-13164169.376182923,-13164169.376182923,-13164169.376182921,-13164169.376182921,-13164169.37618292,-13164169.376182918,-13164169.376182918,-13164169.376182916,-13164169.376182916,-13164169.376182914,-13164169.376182914,-13164169.376182912,-13164169.37618291,-13164169.37618291,-13164169.376182908,-13164169.376182908,-13164169.376182906,-13164169.376182904,-13164169.376182904,-13164169.376182903,-13164169.376182903,-13164169.3761829,-13164169.3761829,-13164169.376182899,-13164169.376182897,-13164169.376182897,-13164169.376182895,-13164169.376182895,-13164169.376182893,-13164169.376182893,-13164169.376182891,-13164169.37618289,-13164169.37618289,-13164169.376182888,-13164169.376182888,-13164169.376182886,-13164169.376182884,-13164169.376182884,-13164169.376182882,-13164169.376182882,-13164169.37618288,-13164169.37618288,-13164169.376182878,-13164169.376182877,-13164169.376182877,-13164169.376182875,-13164169.376182875,-13164169.376182873,-13164169.376182871,-13164169.376182871,-13164169.37618287,-13164169.37618287,-13164169.376182867,-13164169.376182867,-13164169.376182865,-13164169.376182863,-13164169.376182863,-13164169.376182862,-13164169.376182862,-13164169.37618286,-13164169.37618286,-13164169.376182858,-13164169.376182856,-13164169.376182856,-13164169.376182854,-13164169.376182854,-13164169.376182852,-13164169.37618285,-13164169.37618285,-13164169.376182849,-13164169.376182849,-13164169.376182847,-13164169.376182847,-13164169.376182845,-13164169.376182843,-13164169.376182843,-13164169.376182841,-13164169.376182841,-13164169.37618284,-13164169.37618284,-13164169.376182837,-13164169.376182836,-13164169.376182836,-13164169.376182834,-13164169.376182834,-13164169.376182832,-13164169.37618283,-13164169.37618283,-13164169.376182828,-13164169.376182828,-13164169.376182826,-13164169.376182826,-13164169.376182824,-13164169.376182823,-13164169.376182823,-13164169.37618282,-13164169.37618282,-13164169.376182819,-13164169.376182819,-13164169.376182817,-13164169.376182815,-13164169.376182815,-13164169.376182813,-13164169.376182813,-13164169.376182811,-13164169.376182811,-13164169.37618281,-13164169.376182808,-13164169.376182808,-13164169.376182806,-13164169.376182806,-13164169.376182804,-13164169.376182802,-13164169.376182802,-13164169.3761828,-13164169.3761828,-13164169.376182798,-13164169.376182798,-13164169.376182796,-13164169.376182795,-13164169.376182795,-13164169.376182793,-13164169.376182793,-13164169.37618279,-13164169.37618279,-13164169.376182789,-13164169.376182787,-13164169.376182787,-13164169.376182785,-13164169.376182785,-13164169.376182783,-13164169.376182783,-13164169.376182782,-13164169.37618278,-13164169.37618278,-13164169.376182778,-13164169.376182778,-13164169.376182776,-13164169.376182776,-13164169.376182774,-13164169.376182772,-13164169.376182772,-13164169.37618277,-13164169.37618277,-13164169.376182768,-13164169.376182767,-13164169.376182767,-13164169.376182765,-13164169.376182765,-13164169.376182763,-13164169.376182763,-13164169.376182761,-13164169.37618276,-13164169.37618276,-13164169.376182757,-13164169.376182757,-13164169.376182755,-13164169.376182755,-13164169.376182754,-13164169.376182752,-13164169.376182752,-13164169.37618275,-13164169.37618275,-13164169.376182748,-13164169.376182748,-13164169.376182746,-13164169.376182744,-13164169.376182744,-13164169.376182742,-13164169.376182742,-13164169.37618274,-13164169.37618274,-13164169.376182739,-13164169.376182737,-13164169.376182737,-13164169.376182735,-13164169.376182735,-13164169.376182733,-13164169.376182733,-13164169.376182731,-13164169.37618273,-13164169.37618273,-13164169.376182728,-13164169.376182728,-13164169.376182726,-13164169.376182726,-13164169.376182724,-13164169.376182722,-13164169.376182722,-13164169.37618272,-13164169.37618272,-13164169.376182718,-13164169.376182718,-13164169.376182716,-13164169.376182714,-13164169.376182714,-13164169.376182713,-13164169.376182713,-13164169.37618271,-13164169.37618271,-13164169.376182709,-13164169.376182707,-13164169.376182707,-13164169.376182705,-13164169.376182705,-13164169.376182703,-13164169.376182703,-13164169.376182701,-13164169.3761827,-13164169.3761827,-13164169.376182698,-13164169.376182698,-13164169.376182696,-13164169.376182696,-13164169.376182694,-13164169.376182692,-13164169.376182692,-13164169.37618269,-13164169.37618269,-13164169.376182688,-13164169.376182688,-13164169.376182687,-13164169.376182685,-13164169.376182685,-13164169.376182683,-13164169.376182683,-13164169.376182681,-13164169.376182681,-13164169.37618268,-13164169.376182677,-13164169.376182677,-13164169.376182675,-13164169.376182675,-13164169.376182673,-13164169.376182673,-13164169.376182672,-13164169.37618267,-13164169.37618267,-13164169.376182668,-13164169.376182668,-13164169.376182666,-13164169.376182666,-13164169.376182664,-13164169.376182662,-13164169.376182662,-13164169.37618266,-13164169.37618266,-13164169.376182659,-13164169.376182659,-13164169.376182657,-13164169.376182655,-13164169.376182655,-13164169.376182653,-13164169.376182653,-13164169.376182651,-13164169.376182651,-13164169.37618265,-13164169.376182647,-13164169.376182647,-13164169.376182646,-13164169.376182646,-13164169.376182644,-13164169.376182644,-13164169.376182642,-13164169.37618264,-13164169.37618264,-13164169.376182638,-13164169.376182638,-13164169.376182636,-13164169.376182636,-13164169.376182634,-13164169.376182634,-13164169.376182633,-13164169.37618263,-13164169.37618263,-13164169.376182629,-13164169.376182629,-13164169.376182627,-13164169.376182627,-13164169.376182625,-13164169.376182623,-13164169.376182623,-13164169.376182621,-13164169.376182621,-13164169.37618262,-13164169.37618262,-13164169.376182618,-13164169.376182616,-13164169.376182616,-13164169.376182614,-13164169.376182614,-13164169.376182612,-13164169.376182612,-13164169.37618261,-13164169.376182608,-13164169.376182608,-13164169.376182606,-13164169.376182606,-13164169.376182605,-13164169.376182605,-13164169.376182603,-13164169.3761826,-13164169.3761826,-13164169.376182599,-13164169.376182599,-13164169.376182597,-13164169.376182597,-13164169.376182595,-13164169.376182595,-13164169.376182593,-13164169.376182592,-13164169.376182592,-13164169.37618259,-13164169.37618259,-13164169.376182588,-13164169.376182588,-13164169.376182586,-13164169.376182584,-13164169.376182584,-13164169.376182582,-13164169.376182582,-13164169.37618258,-13164169.37618258,-13164169.376182579,-13164169.376182577,-13164169.376182577,-13164169.376182575,-13164169.376182575,-13164169.376182573,-13164169.376182573,-13164169.376182571,-13164169.376182571,-13164169.37618257,-13164169.376182567,-13164169.376182567,-13164169.376182565,-13164169.376182565,-13164169.376182564,-13164169.376182564,-13164169.376182562,-13164169.37618256,-13164169.37618256,-13164169.376182558,-13164169.376182558,-13164169.376182556,-13164169.376182556,-13164169.376182554,-13164169.376182552,-13164169.376182552,-13164169.37618255,-13164169.37618255,-13164169.376182549,-13164169.376182549,-13164169.376182547,-13164169.376182547,-13164169.376182545,-13164169.376182543,-13164169.376182543,-13164169.376182541,-13164169.376182541,-13164169.37618254,-13164169.37618254,-13164169.376182538,-13164169.376182536,-13164169.376182536,-13164169.376182534,-13164169.376182534,-13164169.376182532,-13164169.376182532,-13164169.37618253,-13164169.37618253,-13164169.376182528,-13164169.376182526,-13164169.376182526,-13164169.376182524,-13164169.376182524,-13164169.376182523
