,0,1,2,3,4,5,6,7,8,9,10,11,12,13,14,15,16,17,18,19,20,21,22,23,24,25,26,27,28,29,30,31,32,33,34,35,36,37,38,39,40,41,42,43,44,45,46,47,48,49,50,51,52,53,54,55,56,57,58,59,60,61,62,63,64,65,66,67,68,69,70,71,72,73,74,75,76,77,78,79,80,81,82,83,84,85,86,87,88,89,90,91,92,93,94,95,96,97,98,99,100,101,102,103,104,105,106,107,108,109,110,111,112,113,114,115,116,117,118,119,120,121,122,123,124,125,126,127,128,129,130,131,132,133,134,135,136,137,138,139,140,141,142,143,144,145,146,147,148,149,150,151,152,153,154,155,156,157,158,159,160,161,162,163,164,165,166,167,168,169,170,171,172,173,174,175,176,177,178,179,180,181,182,183,184,185,186,187,188,189,190,191,192,193,194,195,196,197,198,199,200,201,202,203,204,205,206,207,208,209,210,211,212,213,214,215,216,217,218,219,220,221,222,223,224,225,226,227,228,229,230,231,232,233,234,235,236,237,238,239,240,241,242,243,244,245,246,247,248,249,250,251,252,253,254,255,256,257,258,259,260,261,262,263,264,265,266,267,268,269,270,271,272,273,274,275,276,277,278,279,280,281,282,283,284,285,286,287,288,289,290,291,292,293,294,295,296,297,298,299,300,301,302,303,304,305,306,307,308,309,310,311,312,313,314,315,316,317,318,319,320,321,322,323,324,325,326,327,328,329,330,331,332,333,334,335,336,337,338,339,340,341,342,343,344,345,346,347,348,349,350,351,352,353,354,355,356,357,358,359,360,361,362,363,364,365,366,367,368,369,370,371,372,373,374,375,376,377,378,379,380,381,382,383,384,385,386,387,388,389,390,391,392,393,394,395,396,397,398,399,400,401,402,403,404,405,406,407,408,409,410,411,412,413,414,415,416,417,418,419,420,421,422,423,424,425,426,427,428,429,430,431,432,433,434,435,436,437,438,439,440,441,442,443,444,445,446,447,448,449,450,451,452,453,454,455,456,457,458,459,460,461,462,463,464,465,466,467,468,469,470,471,472,473,474,475,476,477,478,479,480,481,482,483,484,485,486,487,488,489,490,491,492,493,494,495,496,497,498,499,500,501,502,503,504,505,506,507,508,509,510,511,512,513,514,515,516,517,518,519,520,521,522,523,524,525,526,527,528,529,530,531,532,533,534,535,536,537,538,539,540,541,542,543,544,545,546,547,548,549,550,551,552,553,554,555,556,557,558,559,560,561,562,563,564,565,566,567,568,569,570,571,572,573,574,575,576,577,578,579,580,581,582,583,584,585,586,587,588,589,590,591,592,593,594,595,596,597,598,599,600,601,602,603,604,605,606,607,608,609,610,611,612,613,614,615,616,617,618,619,620,621,622,623,624,625,626,627,628,629,630,631,632,633,634,635,636,637,638,639,640,641,642,643,644,645,646,647,648,649,650,651,652,653,654,655,656,657,658,659,660,661,662,663,664,665,666,667,668,669,670,671,672,673,674,675,676,677,678,679,680,681,682,683,684,685,686,687,688,689,690,691,692,693,694,695,696,697,698,699,700,701,702,703,704,705,706,707,708,709,710,711,712,713,714,715,716,717,718,719,720,721,722,723,724,725,726,727,728,729,730,731,732,733,734,735,736,737,738,739,740,741,742,743,744,745,746,747,748,749,750,751,752,753,754,755,756,757,758,759,760,761,762,763,764,765,766,767,768,769,770,771,772,773,774,775,776,777,778,779,780,781,782,783,784,785,786,787,788,789,790,791,792,793,794,795,796,797,798,799,800,801,802,803,804,805,806,807,808,809,810,811,812,813,814,815,816,817,818,819,820,821,822,823,824,825,826,827,828,829,830,831,832,833,834,835,836,837,838,839,840,841,842,843,844,845,846,847,848,849,850,851,852,853,854,855,856,857,858,859,860,861,862,863,864,865,866,867,868,869,870,871,872,873,874,875,876,877,878,879,880,881,882,883,884,885,886,887,888,889,890,891,892,893,894,895,896,897,898,899,900,901,902,903,904,905,906,907,908,909,910,911,912,913,914,915,916,917,918,919,920,921,922,923,924,925,926,927,928,929,930,931,932,933,934,935,936,937,938,939,940,941,942,943,944,945,946,947,948,949,950,951,952,953,954
0,-1798.2698729888157,-1817.2541976390098,-2024.1528613168769,-2127.454005862027,-1642.2156224985072,-1393.225323042104,-1886.1664421730263,-2018.133102665433,-1820.793756026865,-1785.723537299023,-1804.346258105863,-1806.5537227661407,-1775.1743530409221,-2015.3672052947404,-1646.3985792446522,-1468.5806191144625,-1384.866525935921,-1885.8733832884243,-2098.191884644034,-1776.5835222445144,-1804.4050688434054,-2100.162645945645,-1973.7593572057967,-1859.9311500064275,-2109.546201765067,-2136.1510223055884,-1793.4840724161852,-1725.095146600067,-1779.954297844948,-1797.121417607167,-1744.298471136031,-1843.6888636783608,-1823.1097312211004,-1797.3046262316925,-1758.494347936841,-1815.598618455799,-1773.8856069048861,-1747.131797530649,-1784.8958173181948,-1839.446030244201,-1823.506783984886,-1864.617582101088,-1813.2618268198698,-1741.1910198680587,-1768.6663781329064,-1760.5549014784833,-1775.1544278287927,-1852.7907330088265,-1782.127167134612,-1789.6930756626332,-1844.7468688855986,-1772.2962142939812,-1795.257143450522,-1761.5941197364677,-1786.0649354604932,-1740.7815232058838,-1391.679873724053,-1788.7571924991132,-1768.8771101139403,-1810.4514538687472,-1839.5486892808342,-1757.8887998307455,-1785.4022908646475,-1682.5935721585965,-1759.2278378132157,-1792.7256871900177,-1731.4806308644038,-1737.6293416838419,-1742.9515847035773,-1775.35720780194,-1853.3813915825965,-1824.6712547720226,-1767.399432072493,-1756.2166874655657,-1790.9556273896305,-1710.5992751105505,-1756.8541073655506,-1756.6268939807703,-1784.7164561530685,-1751.8616090695498,-1842.022191472881,-1822.827498971385,-1775.8409962693163,-1827.770819845064,-1744.969469598171,-1108.4449030721516,-1752.433009653741,-1887.9134289215083,-1795.2815050967574,-1812.2317904920944,-1812.0680316432095,-1777.5915003321263,-1722.4371059392,-1798.311893398909,-1769.4909865566924,-1591.1483514155866,-1581.4529806744372,-1760.193938758579,-1759.6958803372852,-1818.3398523091016,-1803.4226739705116,-1822.4020983879227,-1786.6929762161133,-1791.3048303408184,-1355.5979689612273,-1655.6884335526686,-1854.0943617825296,-1783.3280766267083,-1755.1379887727783,-1854.2230044965918,-1794.2409395345423,-1707.6715454336268,-1597.5980574429254,-1681.5430768312503,-1726.7284533033485,-1779.3825455567708,-1809.080148945665,-1817.5305534163715,-1816.6692350087867,-1854.5793390431054,-1840.4160659993772,-1802.2799792111323,-1722.6096888462412,-1708.4648425161947,-1775.175004925739,-1704.2793127776781,-1958.9150827576943,-1765.4380586925488,-1809.3828145216235,-1816.7059243587803,-1811.574807420768,-1740.3817894098172,-1886.6015557106923,-1752.866612950494,-1616.5173065756449,-1632.239978950339,-1774.7990251451126,-1810.5320071570372,-1856.5880792440405,-1807.695514311235,-1799.086077650711,-1742.9568131921724,-1553.432591895474,-1749.2914212491823,-1945.892341497126,-1790.4670656049163,-1768.6491923303954,-1984.4926007118975,-1895.1466217386735,-1831.5334311661193,-1815.8895692603521,-1584.3130277039286,-1760.150696214491,-1864.3501231257503,-1799.5147337242408,-1918.4670898587312,-1734.6847873262393,-1852.8661960939273,-1500.512452194994,-1332.7011981320893,-1524.2905852119968,-1586.1307166859388,-1787.0369678849672,-1780.0058560251503,-1502.1155004025586,-1920.8751534022424,-1686.2945012782825,-1767.9366170091603,-1763.9419867688152,-1971.2292723950889,-1620.8763848008368,-1608.9321409905353,-1519.9598775918296,-1640.6841487282347,-1652.4490503811194,-1750.5862438571794,-1814.5600774622128,-1998.1658806664602,-1777.9468335299418,-2018.2618490214493,-1843.6397993544272,-1930.841870515975,-1879.472909903357,-1672.2736529192955,-1531.9702117198888,-1529.5877406848867,-1940.6277722202283,-1914.472598460027,-2435.6858064926323,-2049.859424790937,-2023.2231786779232,-2284.669225342967,-1972.6555347095891,-1936.5246803183902,-1685.03297833755,-1488.4580421443115,-1515.0828054107137,-1578.5180688629512,-1741.4828055429386,-1720.971088202385,-2137.173504402181,-2107.8658289559617,-2011.6663180633216,-2112.5163598474387,-2023.0707499164553,-1633.114910998181,-1629.24277794191,-1448.7215254318594,-1600.1498766387624,-1561.549840514863,-1984.8067563795337,-2171.0954522973198,-1709.6265402891522,-1683.2168103079541,-1980.1554991258865,-2090.100643488145,-1626.9631139507683,-1398.2607054927478,-1442.7324145861269,-1403.187364106859,-1513.4753626491824,-1694.6664311440693,-2184.578801530084,-1614.769286094588,-1667.4655872092828,-1779.1511462793026,-1586.2556339953194,-1734.4088111529227,-1631.0429807504645,-1453.3814784673173,-1503.512394825971,-1448.870733035883,-1469.4059092099396,-1507.6802540310625,-1683.177247591657,-1667.5426754062626,-1708.2619314306633,-1946.8544303631627,-1697.4992129358786,-1470.5339886439458,-1401.264538402368,-1576.7170609283419,-1459.9300404243936,-1627.300422853758,-2063.8580429590124,-1662.188429039879,-1607.4658381233976,-1431.8724636474212,-1517.6496997922454,-1444.2478915335985,-1578.589696100306,-1816.381892517465,-1670.2246811868395,-1722.7291515540824,-1584.2071652215898,-1482.4572619601363,-1487.3668264067574,-1863.6752565108038,-1585.2535120179077,-1554.0880755796225,-1739.0941602769087,-1513.0826051210613,-1665.3177290288088,-1488.117718876514,-1515.2201984679416,-1870.8107018510618,-1499.0657559002502,-1390.2824720464882,-1390.1864268322613,-1617.3678326090082,-1498.511390270842,-1510.8445695570256,-1484.8684841620711,-1568.8575246218797,-1577.1824855227492,-1730.4604215107531,-1618.4933835888678,-1522.9785754703603,-1429.4718891394496,-1518.6048702463618,-1514.1677310333664,-1476.0792889280863,-1410.3957417379202,-1494.4094919633094,-1610.0061933823558,-1435.1011712047548,-1449.4001281933088,-1605.6138935479278,-1531.0608442017326,-1629.7871785616899,-1644.852984349029,-1490.5002513841428,-1416.8526914682288,-1609.9571691918811,-1629.9625229045284,-1587.9105479348832,-1702.606676485647,-1703.483224203154,-1431.4802290759667,-1565.002939720963,-1634.1886326785723,-1517.5463265096541,-1501.6034575886124,-1453.9972928321058,-1675.6421440308939,-1447.118404892423,-1479.572378838139,-1697.8126691813804,-1570.6047876181963,-1486.443940097215,-1651.3575008046794,-1674.6308500809416,-1554.5536451723178,-1704.201958507314,-1542.4993370389614,-1454.0032456177141,-1530.826388728599,-1528.4809939570764,-1494.6631609298784,-1499.4415441457127,-1419.146759469052,-1448.7116828847174,-1525.5784985691696,-1387.5897151261508,-1535.4538468821147,-1495.4534328183734,-1559.299001513804,-1603.4803077604347,-1634.8181752967482,-1490.0415109075166,-1488.6941653336535,-1588.1966393956984,-1546.7862793837762,-1632.2499208320246,-1523.5939076442944,-1623.897651408763,-1482.1350354203084,-1433.6351482808864,-1500.0665050305474,-1722.9738772492306,-1511.231858402336,-1504.4461092504919,-1481.2696685532035,-1479.3303117157739,-1623.7785073334157,-1644.874743708897,-1682.3766317163938,-1503.4955951015802,-1404.352408428096,-1328.6390722050203,-1395.8054631554996,-1513.5511103843855,-1501.417082633608,-1530.184642363212,-1749.114249872908,-1674.2670732396284,-1443.1908447973854,-1486.3543752801247,-1427.2258037948068,-1457.6713304922068,-1544.299186839893,-1405.2107935343722,-1497.208279387334,-1432.0325612942831,-1363.2029594633887,-1397.2284378461554,-1601.5992553847227,-1576.742905141169,-1599.2946825780668,-1433.0690245104765,-1501.174007391505,-1462.8193304538383,-1515.2210440020654,-1586.4829875147686,-1456.6007654460414,-1483.4379837700087,-1558.6152964890632,-1395.5307512467286,-1557.582734135897,-1554.6705426255978,-1510.7310552836198,-1514.3258055162644,-1568.6697918845252,-1398.4980053482993,-1491.9325051375831,-1532.254151820649,-1458.3593292838716,-1368.6099762067397,-1395.418414383983,-1364.4332240789238,-1489.3028844479154,-1370.0706076823449,-1636.029827062603,-1591.9592173471844,-1380.8244468876196,-1553.4479527445687,-1487.4899645412531,-1628.9802508781152,-1446.1956906333573,-1398.862175365756,-1526.1477326065522,-1417.0409442493524,-1429.0415082084792,-1433.4059128305603,-1436.6038044240495,-1469.0695273109566,-1584.3121087617806,-1604.800490779105,-1512.433263247353,-1459.9256712963254,-1404.223698339542,-1421.2668149786602,-1552.618474603704,-1392.8447352348016,-1563.5551004209542,-1666.8566588127671,-1490.2231780628147,-1487.7848441200001,-1518.2878355364287,-1501.076210599372,-1478.394369393268,-1493.7755719602787,-1482.1031876000648,-1397.904232388592,-1482.9014824973806,-1464.4795733549845,-1443.4080817407462,-1436.8944686621853,-1417.6934733977257,-1408.8010441627953,-1633.347858925349,-1457.8938191682896,-1452.8582851125702,-1537.565645491063,-1482.1748757381345,-1453.785092997082,-1470.20460280305,-1605.3409281960749,-1450.6395794862974,-1440.1617147483205,-1439.0290589998365,-1506.921643350699,-1589.8833108497688,-1607.6442119430558,-1510.8017263771067,-1449.4686974541214,-1467.7208736267849,-1399.6516085958162,-1452.44463246975,-1662.1892777879204,-1466.0224561805653,-1406.3293968705088,-1524.2237888499376,-1456.2025801098257,-1523.5397904303932,-1514.1844009222514,-1496.8670098617433,-1476.5548474390473,-1463.4998564560537,-1487.733951970723,-1473.8139416322804,-1393.3130045899352,-1515.2759955590823,-1528.0151178372903,-1538.795640195426,-1396.1501827631191,-1448.8578484095601,-1418.171997001726,-1530.6055557370355,-1712.9464598258992,-1391.6825267744555,-1485.1494635030497,-1511.8279392595462,-1590.399285131557,-1509.0288928016248,-1458.5107155555215,-1494.0013341196166,-1419.5724204626772,-1405.1786345917942,-1506.795741649877,-1429.3845797143063,-1688.945550236035,-1445.5520143239955,-1416.6216274623687,-1433.0019503214742,-1419.0635431675087,-1442.4179481571043,-1396.349900740776,-1661.1657571929454,-1537.676944298266,-1519.0796513085554,-1455.4609914474029,-1516.5482003025852,-1425.521988828817,-1479.0073307181547,-1411.3615998409432,-1631.837852206558,-1447.8960248263536,-1557.7316356886743,-1657.2768269251826,-1470.8725075106472,-1476.8817163531214,-1470.0686666265237,-1563.6032337943834,-1692.4273681610337,-1482.1455439073025,-1463.4338141472197,-1540.4671620221184,-1457.2956867639398,-1660.2056957042398,-1480.3301595073629,-1378.025920615376,-1410.316456771763,-1356.695785612595,-1609.3591758768337,-1612.0731949235856,-1488.1818160291548,-1408.6346143153478,-1451.1226938343652,-1451.073377955057,-1541.9881219557944,-1395.6901424416453,-1544.2942428271285,-1475.8566338272008,-1682.2355888903533,-1574.973463171162,-1433.5198088006605,-1416.3715368095309,-1414.7125876416583,-1422.2692834426366,-1402.037896939793,-1436.183817692687,-1504.8006745212542,-1478.0171065887555,-1665.2255776494794,-1625.3449563505037,-1449.0664809899304,-1503.6189775988294,-1429.6598471819987,-1504.3673512894397,-1472.6814349641134,-1423.9847436719754,-1428.8111904452871,-1468.6329035555148,-1447.2297172712758,-1589.5734364828838,-1484.3581990497503,-1410.613394359643,-1501.384040874151,-1440.2401141436817,-1424.0232332379555,-1499.42712442047,-1652.4397579362596,-1656.271618582892,-1504.0845264565485,-1798.9816787859231,-1473.229981821872,-1568.79594037721,-1491.9204274855379,-1548.7653953377305,-1498.5668003318176,-1439.6527942795724,-1681.1565860353335,-1659.5360090405438,-1614.9164649570532,-1460.6891235479497,-1477.3460341535572,-1451.1605017010836,-1547.569298235289,-1418.53286844091,-1432.0794296002894,-1474.3754965881199,-1627.2912969315057,-1441.3821404651367,-1479.3348638539526,-1537.0051456954025,-1573.1129373296599,-1497.6760641785004,-1705.4908746671663,-1594.5938711484393,-1477.2098735316442,-1495.0711472455994,-1469.0163399149158,-1499.132115397437,-1417.318295922211,-1444.564064395928,-1534.2925431807835,-1774.5221416149484,-1441.855956589108,-1661.000587985243,-1489.3107495096306,-1394.1083963105777,-1392.0057910583919,-1448.4537072715812,-1398.0168751559272,-1451.4550463227263,-1442.9825414609727,-1452.4394171636511,-1477.875258145778,-1415.9948499310258,-1424.7724567394337,-1512.2099509660536,-1588.3505638806805,-1437.8213271322213,-1640.2725942108416,-1542.0006118411504,-1668.0494817606323,-1493.144413135337,-1489.7082141012197,-1478.5158950139644,-1552.5626070033084,-1656.114347024766,-1676.2265165070003,-1466.2470558611187,-1726.5952495983443,-1436.6154733266794,-1495.7239398302,-1422.7661512638902,-1476.701409689599,-1445.0760960406615,-1428.9494934117427,-1539.2918558449323,-1439.993897872602,-1419.2884881488005,-1422.9936737516077,-1485.755222208631,-1570.7330250932387,-1446.3373689942027,-1435.9688406321452,-1432.529031820236,-1463.4166903530818,-1421.5551117500859,-1516.29556174818,-1447.6935014773524,-1539.788928280273,-1459.7262547086264,-1505.6726281787894,-1413.0215559529477,-1464.4924747987134,-1615.3909625231986,-1522.523555625113,-1495.3179937368927,-1490.9842921493716,-1676.017180652891,-1517.9040294024278,-1487.2108382142962,-1478.0601942254825,-1459.572305993301,-1493.112353860439,-1436.0632714584463,-1487.1611404401656,-1443.2902329512283,-1454.75678924036,-1428.454357411226,-1561.712747311974,-1527.7765306528333,-1390.50203917423,-1488.96239766111,-1490.6184774103117,-1539.5594732765833,-1445.493249697991,-1532.1313419764851,-1481.0096661726632,-1452.8053297976962,-1461.9919930041804,-1421.5453717136681,-1504.3649546175807,-1533.3092237330663,-1444.1295652873578,-1454.9333886900972,-1441.2494342396344,-1431.0407284935732,-1431.3289740641076,-1479.1477546897524,-1467.6920850858082,-1426.2928806687657,-1417.9901514325434,-1576.4373963524943,-1466.7559783564323,-1461.5593408451964,-1529.314443479118,-1536.161634282156,-1401.1936062229163,-1453.4047550750545,-1443.6281566633409,-1537.083818813355,-1494.2689114833424,-1538.8838006288047,-1443.4903139900914,-1579.0979574054718,-1557.007037631488,-1456.2426536267847,-1557.5321349394887,-1423.841056275806,-1503.3764286132277,-1525.192752006376,-1436.8582694776471,-1541.5120479738005,-1544.9613330125055,-1458.4317529233483,-1459.3296432092075,-1516.7845045548927,-1506.4316296757136,-1543.170402758133,-1411.0463822262482,-1414.6831696321035,-1456.2525669661325,-1433.1108851773304,-1499.60363232399,-1533.2170198726942,-1519.488673711684,-1505.3182821433397,-1473.2649820905924,-1557.0797261761516,-1530.1637028551488,-1427.5592757996817,-1426.670570481121,-1445.2891082017038,-1537.7161711429596,-1466.3800676413082,-1459.0179675058148,-1521.536524481553,-1542.9763378267864,-1557.0793462381637,-1440.3240556647966,-1522.505889751674,-1419.8259930568497,-1444.723810162646,-1520.9250240091083,-1459.027682702411,-1517.2806179695358,-1562.5713529213397,-1439.824207688714,-1406.5008329589507,-1509.4947479819434,-1488.8255463603339,-1442.676839464269,-1485.7262422945244,-1467.1588257771803,-1414.0135556164748,-1444.127087795374,-1429.6451960803934,-1426.1143806086345,-1441.9817042035181,-1538.7821516197873,-1478.396110367154,-1461.0406975269163,-1468.9574825730867,-1461.7130793483539,-1452.8900992288593,-1424.4905554780782,-1421.5098737496628,-1510.921819425209,-1532.0915967918709,-1429.5157038993896,-1456.94333425756,-1441.3201175205345,-1449.63707395421,-1447.6784372281113,-1318.0316179384745,-1256.1628130056345,-1319.6114982284166,-1390.1776608981065,-1402.7451931145176,-1446.7727683958326,-1426.1338097870816,-1426.045017188315,-1424.6848436812402,-1430.609245062024,-1428.7987895373356,-1461.4385487020977,-1435.6118653242852,-1428.8512394516877,-1444.9463212967953,-1523.114560586108,-1423.169309123642,-1423.6077292122181,-1451.23638027289,-1427.241839870662,-1459.6152506641613,-1439.3564701354521,-1429.351317786573,-1449.4904856754508,-1519.6062429858523,-1412.0884395903631,-1448.9789196099364,-1464.419067326838,-1519.634183494098,-1438.5518125769204,-1467.3906570419165,-1439.6392642892622,-1409.3462077848767,-1490.376515212034,-1397.2809322198182,-1425.9949731144513,-1413.3674986265132,-1434.4979519516105,-1465.460490019273,-1442.0901377854607,-1447.3958588850012,-1458.7267945541234,-1481.2600602165223,-1433.6160405595401,-1442.4012891481987,-1534.8141737492986,-1451.8026998292053,-1449.8640304318776,-1428.4550146401202,-1437.5236285337776,-1390.7226871616876,-1450.2917806682703,-1322.5391224389853,-1421.7760385618308,-1417.104125565268,-1426.8625020880506,-1575.0843645873967,-1499.0014131746996,-1419.8870528730174,-1466.1188410219227,-1404.1208490918766,-1449.7157021920507,-1435.4712291264009,-1359.1247577176432,-1561.4657026433642,-1439.3660447388115,-1483.6433575183285,-1415.5219863108666,-1442.1954554666481,-1466.0229627429371,-1415.8137507031026,-1414.592686694304,-1464.682692518782,-1523.315649616053,-1423.6591001512284,-1500.1901881025053,-1446.1011640598404,-1429.483582445324,-1523.9999581133482,-1424.4249710846666,-1493.8232438675893,-1466.5068330413453,-1520.5716954737998,-1474.4040066385407,-1320.3998672815255,-1391.383022463318,-1295.9713110610885,-1314.6981102052787,-1412.2599962478191,-1319.7797824978766,-1326.607310544074,-1405.9903098667232,-1438.5585256260265,-1410.9716647005193,-1441.317662268756,-1416.1268587567029,-1431.5976872949366,-1434.8584432251432,-1414.399719870752,-1424.7778988401924,-1424.4021392349246,-1466.2466995845054,-1456.9506119688938,-1467.974911985098,-1443.9360797400116,-1430.524598113977,-1435.6310529226075,-1471.3852685231468,-1428.6436286190483,-1445.5624856626214,-1450.2304441640904,-1437.4101924282043,-1506.7470167174554,-1463.5222186649996,-1404.242736886098,-1381.9608679988762,-1438.2302242046123,-1454.4095398218465,-1483.0880332517465,-1475.9275027400972,-1427.0751436691255,-1443.432058370742,-1443.7575684969697,-1417.5041339796273,-1425.282911418636,-1421.258731228314,-1470.7179942041828,-1385.864067059494,-1482.3220854548917,-1411.1928642280056,-1474.702164375194,-1433.5275926624795,-1461.534724376336,-1427.5721291681175,-1438.9569967515226,-1506.4763203788516,-1481.276340710522,-1433.1919398931998,-1462.541444006052,-1515.5616265993158,-1454.8006207387712,-1457.0350919448233,-1518.4334673758592,-1451.2149789718885,-1436.9930353615118,-1486.6574258873818,-1524.5048272546408,-1410.023425574471,-1424.7456017795673,-1449.7600900501538,-1519.8351047012889,-1451.7865113979888,-1492.8009864049086,-1399.8604175113642,-1427.8280129438951,-1459.9197519180916,-1420.9082497422933,-1481.5675594721504,-1446.5656491397892,-1454.900066372281,-1507.3717577300765,-1445.528393486453,-1471.274270344982,-1446.8306204368514,-1482.515510527797,-1402.5378832230274,-1450.1397460027958,-1454.1496725463685,-1455.28969155969,-1452.6002012209747,-1477.2443458907733,-1401.4819035547696,-1388.5619703070495,-1522.0819223319427,-1459.0136953336469,-1463.571026641107,-1428.9591672239837,-1474.9686797108784,-1441.6052279044354,-1438.848213159296,-1443.0243005890627,-1505.7450086809613,-1407.6238065989635,-1432.0579404787559,-1431.2844161703167,-1472.575724515902,-1478.8905344224447,-1534.7719271239978,-1456.368993601773,-1456.391135134924,-1437.2296670545677,-1409.4746031356137,-1478.8413338257062,-1438.2066910469432,-1446.2928247919458,-1500.5614726807069
1,355.39522425051234,356.39681221972654,263.29269938252963,270.3004602942056,354.3938780870955,356.3964457843492,270.3007438707004,263.29261845643526,356.39608765781486,356.39645527065727,354.39476606277526,355.3953978716012,356.3965514298277,269.29935697704065,354.39437911103096,356.39808846975245,356.3964165436226,270.3003829208391,264.29383695818746,356.39615127186767,355.3950181978003,264.2938504106461,265.29554973558515,354.3943022755979,265.29542902209175,261.2903289978466,355.39657351473244,355.3950252726723,353.392969010978,353.3940754477962,355.3959750955893,357.3981945526751,355.395081650264,355.3951083144827,356.3974459823813,355.3962014897994,354.3939737411013,354.3948573998006,354.39441633333183,355.39492716350253,356.39642945620625,354.3946132706587,354.3941448110198,355.3949978287558,354.3941830107167,354.39401122225246,354.3954213368169,355.3949157014595,357.3979351682939,356.39625009176024,354.39395185671447,356.396509163021,355.39538480574396,355.39515917223144,353.3927237144688,353.39325988007323,356.396034736073,353.39373473872456,355.3949026170752,356.3961202155158,355.39556678669373,356.39718050573396,356.39666970215035,356.3971276109737,355.39547201557497,353.3931840415409,354.3942868098279,353.39299681830573,353.39267245564724,355.3949745446554,355.39591321570055,356.39638916123613,356.3969661015073,355.39607234841594,354.3940101466236,354.39463087514685,353.3929065848329,353.3928856896993,354.39418103198335,356.3964472119605,356.3961918396583,355.3950555071221,355.39505460519115,353.39324937186166,354.39390002459925,279.3101566013758,354.3939808602025,353.3926797178792,355.3958881834933,355.3951686101078,356.39611948066164,356.39653355400173,356.39616111279946,264.2942553869484,353.39375159419944,270.3008964297553,266.29644737237044,354.3943675594948,355.3957178956685,356.39767139110023,355.39492598593387,354.3938649887853,355.3949746281528,352.39327488562014,278.30592980845256,264.29436436871697,267.29742358949454,354.39392229722864,355.39495608033604,353.39305894618883,354.39378785186534,355.39501025665226,267.2983039785579,270.3005003608438,269.29928743305993,354.3949272420511,355.39507999987757,354.3940483321138,356.39719405633144,354.39422266236073,354.39492958663743,355.39540757433645,355.39510140996066,263.29272612543167,271.3022180588023,266.2959127776703,268.2987420121685,354.39391503570783,355.3954715087789,354.3947904377037,353.3935528801473,355.3949847788634,261.2903704154346,354.39386594508636,267.29709357483904,269.299385120219,262.2923453336023,354.39423936575406,353.3928425205165,353.39341172108186,354.39428753496065,354.3951173764025,353.3927486390358,355.39585215304436,264.2941327880259,266.29641581526516,271.301512258518,271.30173199042986,351.39157582814977,353.39268560349484,354.39462606414384,258.2874725144954,354.39392194825456,262.2916499312448,269.29933752973477,269.3001286377773,352.3916110109101,272.3025649657732,354.3940072500171,352.3918530116245,355.39506532583505,261.2903976694088,353.39275545026345,354.3945392462284,279.31000733505266,264.29405531294424,270.3005060604665,261.29034413422573,268.29833232371845,271.30149553820587,353.3927521564406,353.3927038953574,353.39305121805654,354.39458858141353,353.39326976845865,262.29159378926465,263.29275544452844,265.2951988287776,354.39412688617966,267.297004089001,270.3005632419976,270.3009704050981,270.3004915640191,353.3933304446251,354.39426433543235,354.39531866892,269.2994333433094,268.2984972613194,267.29733761844807,265.295495268445,268.2983620828377,267.29715792594067,267.2974260303364,266.2960379772917,268.29903910515185,355.39648585060894,353.3927621360805,352.3922043017948,271.3020923895658,270.30122434994405,271.30150479148296,270.3007079375454,269.29975457372603,265.2949684857089,269.2993058825996,354.39533225341995,354.39383793402436,355.3964072722117,352.39196351237075,271.3014548834833,271.30174843704725,269.2994002076191,353.3941318920005,353.39320374251787,267.29740887838983,271.3020511680856,354.39419849616223,355.395212483855,354.39565651755896,354.3944891534642,355.39571139314785,269.2992671873234,268.2990859240677,354.39383626629365,354.39395461242316,268.2982746767834,354.3940528384132,266.29623614703604,268.2990623078601,355.3951780884856,355.3954867564235,353.39374986498296,353.3933790987504,354.394295435903,353.3944688453457,354.3937746697017,354.3947262787856,266.2959890430849,353.3929096080414,355.3949067310133,354.39392475581485,266.2960633006622,267.29711906662413,355.39512611145074,270.30034059346855,354.3957273286076,354.39393104116425,354.39391435276633,354.3939903688176,355.3951014945525,355.3954670025969,352.39232994929296,353.3942292128171,268.2990210110294,354.39405181138636,353.394420336068,353.3926696516396,269.29922684867296,355.3949610565122,354.39407100137987,353.3927110616634,353.3935228948417,353.39268182740557,354.39433163267967,353.39313613075194,268.2984260592684,355.3951327434245,355.39502794447526,354.39542793050657,354.3938615961504,356.3967827898197,356.3967014916249,355.39490514021077,355.39665972696156,355.39581497316584,354.3941278955365,354.3939120261895,355.39530492234826,355.39490647243736,355.39605441301126,354.39477011,353.39290539940635,355.3953655766375,355.39549369910236,354.39394859334607,355.39597100654004,355.39648746142217,354.39435614491765,355.3964488072853,354.39448035715884,355.39525333286,355.3956162868293,354.3961232069609,353.393051237589,353.3932247300098,355.39562646957523,354.39387085594393,354.3940776343927,355.3956418888651,354.3950202120508,354.39424246329526,353.39383520034994,354.39452284683006,356.3964343617618,354.3940449090188,355.39539861434764,353.39289199194496,353.3930568674898,353.39372477200465,353.39292382507085,353.3930546829063,353.39338050581,351.3913404551008,353.3927184145301,353.3932827652948,355.395520122316,353.39285608638744,353.3935998712915,355.3953467690568,355.39519661357826,356.39748047785093,354.3952284745762,354.3941946906577,355.395169055028,355.39596766497186,354.3944670166221,354.3951965459665,354.39388635316664,354.39464619578786,355.39509697884375,353.392861890682,354.39508665613903,355.394994018092,353.3929910275562,355.3950186814677,355.39539540112594,355.3951301252323,355.3953665933155,355.39607902345375,352.39211914576873,353.3927214939741,354.39384706986556,353.393376125725,356.39664142504097,354.3946077569963,354.39385006254946,353.3928491489696,354.39390392269144,355.3951443461198,355.39506270833203,355.3950849382731,355.3952319439507,355.39574462357615,355.3948845888039,352.3920340657354,352.39278012786673,354.3943529616405,353.3929449145295,354.39462262975513,355.3950864951997,355.3952731040113,355.3951169782853,355.3954577605716,355.39647354206795,356.3964638513133,354.3944010376265,353.3927042340587,355.3951023742128,355.3950151885773,355.3955385113698,355.3959835729298,355.3949210550603,355.3957565207863,353.39303264894954,354.3946837199663,354.39457545077033,354.39467002696,355.3963180616824,354.39459202875054,354.3943370359184,353.39288038224623,353.3939232156542,352.3919011028951,355.3957280561295,355.3954115182869,353.3933271462073,354.3942882782232,354.39417731204406,354.3948773306256,355.39547960499647,355.39499182200166,355.39511833331863,354.39383701394246,353.39395842681466,355.39549243026414,353.3936666866796,355.3952468940074,353.39286948955174,354.39404636028746,355.3951224392038,355.39606179221937,355.3955518457932,355.39489082666023,354.39391235029655,354.39389697887196,354.3943872328675,353.39401900500644,353.39313250972737,354.3939403430254,353.3927454221229,355.3952529333449,354.39433628065547,354.39395042203313,356.3962217279478,355.394960117225,353.3937643256658,354.39393401400264,354.39478369128636,353.3931927663539,353.39374297811736,353.3932090528209,354.3943404282031,355.3953748599254,355.3955023608061,354.39461628414,355.3952529404484,355.39614058582106,355.3949092616441,355.39699164535233,354.39440769942644,354.39520972819736,355.39583592818826,355.3963620133718,354.3940472640132,355.39564763007365,355.3959950576996,355.39489324572526,352.391781830449,355.39672457273434,356.39612792245094,356.3966726426423,354.39479514176617,352.39196622126735,352.3921348997484,353.394275806281,355.3950081958377,354.3947263430296,355.3961573020301,354.3945200155063,353.3927891699732,354.3941099744359,354.3938037884961,354.39410965263903,354.3937746464599,353.3929087648478,355.39552507136693,355.3967038922155,353.3930875728686,353.3943002365939,354.39434052436314,353.39277248992437,355.3951514209982,354.39389960879157,353.39314252539305,355.39549595640307,355.3952236393141,355.3960381923209,355.3960234204197,355.3950419246123,352.39298189226224,354.39509185820765,353.3932800338158,354.3953499583989,352.39292082700723,354.3945700565119,354.3940108518329,355.3949837543815,354.39434354716,354.3942332830621,352.39298217874847,355.3971560443372,353.3931433767945,355.3958563409877,356.3960656221541,355.39528600207905,354.39457166364514,353.3934862134792,355.39519520360784,353.39307414556816,354.3942076922838,354.3937972242262,356.39654019820887,353.39317126353563,354.39460434896563,353.3928172861236,355.3960617088551,353.3927293577135,356.39636414477064,354.39425539416226,353.39427544777436,355.3952519164924,354.39402795466094,354.39396045000825,353.3928362519612,353.39309364574956,355.39523232920106,354.3950184174675,353.39361176498545,355.3960255255567,351.39088668074646,353.3930911626997,355.3949509647964,354.39464186903757,356.39686547246333,354.39461268948855,353.39309946741537,354.394393844465,355.3951391892535,354.3937926673337,354.3937832047293,353.3929393102163,355.3954750199807,354.3949705363818,353.39283450225815,353.39355178351946,354.39425133560786,355.39491979719264,354.3938154120051,354.3939885325183,353.3927065415385,354.39434293429287,355.3953412954298,355.39514044519126,354.39414972379444,353.39272561682577,353.39351622547474,355.396401460981,353.39320099693435,355.3949536804153,353.3932423393774,354.3950347087743,355.3950062226473,355.3949884236002,355.3954815437404,356.3970221599033,353.3934237638766,354.395542264172,355.3952377329243,354.39394431455577,355.39494666671584,354.39397042808633,353.3932490509178,353.39283871659234,353.3928212883384,355.3949379045733,352.3921035029163,355.3960030041839,354.3940695317831,354.39463414595247,353.3926704959871,353.39276485058474,356.39616758947164,353.3934715036706,353.3930074109368,354.39464410848643,355.3949944354516,354.39563259285654,355.39609152158573,353.3939322950428,355.39497890083896,355.39537992996424,353.39293033899224,353.3938164270947,355.39537691656653,353.3945345191685,354.3943128546902,354.3951194218909,355.3951385856444,352.39186297594983,352.3917144669305,353.39366105187935,353.3934136374733,355.3952949737942,353.39299030414645,354.3939829266686,354.39387125717815,354.3938418679875,352.3931974693166,355.39518553007167,353.3929507313089,354.3939126427851,355.3960677104056,354.39423767481327,353.3927015667685,355.3955278110753,355.3951857112226,355.3951232742952,355.3953647969291,355.395132314494,355.3950752336108,355.3959809894117,353.39324926315885,352.3920041394349,355.3961668008449,353.3929821184624,355.39564554928245,353.39282052506377,353.3927513927481,353.39305065027054,355.39537939314863,353.3927032215458,353.39287036385565,353.3929182466946,355.39708656300746,352.39184727126946,355.3969715093837,354.39391520031546,355.396150233921,355.3951318915855,354.39441618213357,354.3943002807355,353.39274931078677,355.3952217615847,355.3962416028407,355.39538760669626,354.39381488971804,352.39273038187537,355.3950817399178,354.39387845904446,355.3957922362189,354.3943391355977,355.3950636511446,352.3922521327622,354.39377231724734,354.3946050544987,355.395020818777,353.39306122300064,354.39408529165587,355.39525615486474,352.39159979792606,352.3920790152024,354.3938120420276,353.3936681502477,353.3939080450178,353.39339573881915,355.3952204550801,354.39590800262056,355.39571821814116,353.39322831112946,354.39417856256455,354.39490832923417,353.3930104377314,353.3933847113303,355.3953894697224,352.39175306157045,353.39419159433413,355.39560738679336,353.39276525548905,354.39405449292235,353.39278115132197,354.39386669917747,353.3927510867453,354.3940632261229,354.39385081369824,353.39371153145936,355.39546723096106,353.3928762170633,352.3920664721745,355.39594200205727,354.39385551699775,354.39434134498737,355.39545313357223,354.39464277869354,354.39442568065556,354.3938805100916,354.39453346071406,355.3964406211402,351.39142082534545,354.3952996105388,355.3957108772972,352.3920504265498,355.395094600662,356.39719682798176,354.3941043690151,355.3953314376918,352.39200929110626,355.3957122366989,353.3941513786974,355.395118838954,353.3927096697065,353.394795893166,355.3951992028155,353.3929517709992,355.39640870097344,353.3930844754205,353.3938455944912,355.39491551494393,353.39288055010604,353.392688763251,355.3954585928189,354.3938954448515,355.3951916046629,353.39410303518304,354.3943414774032,355.39673709549356,354.39488707219226,355.39500227256195,355.3955813194684,352.39265693828446,353.39282654950034,353.3938155315988,353.3939377269192,354.39387816121234,353.39296893185355,353.3927488965083,355.39500661945846,354.3937923369229,355.3951287006363,352.3918322545605,353.39280165165286,354.3939715160718,353.39334829634953,354.3939101094918,353.3931165056564,354.39480266197677,353.3932816090758,355.39526578928263,354.39476715690057,354.3939918860696,355.3952590150894,352.3926808742996,353.3928318855336,355.3952878704531,354.39446367985954,352.3916518890199,354.39425028927593,354.39416143307,353.3929886761263,353.3928724523072,354.3939271471066,354.394581555176,355.39523440862706,354.39472821611423,354.393843693832,353.39374080867304,355.3957512299535,354.3938745135217,355.39491963358387,353.3937441658793,354.39380796304494,355.3949308851825,354.3943863681385,355.3950981511326,353.3929231756703,355.39547754707957,355.3954032808962,354.39431180636217,355.3949210947145,354.39380240562787,354.39384737180353,355.39547066278715,354.3939772936496,355.39572972687273,355.39502797304783,354.3959115941914,354.3957858077404,355.3951889302017,354.39419238524124,354.3943289824152,354.3941531688701,355.3949573943476,354.39464405053735,354.39454693794363,354.3944141012571,353.39318364983876,355.39570048569277,355.3950908691251,355.39543778374406,355.3950439969389,353.39280683806567,354.3946168358154,355.39543658187677,354.3940259446067,351.39077033341084,355.39493793090986,354.39481938071447,353.39281304123216,351.3908893341831,354.3940279703491,353.3931327399688,355.39660961986704,355.3950149589496,352.3923780433675,355.39614824607565,355.39489302660917,355.3952372034127,355.3948897160643,354.39416555771675,355.3948969860335,355.39564785857135,355.3964499345161,353.39303385992946,355.3965793949792,354.39405857117544,352.3916043119691,354.39459754557913,354.3955712790029,355.3954016396243,354.39386980632844,356.3974922596741,354.3955119218546,354.39455343217577,354.3942370845068,354.39502725457305,355.3949534456867,353.3934005926832,353.39391011844003,354.3951343612031,353.39273415439953,355.3962024048878,354.39421915319224,355.39515839435967,355.3951345255574,351.3909548905431,355.39505025879106,354.3941580159718,355.39499075909083,354.39437684387985,353.3929668958324,355.3951611100349,355.3959543817162,355.3961775671975,353.392757264892,355.3955118292044,353.3933053206595,354.39459305432973,354.39377957864167,352.3917705404778,355.39492130381916,352.3918549716848,353.3934052626184,353.39275861332084,353.3928704314105,354.3954954272465,354.3939915586697,355.3957092805101,354.39424250404596,352.39181884164753,354.395010518196,354.393796107337,354.3944183915023,354.3938742980353,355.3972702227643,355.39517046363164,355.3951311179926,354.3947614492667,354.39380469778445,355.3949209804823,354.3944079672986,354.39389014692955,353.39271337501617,353.3929722007946,353.39309184829017,354.3951367506441,354.394628764076,355.3950582041297,354.394225912332,355.39569086137465,354.3950563815062,354.3940015526041,354.39487910937686,353.39280640561543,354.39394201200344,355.3951050126387,355.395978835457,354.39481884033,353.3938249591445,352.39238665432043,354.3952224287735,355.3949168968095,355.3950324187531,354.39385822976385,355.3959976375596,354.3945330606791,354.3940147760756,353.39283652041297,354.3955879174244,354.3944593202154,355.39569534961726,353.39322835581976,354.39451538627895,353.39274999086854,355.39553398709035,355.39602477674504,354.3939674315001,355.39502765842997,355.396868181342,354.3949386666259,353.3934646751854,354.3941628034872,354.3939617030321,354.39422985527466,355.395894495269,355.39529725544236,354.3944689644495,353.39334762665413,355.3955239467192,354.39611610678924,356.3977522849712,353.3929158975403,353.39292233634546,353.3935114518508,355.39510604955836,355.395954330428,353.3929490803585,355.39556883233723,354.3938122466338,354.39385285743117,354.3940018460877,353.39276708412467,354.3951564696066,353.39339369296357,354.3945974883234,353.3929132150021,355.39641087760685,355.39498952899885,354.39380437410045,354.3939116646073,354.3945427763673,354.39516137434197,356.3963550796766,356.39614966368345,353.3931010209345,355.39492400711015,355.3952015458134,355.3954730189643,354.394554664556,355.3959307806832,355.3951657980224,354.39378910476745,353.3926993335515,355.3951448561368,355.3949401765688,355.39548403270203,354.3938370593964,354.3942510614217,353.3936555164728,354.3942560545519,354.39398276677014,354.39431000446746,355.39524682293234,353.3927464493817,354.39391726049513,354.39446663149636,353.39291734654057
2,-0.008681770178013864,-0.00956044808198514,-0.029156355513071656,-0.024913866725822943,-0.007171994328433072,-0.004380912709674716,-0.026567068852310017,-0.02949657712615424,-0.009558831543394746,-0.009475295376820472,-0.00871305883043238,-0.009056126773111395,-0.00922892935591945,-0.02674821400281545,-0.006592960342253461,-0.00561047445257194,-0.004269037942565167,-0.025053131729989304,-0.028509579878949705,-0.009634299663634298,-0.009171983003472297,-0.02824822448517843,-0.028110648070166763,-0.008459374709323035,-0.028965665426075277,-0.031442604695576075,-0.008552088272295633,-0.00867265115678384,-0.0077089990823272754,-0.007422991337513577,-0.007349323720291098,-0.009770220119527901,-0.00856696971798329,-0.008263209804647315,-0.008980105830008538,-0.008610462594734398,-0.00813199256549046,-0.008139444185000936,-0.007697938792426727,-0.00869257055364764,-0.009049248188882157,-0.008222010401790809,-0.008288780231828042,-0.008480822743499995,-0.008312115668071348,-0.008193652820459018,-0.007975514103691786,-0.008346561695219393,-0.009292485544546047,-0.008720879898996945,-0.008323477445120055,-0.008958899978392925,-0.008471195035671161,-0.00854500164893337,-0.007827931362136314,-0.007602634969434307,-0.004492747529613795,-0.0076589680629510935,-0.008696600505452255,-0.00935095604348708,-0.008316172066982909,-0.00888882600958218,-0.008975105846097712,-0.008656839954853553,-0.00870086888517811,-0.00795015414364515,-0.008127203601545339,-0.007480835639273528,-0.0077066738011768235,-0.008795933377916638,-0.009053813660741462,-0.009246781115706449,-0.00899233183873234,-0.008650983468588527,-0.008188805793342043,-0.008172037778178775,-0.007819940449059695,-0.007802501163893606,-0.008557659565317495,-0.0092325809343305,-0.00971056909293911,-0.008922341529441049,-0.008791011032790282,-0.007873539204730747,-0.008350949104468711,-1.15035902711807e-05,-0.00832914903722653,-0.008234719878005907,-0.00864021730091842,-0.008800433463392057,-0.009206728532255945,-0.009038699464747222,-0.009301033986712708,-0.02668455371476237,-0.007941342291629632,-0.0240033997651461,-0.02558156598948404,-0.008451578486727306,-0.008926308237702513,-0.009570737974781723,-0.008743253089568049,-0.008692584384299934,-0.008763679662842867,-0.00757284544738039,-1.8888557014005076e-05,-0.027097762249324454,-0.025091559786834368,-0.00838688412419593,-0.009134575933505504,-0.008034296525803224,-0.008761995858370609,-0.008618710444130925,-0.026420271040568512,-0.025230546479911034,-0.024088066334930273,-0.008802102531408593,-0.008884252379523895,-0.00866223999377275,-0.009878595382792073,-0.008712082589908486,-0.00880027479049343,-0.009091877151957438,-0.009125375771178845,-0.027579871209422884,-0.024845634774150836,-0.02577724361785159,-0.024438115647638915,-0.009041509534864812,-0.009490502475104296,-0.00884942387549251,-0.008281938475432208,-0.009201241172711566,-0.029217489386647283,-0.008644183233214177,-0.02674749602424653,-0.02625016366470582,-0.02797067405316379,-0.009178156596511616,-0.008527873143221239,-0.008385167264551912,-0.00886472226897587,-0.008351692608336242,-0.00445910717047103,-0.009371876828256319,-0.0281120596493716,-0.028216563266191996,-0.025622794646109934,-0.023805268998158477,-0.007623041694632814,-0.00848425195358748,-0.008993584573541012,-0.030844036230132866,-0.008594132145719347,-0.02909010131448874,-0.02671092431382203,-0.0252631418548249,-0.007264635743982075,-0.0239821758037143,-0.005546482413521181,-0.005812065682072089,-0.006778007191357224,-0.030422687799863107,-0.008626233662669357,-0.009050820932265781,-2.4163562734453916e-05,-0.02915831516309947,-0.027744462321153907,-0.03078241546534076,-0.02832880111957556,-0.02647055804400158,-0.006103784069648469,-0.006105736090878425,-0.004077500566294507,-0.007418078407225599,-0.008125647269531496,-0.030450000375736093,-0.031216035860185447,-0.029360523268885563,-0.009241891555273241,-0.027784322108515624,-0.027280544669647428,-0.028371461192437806,-0.028140205274502544,-0.007472174503088645,-0.0057915737571292,-0.005395519509554456,-0.026587721027531215,-0.029209244931550155,-0.028250397601281355,-0.02992655740585905,-0.028074501633725824,-0.026130160681267393,-0.02523618761840848,-0.03028448817726025,-0.025966359207913493,-0.006058574053989369,-0.004637303610740806,-0.004451865724573507,-0.028573810172988885,-0.029830498725205556,-0.027734308252588397,-0.027730353096746648,-0.028284191399463535,-0.02673706643012134,-0.029022879850775733,-0.007564513741670027,-0.00841827503015904,-0.005498219491956089,-0.00500755042110747,-0.03011938741417608,-0.030184096073527105,-0.028437963702898143,-0.007823347364549756,-0.008398739637555181,-0.026963055815187622,-0.028903583297442244,-0.007510744200306053,-0.004952062301106765,-0.005599055515285285,-0.004516881377502474,-0.006816872997740996,-0.03094194346957348,-0.031123676597993137,-0.007256990775336269,-0.008500386850500353,-0.027763441038989197,-0.0071010824196124445,-0.02748207011606449,-0.027589245601468117,-0.005529115656523138,-0.006521084322490648,-0.004087177195824371,-0.004348088740726033,-0.0055591540122539446,-0.008594035004699505,-0.008340942993634111,-0.00808659023662675,-0.028440141078666322,-0.008500187341709558,-0.005800571471317594,-0.003953689256075575,-0.027646475474571136,-0.02838918542274606,-0.007822957570890436,-0.029241113778606123,-0.008844741255396431,-0.007273774461971798,-0.004851947432124405,-0.005717665580173715,-0.00522083625866838,-0.007758251520074608,-0.008530498945554717,-0.00739353697490063,-0.027413817968316906,-0.006771863259243811,-0.004334760317225167,-0.004042058468471008,-0.03063805944802016,-0.007010520501383894,-0.006212396007032958,-0.008421874707201012,-0.0047898560777311595,-0.007172891832457202,-0.005048438228556254,-0.004644922444023076,-0.029436976368272198,-0.006072376192433614,-0.00496731941799058,-0.0038226034703832293,-0.008618378345469156,-0.007012225330118278,-0.006776073675199389,-0.0059253403658908405,-0.007228471118159016,-0.007128828415067364,-0.00846363664172868,-0.00681813383009148,-0.0065307496919254845,-0.005122100294771538,-0.006597354783346837,-0.005593847073023362,-0.004269862598272578,-0.0048961461611505335,-0.006165025977248903,-0.008122777057325765,-0.0054490224277562735,-0.005457014084395918,-0.007545467849445631,-0.006867295601256019,-0.009314406571578572,-0.008305799612373153,-0.006011986757871711,-0.004476054188245243,-0.006787845957644828,-0.006069070415912762,-0.007182577933953094,-0.00873528053677982,-0.009006257327663386,-0.005273016203741086,-0.00670794175350795,-0.008321722792293413,-0.004776819775769075,-0.005612261494467272,-0.0074809535992687035,-0.008926152533108496,-0.005296456530122403,-0.004293064355789596,-0.0074585727946677415,-0.005616353100798077,-0.004852805612438946,-0.00789859316649961,-0.007319453896825007,-0.004127037513472785,-0.007693989975057829,-0.005096546113228161,-0.0054986182845686675,-0.005089944311234725,-0.004844622166942505,-0.006248140353050511,-0.006322715089909503,-0.006288594357487688,-0.004656109836837844,-0.005588266646542104,-0.004864294858452881,-0.007270670530336711,-0.005278666434344037,-0.006669286107569324,-0.007001523910077281,-0.007234673221278572,-0.005867383191340637,-0.004379714802278047,-0.00762943182521124,-0.007291055738436194,-0.0060110738597058235,-0.006599250730982316,-0.007958561967073978,-0.006065480163318987,-0.005708081579177132,-0.006492508433240436,-0.007912705570552122,-0.0057449467063723555,-0.006351610926730272,-0.004203323067674047,-0.007844542530882738,-0.007018751942833008,-0.007516723893964232,-0.008480953157723556,-0.005499446238353324,-0.00539679051272366,-0.004180945211927705,-0.005014023059180253,-0.007071789230332843,-0.006656188419148434,-0.007201819759689712,-0.008455041164310829,-0.008844569690087222,-0.004895827573138335,-0.004401069392993127,-0.004392183970064455,-0.005539611004580374,-0.006987719095876759,-0.0047785479551311055,-0.006195495949880561,-0.005301593983437095,-0.005455618304285408,-0.0043850825400762765,-0.005963526926092391,-0.008780962284313038,-0.007390582769231166,-0.005209028851238864,-0.006316587682749867,-0.005649263089450298,-0.006803671320278924,-0.006601807909509613,-0.005112712730459435,-0.005422040928359624,-0.006929822662947986,-0.005051941328591503,-0.006338264663259028,-0.006088822098785315,-0.004473213109531536,-0.004702417760416144,-0.005045288266455537,-0.004839505510046808,-0.006131797547847479,-0.0053363990609012,-0.005132601147702269,-0.004842966257622898,-0.005535257036936311,-0.005111949599428277,-0.00612683960883122,-0.00467363702695934,-0.00852012494324416,-0.006246502528777919,-0.0046029107504226025,-0.005017557620370589,-0.005793275517725326,-0.007395590754914829,-0.004871336547081642,-0.004850458730880593,-0.007330097556963058,-0.00496085132912234,-0.006092087485245714,-0.004733301434717506,-0.00462566484519053,-0.005075995866526795,-0.006447187700498428,-0.007689344829529133,-0.005635034359651295,-0.004075498082000987,-0.0050047657803291646,-0.004561519645838024,-0.0065372861053264045,-0.005741557045374178,-0.006744899710556186,-0.007682344475010157,-0.005498820173713922,-0.0054709441809049275,-0.005266815698628046,-0.004626918784126452,-0.004467125834743964,-0.0058464958577637,-0.0062219445927009995,-0.0048214943756981835,-0.005277000599245485,-0.0063165351317328354,-0.005508232400403844,-0.0056086910089767,-0.005195535606692949,-0.004150869751624341,-0.00810326093841741,-0.005675368900964293,-0.005893109956334073,-0.0069765674567899595,-0.006262336745398284,-0.005938091941956524,-0.005994823397021486,-0.005948609795513244,-0.005448911533419317,-0.00637453811167112,-0.006693029895718656,-0.00625569276491477,-0.005025573291635349,-0.005401633394378128,-0.004856355752937096,-0.005714294250808479,-0.0052125542164264075,-0.004796746995002523,-0.005710052166529132,-0.00784000284151481,-0.005149124051336924,-0.004107772061332813,-0.006874193649012668,-0.004861231787435809,-0.0049493236743676575,-0.006785328944476181,-0.006562750234740932,-0.004437308234183592,-0.004136936635536407,-0.006130190440635965,-0.004205946759152788,-0.005007954015823337,-0.006464833192599607,-0.004763936143908836,-0.007401775872292107,-0.005059405457379773,-0.00583365983863549,-0.00510335996407545,-0.00693147310759231,-0.008740185046751519,-0.0040968407359729744,-0.0043750931229846225,-0.0064807371233977454,-0.0048482351580499934,-0.006088606094966007,-0.005240272002046151,-0.007446958015687213,-0.0047018306497751475,-0.004679643634090593,-0.0039500584162431695,-0.005368519506152939,-0.008225378181365992,-0.0055521653438714265,-0.006744588270724079,-0.0057343467501513945,-0.0046710960147567405,-0.004075383125814943,-0.005785767728968803,-0.008724663181744346,-0.005590552740620536,-0.00581146454504967,-0.006848224267482972,-0.005356039374202137,-0.005016140050950484,-0.0048324417995104455,-0.005416717699141803,-0.008232332971161405,-0.006769418879291142,-0.005913323405979967,-0.007120029962482428,-0.005965765782292329,-0.00543572389480098,-0.005649174785169941,-0.005856394316326444,-0.0082976794146876,-0.005947339385923569,-0.005027588976523691,-0.0052920318015982635,-0.005851037945504952,-0.010511079181681378,-0.00463078220386985,-0.005073171484102609,-0.004410398904884493,-0.005760903380577837,-0.0072057494002098245,-0.0066036181044605916,-0.005321640239327819,-0.005440317636223595,-0.004918657902028234,-0.005013193306315852,-0.005807826559369529,-0.00540201079582727,-0.006492187657906281,-0.004237700873488352,-0.007823799350609388,-0.006935404965639001,-0.005493400728096793,-0.0048115219525268395,-0.004988985855132041,-0.0046256779125449015,-0.0047119040321741456,-0.005785646652190994,-0.006392356732300456,-0.005139198622056272,-0.00782356125134638,-0.007446085000452203,-0.00587220271352488,-0.005209051191092684,-0.006068241444996055,-0.004925411371846478,-0.005196413867222759,-0.006141972404409071,-0.005704373345817988,-0.005987968841690169,-0.006230733120175383,-0.005757996542965001,-0.005489683311404295,-0.005296371297497577,-0.006125459740525046,-0.00575857407407235,-0.00466508360474885,-0.004920259676082712,-0.008572420185640136,-0.00854350305298366,-0.0066618789413461785,-0.009410206786600957,-0.006113857512531654,-0.006814446705895649,-0.005994343748250372,-0.005816007881602587,-0.004377481050729863,-0.0062755556936525125,-0.0076695483275519595,-0.007395917624403179,-0.006945857001097993,-0.005841367184999694,-0.005377634024647228,-0.005997137581160738,-0.005956533294255119,-0.005441816941276304,-0.005657965038132241,-0.004244126524171445,-0.006972651722249434,-0.00561424562072601,-0.004654149490092023,-0.006164459293816732,-0.00823675352919487,-0.006149288390540975,-0.009097040281211903,-0.005238537168273033,-0.004481446946724145,-0.004920286692558018,-0.006166463528620171,-0.004890437585307169,-0.004734280142916865,-0.004779258788533711,-0.006800319719281018,-0.010122222048648355,-0.00545671990256707,-0.007964995277962374,-0.006575435637476567,-0.005133826083732122,-0.004591049141274963,-0.004324945051519785,-0.005498422349255882,-0.005852914393890168,-0.0057925760945142886,-0.005857600343465406,-0.006512301803918372,-0.005193346553655721,-0.005725315765141267,-0.005024882960561171,-0.0049055744172566106,-0.006197694949176944,-0.008733345891470404,-0.006812857030175149,-0.007910861514722355,-0.004832878885502591,-0.004930390986469031,-0.006084819961674237,-0.005522118784790726,-0.007862942733792915,-0.007894134879155247,-0.005953177096958231,-0.01083603053086021,-0.0051880621114843975,-0.005591482014360375,-0.00521490842878923,-0.006545061414914997,-0.004851188767582911,-0.0045159401218968,-0.005419230166135544,-0.005735349595438088,-0.005977097734721914,-0.005798123966564759,-0.005395201107231365,-0.004645940111758327,-0.006059803622901061,-0.004607986828198131,-0.006163914398153038,-0.005043855146413045,-0.005595442333281339,-0.004044456034916469,-0.0050857695659604005,-0.006598143985745461,-0.006411412314112649,-0.004566396020075004,-0.0046301236708082,-0.007047937954385598,-0.005309462294849868,-0.004474286963707825,-0.00570805363863717,-0.004861603174410369,-0.008024718986458337,-0.005253503346723526,-0.006549971217061279,-0.005549514695601006,-0.006298144676458106,-0.00519523933881862,-0.004600615784029215,-0.00615012373593952,-0.004557667401800116,-0.004202605434673173,-0.0056467060435544765,-0.004365392160055084,-0.00536124331972352,-0.005494977199454758,-0.004660004906044279,-0.005605089094269087,-0.0054940620696965325,-0.0049825543885480125,-0.005278345196521743,-0.0052077409879865595,-0.004799299158333559,-0.004460674196387365,-0.0055888019549652935,-0.004793943099660009,-0.004165860297344458,-0.006084533644789412,-0.004825794651865157,-0.005080933350310978,-0.005746788257429136,-0.004904057421809884,-0.005429146366760548,-0.004996841471496821,-0.004732101229122713,-0.005802760191165527,-0.003965420904839408,-0.005401888697803484,-0.00617828048182328,-0.004202132774360498,-0.007139546398758844,-0.006291266930262449,-0.005049550937357054,-0.005766811066153505,-0.004519997817480502,-0.006155754550110713,-0.005267096712452241,-0.005689458750943289,-0.006208411538491217,-0.005825905707529359,-0.006063522366296703,-0.005710144843275343,-0.005483423938455156,-0.005063951241016188,-0.0054234893434773465,-0.005669938414721829,-0.004966981429278953,-0.005328945006908643,-0.006114696951194029,-0.005109820244013514,-0.007114143381862502,-0.005111942350661189,-0.006138083884996407,-0.005386778050087202,-0.004657822118238342,-0.006023478600563414,-0.005802637540880712,-0.004006875294581134,-0.005214458957338701,-0.00515804933978575,-0.0050049684255891996,-0.005102228392052451,-0.0057105415869619204,-0.0052202960448845806,-0.005705882384001285,-0.004611529886351822,-0.0060848837875319296,-0.004198253986108048,-0.004317619416412498,-0.005079204725723977,-0.0054848493381146534,-0.006129157628495716,-0.006062609573567672,-0.0047756489334946205,-0.005018535766209142,-0.005423123593094211,-0.004990076014535672,-0.006232798474569167,-0.006164181802293594,-0.003980597038525977,-0.005937766235087439,-0.005558030193070686,-0.004526497300492857,-0.0039587376998071215,-0.005439786223010896,-0.0049694944796135196,-0.004654920477689762,-0.004336995013786951,-0.004673549146895682,-0.004886840257327751,-0.005567373304655885,-0.004675511702343102,-0.004774408108139824,-0.005209218483630899,-0.005945048051029861,-0.004874715384171263,-0.0061769341847015494,-0.004581315129824604,-0.005041074935745906,-0.005581978409794862,-0.004753374718992776,-0.006869026036198338,-0.0052435746925091785,-0.005490257171653464,-0.005720068638059763,-0.0047282759134054326,-0.006051918382484249,-0.005140498916671604,-0.0036169137185517,-0.0038891297332011754,-0.003532930890292782,-0.005266575768740001,-0.005466557399549197,-0.005067397720314819,-0.004734921581544316,-0.005684376809663076,-0.004875574539813171,-0.0049443647053137385,-0.004751118309661388,-0.0058346125464788425,-0.004842058728876874,-0.004807303693598842,-0.004989758968348596,-0.005234966279688187,-0.005494164589082771,-0.005618044551195021,-0.006135731324573001,-0.005447604137716644,-0.004107406575487953,-0.005093503481660202,-0.0057407360872975205,-0.0048361713863681885,-0.003970716649833271,-0.00572416867159079,-0.005087922143104045,-0.004405234111961399,-0.0038280987497556654,-0.004787099999290926,-0.0042436875184939755,-0.006000155890914885,-0.005461245213613804,-0.004213610824269894,-0.005251868423684292,-0.005716047420897352,-0.005700372575300717,-0.005635261531054965,-0.005104234540738701,-0.0058707163889791265,-0.005647406288633875,-0.006107099420279603,-0.005072514504636343,-0.005811763183125407,-0.005054106093156441,-0.004222651663242469,-0.004927384330516253,-0.00492406805843253,-0.005480570104503079,-0.00477446117737126,-0.006202326442614955,-0.005374515132921056,-0.0035168774988272805,-0.004932647778113173,-0.004685899645100919,-0.0054233876046162425,-0.006312383860167968,-0.005275427079887385,-0.004857351364696075,-0.004254062208678412,-0.0056753529712701,-0.004778738207363509,-0.006060254783496464,-0.005485489573717595,-0.004041668528600889,-0.005565006914171096,-0.005172246195637526,-0.0054735575671530715,-0.004970743419022259,-0.004187412182290336,-0.005845237008097568,-0.0055894790968592616,-0.005671850490954536,-0.00502557452324889,-0.005628455366313585,-0.005141616294841658,-0.0050638956634388235,-0.004797863020220312,-0.004560903500965228,-0.005618738939054277,-0.004108171814009108,-0.00463327652660022,-0.005312926914390949,-0.005110557426569969,-0.0036010565053922797,-0.005816104404074286,-0.0040952582870847735,-0.0035621117076727257,-0.0032894066846654887,-0.0037193067144648535,-0.0035570527257732095,-0.004819646058897311,-0.004906393029923099,-0.005608070895720849,-0.005987714879979448,-0.005709747246640796,-0.004970680961099184,-0.004861884929829802,-0.005566590732860808,-0.005193554675684638,-0.004765646599813384,-0.00433516821099743,-0.0042623818192877435,-0.004933920726436136,-0.005169237857184221,-0.004854749283158825,-0.005672287584869234,-0.005220847589028185,-0.0055999416602932695,-0.004948846399875911,-0.005167386030564066,-0.004827929350415502,-0.005031131139410417,-0.005022132546316928,-0.005327124312939619,-0.005658587719891824,-0.005361937663179677,-0.004261324417972311,-0.004167027573385009,-0.005088363287911495,-0.005686455080815655,-0.0059290389914674535,-0.005011879747250799,-0.005826301685124198,-0.005094069171691946,-0.004907744086763142,-0.004470965625388235,-0.00454150932926671,-0.0057662915426998276,-0.005503200466136521,-0.004592185166144606,-0.004861607585050142,-0.0048510989323556734,-0.0059702729861996606,-0.006137524694716024,-0.0055752760868067455,-0.006479077917592674,-0.005896369951691459,-0.004883647281328063,-0.005144276084138468,-0.005241922376133968,-0.005047254210810325,-0.005895996197308026,-0.00571820071448827,-0.00541814998229697,-0.005212862315040201,-0.0051455200053326265,-0.005381570504221333,-0.004858988860036889,-0.006791708667369689,-0.005266899543122768,-0.004603292050333208,-0.004376410607575131,-0.005433121295066151,-0.00558300002274971,-0.004555384555408602,-0.006018674448489074,-0.0053013899382969906,-0.005188094835123258,-0.004978867472990587,-0.005205101218499505,-0.005169628963224122,-0.004379114617422173,-0.004918624896412554,-0.004415614750503282,-0.005729717433850714,-0.00569337676395832,-0.005182833999694109,-0.004940628019691852,-0.005142936998874832,-0.005414173348128043,-0.006434913149254375,-0.006079185971690623,-0.005108451029679165,-0.00592701137328941,-0.005882930250456973,-0.005572857596231127,-0.005318548796488043,-0.005536496394915311,-0.005827363162743356,-0.005056321533077061,-0.005166705221815859,-0.005354690301353829,-0.00559704665632761,-0.005774996047997097,-0.0051295064707538645,-0.005184508094329999,-0.005171262110857209,-0.005228607270246767,-0.005253758233047296,-0.004945093722207626,-0.005474631042622368,-0.004375822515901786,-0.0051491919852395315,-0.005238816531473951,-0.004887537132796247
3,-13164169.376177026,-13164169.376177026,-13164169.376177026,-13164169.376177026,-13164169.376177026,-13164169.376177026,-13164169.376177026,-13164169.376177026,-13164169.376177024,-13164169.376177024,-13164169.376177024,-13164169.376177024,-13164169.376177024,-13164169.376177024,-13164169.376177024,-13164169.376177024,-13164169.376177024,-13164169.376177022,-13164169.376177022,-13164169.376177022,-13164169.376177022,-13164169.376177022,-13164169.376177022,-13164169.376177022,-13164169.376177022,-13164169.37617702,-13164169.37617702,-13164169.37617702,-13164169.37617702,-13164169.37617702,-13164169.37617702,-13164169.37617702,-13164169.37617702,-13164169.37617702,-13164169.376177019,-13164169.376177019,-13164169.376177019,-13164169.376177019,-13164169.376177019,-13164169.376177019,-13164169.376177019,-13164169.376177019,-13164169.376177019,-13164169.376177017,-13164169.376177017,-13164169.376177017,-13164169.376177017,-13164169.376177017,-13164169.376177017,-13164169.376177017,-13164169.376177017,-13164169.376177015,-13164169.376177015,-13164169.376177015,-13164169.376177015,-13164169.376177015,-13164169.376177015,-13164169.376177015,-13164169.376177015,-13164169.376177015,-13164169.376177013,-13164169.376177013,-13164169.376177013,-13164169.376177013,-13164169.376177013,-13164169.376177013,-13164169.376177013,-13164169.376177013,-13164169.376177013,-13164169.376177011,-13164169.376177011,-13164169.376177011,-13164169.376177011,-13164169.376177011,-13164169.376177011,-13164169.376177011,-13164169.376177011,-13164169.376177011,-13164169.37617701,-13164169.37617701,-13164169.37617701,-13164169.37617701,-13164169.37617701,-13164169.37617701,-13164169.37617701,-13164169.37617701,-13164169.37617701,-13164169.376177007,-13164169.376177007,-13164169.376177007,-13164169.376177007,-13164169.376177007,-13164169.376177007,-13164169.376177007,-13164169.376177007,-13164169.376177005,-13164169.376177005,-13164169.376177005,-13164169.376177005,-13164169.376177005,-13164169.376177005,-13164169.376177005,-13164169.376177005,-13164169.376177005,-13164169.376177004,-13164169.376177004,-13164169.376177004,-13164169.376177004,-13164169.376177004,-13164169.376177004,-13164169.376177004,-13164169.376177004,-13164169.376177004,-13164169.376177002,-13164169.376177002,-13164169.376177002,-13164169.376177002,-13164169.376177002,-13164169.376177002,-13164169.376177002,-13164169.376177002,-13164169.376177002,-13164169.376177,-13164169.376177,-13164169.376177,-13164169.376177,-13164169.376177,-13164169.376177,-13164169.376177,-13164169.376177,-13164169.376177,-13164169.376176998,-13164169.376176998,-13164169.376176998,-13164169.376176998,-13164169.376176998,-13164169.376176998,-13164169.376176998,-13164169.376176998,-13164169.376176998,-13164169.376176996,-13164169.376176996,-13164169.376176996,-13164169.376176996,-13164169.376176996,-13164169.376176996,-13164169.376176996,-13164169.376176996,-13164169.376176996,-13164169.376176994,-13164169.376176994,-13164169.376176994,-13164169.376176994,-13164169.376176994,-13164169.376176994,-13164169.376176994,-13164169.376176994,-13164169.376176994,-13164169.376176992,-13164169.376176992,-13164169.376176992,-13164169.376176992,-13164169.376176992,-13164169.376176992,-13164169.376176992,-13164169.376176992,-13164169.37617699,-13164169.37617699,-13164169.37617699,-13164169.37617699,-13164169.37617699,-13164169.37617699,-13164169.37617699,-13164169.37617699,-13164169.37617699,-13164169.376176989,-13164169.376176989,-13164169.376176989,-13164169.376176989,-13164169.376176989,-13164169.376176989,-13164169.376176989,-13164169.376176989,-13164169.376176989,-13164169.376176987,-13164169.376176987,-13164169.376176987,-13164169.376176987,-13164169.376176987,-13164169.376176987,-13164169.376176987,-13164169.376176987,-13164169.376176987,-13164169.376176985,-13164169.376176985,-13164169.376176985,-13164169.376176985,-13164169.376176985,-13164169.376176985,-13164169.376176985,-13164169.376176985,-13164169.376176985,-13164169.376176983,-13164169.376176983,-13164169.376176983,-13164169.376176983,-13164169.376176983,-13164169.376176983,-13164169.376176983,-13164169.376176983,-13164169.376176983,-13164169.376176981,-13164169.376176981,-13164169.376176981,-13164169.376176981,-13164169.376176981,-13164169.376176981,-13164169.376176981,-13164169.376176981,-13164169.376176981,-13164169.376176981,-13164169.37617698,-13164169.37617698,-13164169.37617698,-13164169.37617698,-13164169.37617698,-13164169.37617698,-13164169.37617698,-13164169.37617698,-13164169.37617698,-13164169.376176978,-13164169.376176978,-13164169.376176978,-13164169.376176978,-13164169.376176978,-13164169.376176978,-13164169.376176978,-13164169.376176978,-13164169.376176978,-13164169.376176976,-13164169.376176976,-13164169.376176976,-13164169.376176976,-13164169.376176976,-13164169.376176976,-13164169.376176976,-13164169.376176976,-13164169.376176976,-13164169.376176974,-13164169.376176974,-13164169.376176974,-13164169.376176974,-13164169.376176974,-13164169.376176974,-13164169.376176974,-13164169.376176974,-13164169.376176974,-13164169.376176972,-13164169.376176972,-13164169.376176972,-13164169.376176972,-13164169.376176972,-13164169.376176972,-13164169.376176972,-13164169.376176972,-13164169.376176972,-13164169.37617697,-13164169.37617697,-13164169.37617697,-13164169.37617697,-13164169.37617697,-13164169.37617697,-13164169.37617697,-13164169.37617697,-13164169.37617697,-13164169.376176968,-13164169.376176968,-13164169.376176968,-13164169.376176968,-13164169.376176968,-13164169.376176968,-13164169.376176968,-13164169.376176968,-13164169.376176968,-13164169.376176966,-13164169.376176966,-13164169.376176966,-13164169.376176966,-13164169.376176966,-13164169.376176966,-13164169.376176966,-13164169.376176966,-13164169.376176966,-13164169.376176964,-13164169.376176964,-13164169.376176964,-13164169.376176964,-13164169.376176964,-13164169.376176964,-13164169.376176964,-13164169.376176964,-13164169.376176964,-13164169.376176964,-13164169.376176963,-13164169.376176963,-13164169.376176963,-13164169.376176963,-13164169.376176963,-13164169.376176963,-13164169.376176963,-13164169.376176963,-13164169.376176963,-13164169.37617696,-13164169.37617696,-13164169.37617696,-13164169.37617696,-13164169.37617696,-13164169.37617696,-13164169.37617696,-13164169.37617696,-13164169.37617696,-13164169.376176959,-13164169.376176959,-13164169.376176959,-13164169.376176959,-13164169.376176959,-13164169.376176959,-13164169.376176959,-13164169.376176959,-13164169.376176959,-13164169.376176957,-13164169.376176957,-13164169.376176957,-13164169.376176957,-13164169.376176957,-13164169.376176957,-13164169.376176957,-13164169.376176957,-13164169.376176957,-13164169.376176957,-13164169.376176955,-13164169.376176955,-13164169.376176955,-13164169.376176955,-13164169.376176955,-13164169.376176955,-13164169.376176955,-13164169.376176955,-13164169.376176955,-13164169.376176953,-13164169.376176953,-13164169.376176953,-13164169.376176953,-13164169.376176953,-13164169.376176953,-13164169.376176953,-13164169.376176953,-13164169.376176953,-13164169.376176951,-13164169.376176951,-13164169.376176951,-13164169.376176951,-13164169.376176951,-13164169.376176951,-13164169.376176951,-13164169.376176951,-13164169.376176951,-13164169.37617695,-13164169.37617695,-13164169.37617695,-13164169.37617695,-13164169.37617695,-13164169.37617695,-13164169.37617695,-13164169.37617695,-13164169.37617695,-13164169.37617695,-13164169.376176948,-13164169.376176948,-13164169.376176948,-13164169.376176948,-13164169.376176948,-13164169.376176948,-13164169.376176948,-13164169.376176948,-13164169.376176948,-13164169.376176946,-13164169.376176946,-13164169.376176946,-13164169.376176946,-13164169.376176946,-13164169.376176946,-13164169.376176946,-13164169.376176946,-13164169.376176946,-13164169.376176944,-13164169.376176944,-13164169.376176944,-13164169.376176944,-13164169.376176944,-13164169.376176944,-13164169.376176944,-13164169.376176944,-13164169.376176944,-13164169.376176944,-13164169.376176942,-13164169.376176942,-13164169.376176942,-13164169.376176942,-13164169.376176942,-13164169.376176942,-13164169.376176942,-13164169.376176942,-13164169.376176942,-13164169.37617694,-13164169.37617694,-13164169.37617694,-13164169.37617694,-13164169.37617694,-13164169.37617694,-13164169.37617694,-13164169.37617694,-13164169.37617694,-13164169.37617694,-13164169.376176938,-13164169.376176938,-13164169.376176938,-13164169.376176938,-13164169.376176938,-13164169.376176938,-13164169.376176938,-13164169.376176938,-13164169.376176938,-13164169.376176937,-13164169.376176937,-13164169.376176937,-13164169.376176937,-13164169.376176937,-13164169.376176937,-13164169.376176937,-13164169.376176937,-13164169.376176937,-13164169.376176937,-13164169.376176935,-13164169.376176935,-13164169.376176935,-13164169.376176935,-13164169.376176935,-13164169.376176935,-13164169.376176935,-13164169.376176935,-13164169.376176935,-13164169.376176933,-13164169.376176933,-13164169.376176933,-13164169.376176933,-13164169.376176933,-13164169.376176933,-13164169.376176933,-13164169.376176933,-13164169.376176933,-13164169.376176933,-13164169.376176931,-13164169.376176931,-13164169.376176931,-13164169.376176931,-13164169.376176931,-13164169.376176931,-13164169.376176931,-13164169.376176931,-13164169.376176931,-13164169.37617693,-13164169.37617693,-13164169.37617693,-13164169.37617693,-13164169.37617693,-13164169.37617693,-13164169.37617693,-13164169.37617693,-13164169.37617693,-13164169.37617693,-13164169.376176927,-13164169.376176927,-13164169.376176927,-13164169.376176927,-13164169.376176927,-13164169.376176927,-13164169.376176927,-13164169.376176927,-13164169.376176927,-13164169.376176925,-13164169.376176925,-13164169.376176925,-13164169.376176925,-13164169.376176925,-13164169.376176925,-13164169.376176925,-13164169.376176925,-13164169.376176925,-13164169.376176925,-13164169.376176924,-13164169.376176924,-13164169.376176924,-13164169.376176924,-13164169.376176924,-13164169.376176924,-13164169.376176924,-13164169.376176924,-13164169.376176924,-13164169.376176922,-13164169.376176922,-13164169.376176922,-13164169.376176922,-13164169.376176922,-13164169.376176922,-13164169.376176922,-13164169.376176922,-13164169.376176922,-13164169.376176922,-13164169.37617692,-13164169.37617692,-13164169.37617692,-13164169.37617692,-13164169.37617692,-13164169.37617692,-13164169.37617692,-13164169.37617692,-13164169.37617692,-13164169.376176918,-13164169.376176918,-13164169.376176918,-13164169.376176918,-13164169.376176918,-13164169.376176918,-13164169.376176918,-13164169.376176918,-13164169.376176918,-13164169.376176918,-13164169.376176916,-13164169.376176916,-13164169.376176916,-13164169.376176916,-13164169.376176916,-13164169.376176916,-13164169.376176916,-13164169.376176916,-13164169.376176916,-13164169.376176916,-13164169.376176914,-13164169.376176914,-13164169.376176914,-13164169.376176914,-13164169.376176914,-13164169.376176914,-13164169.376176914,-13164169.376176914,-13164169.376176914,-13164169.376176912,-13164169.376176912,-13164169.376176912,-13164169.376176912,-13164169.376176912,-13164169.376176912,-13164169.376176912,-13164169.376176912,-13164169.376176912,-13164169.376176912,-13164169.37617691,-13164169.37617691,-13164169.37617691,-13164169.37617691,-13164169.37617691,-13164169.37617691,-13164169.37617691,-13164169.37617691,-13164169.37617691,-13164169.37617691,-13164169.376176909,-13164169.376176909,-13164169.376176909,-13164169.376176909,-13164169.376176909,-13164169.376176909,-13164169.376176909,-13164169.376176909,-13164169.376176909,-13164169.376176907,-13164169.376176907,-13164169.376176907,-13164169.376176907,-13164169.376176907,-13164169.376176907,-13164169.376176907,-13164169.376176907,-13164169.376176907,-13164169.376176907,-13164169.376176905,-13164169.376176905,-13164169.376176905,-13164169.376176905,-13164169.376176905,-13164169.376176905,-13164169.376176905,-13164169.376176905,-13164169.376176905,-13164169.376176905,-13164169.376176903,-13164169.376176903,-13164169.376176903,-13164169.376176903,-13164169.376176903,-13164169.376176903,-13164169.376176903,-13164169.376176903,-13164169.376176903,-13164169.376176903,-13164169.376176901,-13164169.376176901,-13164169.376176901,-13164169.376176901,-13164169.376176901,-13164169.376176901,-13164169.376176901,-13164169.376176901,-13164169.376176901,-13164169.376176901,-13164169.3761769,-13164169.3761769,-13164169.3761769,-13164169.3761769,-13164169.3761769,-13164169.3761769,-13164169.3761769,-13164169.3761769,-13164169.3761769,-13164169.376176897,-13164169.376176897,-13164169.376176897,-13164169.376176897,-13164169.376176897,-13164169.376176897,-13164169.376176897,-13164169.376176897,-13164169.376176897,-13164169.376176897,-13164169.376176896,-13164169.376176896,-13164169.376176896,-13164169.376176896,-13164169.376176896,-13164169.376176896,-13164169.376176896,-13164169.376176896,-13164169.376176896,-13164169.376176896,-13164169.376176894,-13164169.376176894,-13164169.376176894,-13164169.376176894,-13164169.376176894,-13164169.376176894,-13164169.376176894,-13164169.376176894,-13164169.376176894,-13164169.376176894,-13164169.376176892,-13164169.376176892,-13164169.376176892,-13164169.376176892,-13164169.376176892,-13164169.376176892,-13164169.376176892,-13164169.376176892,-13164169.376176892,-13164169.376176892,-13164169.37617689,-13164169.37617689,-13164169.37617689,-13164169.37617689,-13164169.37617689,-13164169.37617689,-13164169.37617689,-13164169.37617689,-13164169.37617689,-13164169.376176892,-13164169.376176894,-13164169.376176894,-13164169.376176896,-13164169.376176897,-13164169.376176897,-13164169.3761769,-13164169.376176901,-13164169.376176903,-13164169.376176903,-13164169.376176905,-13164169.376176907,-13164169.376176907,-13164169.376176909,-13164169.37617691,-13164169.37617691,-13164169.376176912,-13164169.376176914,-13164169.376176914,-13164169.376176916,-13164169.376176918,-13164169.376176918,-13164169.37617692,-13164169.376176922,-13164169.376176922,-13164169.376176924,-13164169.376176925,-13164169.376176925,-13164169.376176927,-13164169.37617693,-13164169.376176931,-13164169.376176931,-13164169.376176933,-13164169.376176935,-13164169.376176935,-13164169.376176937,-13164169.376176938,-13164169.376176938,-13164169.37617694,-13164169.376176942,-13164169.376176942,-13164169.376176944,-13164169.376176946,-13164169.376176946,-13164169.376176948,-13164169.37617695,-13164169.37617695,-13164169.376176951,-13164169.376176953,-13164169.376176953,-13164169.376176955,-13164169.376176957,-13164169.376176957,-13164169.376176959,-13164169.37617696,-13164169.37617696,-13164169.376176963,-13164169.376176964,-13164169.376176966,-13164169.376176966,-13164169.376176968,-13164169.37617697,-13164169.37617697,-13164169.376176972,-13164169.376176974,-13164169.376176974,-13164169.376176976,-13164169.376176978,-13164169.376176978,-13164169.37617698,-13164169.376176981,-13164169.376176981,-13164169.376176983,-13164169.376176985,-13164169.376176985,-13164169.376176987,-13164169.376176989,-13164169.376176989,-13164169.37617699,-13164169.376176992,-13164169.376176992,-13164169.376176994,-13164169.376176996,-13164169.376176996,-13164169.376176998,-13164169.376177,-13164169.376177,-13164169.376177002,-13164169.376177004,-13164169.376177004,-13164169.376177005,-13164169.376177007,-13164169.376177007,-13164169.37617701,-13164169.376177011,-13164169.376177011,-13164169.376177013,-13164169.376177015,-13164169.376177015,-13164169.376177017,-13164169.376177019,-13164169.376177019,-13164169.37617702,-13164169.376177022,-13164169.376177022,-13164169.376177024,-13164169.376177026,-13164169.376177026,-13164169.376177028,-13164169.37617703,-13164169.37617703,-13164169.376177032,-13164169.376177033,-13164169.376177033,-13164169.376177035,-13164169.376177037,-13164169.376177037,-13164169.376177039,-13164169.37617704,-13164169.37617704,-13164169.376177043,-13164169.376177045,-13164169.376177045,-13164169.376177046,-13164169.376177048,-13164169.37617705,-13164169.37617705,-13164169.376177052,-13164169.376177054,-13164169.376177054,-13164169.376177056,-13164169.376177058,-13164169.376177058,-13164169.37617706,-13164169.376177061,-13164169.376177061,-13164169.376177063,-13164169.376177063,-13164169.376177065,-13164169.376177067,-13164169.376177067,-13164169.376177069,-13164169.37617707,-13164169.37617707,-13164169.376177073,-13164169.376177074,-13164169.376177074,-13164169.376177076,-13164169.376177078,-13164169.376177078,-13164169.37617708,-13164169.376177082,-13164169.376177082,-13164169.376177084,-13164169.376177086,-13164169.376177086,-13164169.376177087,-13164169.37617709,-13164169.37617709,-13164169.376177091,-13164169.376177093,-13164169.376177093,-13164169.376177095,-13164169.376177097,-13164169.376177097,-13164169.376177099,-13164169.3761771,-13164169.3761771,-13164169.376177102,-13164169.376177104,-13164169.376177104,-13164169.376177106,-13164169.376177108,-13164169.376177108,-13164169.37617711,-13164169.376177112,-13164169.376177112,-13164169.376177114,-13164169.376177115,-13164169.376177115,-13164169.376177117,-13164169.37617712,-13164169.37617712,-13164169.376177121,-13164169.376177123,-13164169.376177123,-13164169.376177125,-13164169.376177127,-13164169.376177127,-13164169.376177128,-13164169.37617713,-13164169.37617713,-13164169.376177132,-13164169.376177134,-13164169.376177134,-13164169.376177136,-13164169.376177138,-13164169.376177138,-13164169.37617714,-13164169.376177141,-13164169.376177141,-13164169.376177143,-13164169.376177145,-13164169.376177145,-13164169.376177147,-13164169.376177147,-13164169.376177149,-13164169.37617715,-13164169.37617715,-13164169.376177153,-13164169.376177154,-13164169.376177154,-13164169.376177156,-13164169.376177158,-13164169.376177158,-13164169.37617716,-13164169.376177162,-13164169.376177162,-13164169.376177164,-13164169.376177166,-13164169.376177166,-13164169.376177168,-13164169.37617717,-13164169.37617717,-13164169.376177171,-13164169.376177173,-13164169.376177173,-13164169.376177175,-13164169.376177177,-13164169.376177177,-13164169.376177179,-13164169.37617718,-13164169.37617718,-13164169.376177182,-13164169.376177182,-13164169.376177184,-13164169.376177186,-13164169.376177186,-13164169.376177188,-13164169.37617719,-13164169.37617719,-13164169.376177192,-13164169.376177194,-13164169.376177194,-13164169.376177195,-13164169.376177197,-13164169.376177197,-13164169.3761772,-13164169.376177201,-13164169.376177201,-13164169.376177203,-13164169.376177205,-13164169.376177205,-13164169.376177207,-13164169.376177208,-13164169.376177208,-13164169.37617721,-13164169.376177212,-13164169.376177212,-13164169.376177214,-13164169.376177214,-13164169.376177216,-13164169.376177218,-13164169.376177218,-13164169.37617722,-13164169.376177222,-13164169.376177222,-13164169.376177223,-13164169.376177225,-13164169.376177225,-13164169.376177227
