,0,1,2,3,4,5,6,7,8,9,10,11,12,13,14,15,16,17,18,19,20,21,22,23,24,25,26,27,28,29,30,31,32,33,34,35,36,37,38,39,40,41,42,43,44,45,46,47,48,49,50,51,52,53,54,55,56,57,58,59,60,61,62,63,64,65,66,67,68,69,70,71,72,73,74,75,76,77,78,79,80,81,82,83,84,85,86,87,88,89,90,91,92,93,94,95,96,97,98,99,100,101,102,103,104,105,106,107,108,109,110,111,112,113,114,115,116,117,118,119,120,121,122,123,124,125,126,127,128,129,130,131,132,133,134,135,136,137,138,139,140,141,142,143,144,145,146,147,148,149,150,151,152,153,154,155,156,157,158,159,160,161,162,163,164,165,166,167,168,169,170,171,172,173,174,175,176,177,178,179,180,181,182,183,184,185,186,187,188,189,190,191,192,193,194,195,196,197,198,199,200,201,202,203,204,205,206,207,208,209,210,211,212,213,214,215,216,217,218,219,220,221,222,223,224,225,226,227,228,229,230,231,232,233,234,235,236,237,238,239,240,241,242,243,244,245,246,247,248,249,250,251,252,253,254,255,256,257,258,259,260,261,262,263,264,265,266,267,268,269,270,271,272,273,274,275,276,277,278,279,280,281,282,283,284,285,286,287,288,289,290,291,292,293,294,295,296,297,298,299,300,301,302,303,304,305,306,307,308,309,310,311,312,313,314,315,316,317,318,319,320,321,322,323,324,325,326,327,328,329,330,331,332,333,334,335,336,337,338,339,340,341,342,343,344,345,346,347,348,349,350,351,352,353,354,355,356,357,358,359,360,361,362,363,364,365,366,367,368,369,370,371,372,373,374,375,376,377,378,379,380,381,382,383,384,385,386,387,388,389,390,391,392,393,394,395,396,397,398,399,400,401,402,403,404,405,406,407,408,409,410,411,412,413,414,415,416,417,418,419,420,421,422,423,424,425,426,427,428,429,430,431,432,433,434,435,436,437,438,439,440,441,442,443,444,445,446,447,448,449,450,451,452,453,454,455,456,457,458,459,460,461,462,463,464,465,466,467,468,469,470,471,472,473,474,475,476,477,478,479,480,481,482,483,484,485,486,487,488,489,490,491,492,493,494,495,496,497,498,499,500,501,502,503,504,505,506,507,508,509,510,511,512,513,514,515,516,517,518,519,520,521,522,523,524,525,526,527,528,529,530,531,532,533,534,535,536,537,538,539,540,541,542,543,544,545,546,547,548,549,550,551,552,553,554,555,556,557,558,559,560,561,562,563,564,565,566,567,568,569,570,571,572,573,574,575,576,577,578,579,580,581,582,583,584,585,586,587,588,589,590,591,592,593,594,595,596,597,598,599,600,601,602,603,604,605,606,607,608,609,610,611,612,613,614,615,616,617,618,619,620,621,622,623,624,625,626,627,628,629,630,631,632,633,634,635,636,637,638,639,640,641,642,643,644,645,646,647,648,649,650,651,652,653,654,655,656,657,658,659,660,661,662,663,664,665,666,667,668,669,670,671,672,673,674,675,676,677,678,679,680,681,682,683,684,685,686,687,688,689,690,691,692,693,694,695,696,697,698,699,700,701,702,703,704,705,706,707,708,709,710,711,712,713,714,715,716,717,718,719,720,721,722,723,724,725,726,727,728,729,730,731,732,733,734,735,736,737,738,739,740,741,742,743,744,745,746,747,748,749,750,751,752,753,754,755,756,757,758,759,760,761,762,763,764,765,766,767,768,769,770,771,772,773,774,775,776,777,778,779,780,781,782,783,784,785,786,787,788,789,790,791,792,793,794,795,796,797,798,799,800,801,802,803,804,805,806,807,808,809,810,811,812,813,814,815,816,817,818,819,820,821,822,823,824,825,826,827,828,829,830,831,832,833,834,835,836,837,838,839,840,841,842,843,844,845,846,847,848,849,850,851,852,853,854,855,856,857,858,859,860,861,862,863,864,865,866,867,868,869,870,871,872,873,874,875,876,877,878,879,880,881,882,883,884,885,886,887,888,889,890,891,892,893,894,895,896,897,898,899,900,901,902,903,904,905,906,907,908,909,910,911,912,913,914,915,916,917,918,919,920,921,922,923,924,925,926,927,928,929,930,931,932,933,934,935,936,937,938,939,940,941,942,943,944,945,946,947,948,949,950,951,952,953,954,955,956,957,958,959,960,961,962,963,964,965,966,967,968,969,970,971,972,973,974,975,976,977,978,979,980,981,982,983,984,985,986,987,988,989,990,991,992,993,994,995,996,997,998,999,1000,1001,1002,1003,1004,1005,1006,1007,1008,1009,1010,1011,1012,1013,1014,1015,1016,1017,1018,1019,1020,1021,1022,1023,1024,1025,1026,1027,1028,1029,1030,1031,1032,1033,1034,1035,1036,1037,1038,1039,1040,1041,1042,1043,1044,1045,1046,1047,1048,1049,1050,1051,1052,1053,1054,1055,1056,1057,1058,1059,1060,1061,1062,1063,1064,1065,1066,1067,1068,1069,1070,1071,1072,1073,1074,1075,1076,1077,1078,1079,1080,1081,1082,1083,1084,1085,1086,1087,1088,1089,1090,1091,1092,1093,1094,1095,1096,1097,1098,1099,1100,1101,1102,1103,1104,1105,1106,1107,1108,1109,1110,1111,1112,1113,1114,1115,1116,1117,1118,1119,1120,1121,1122,1123,1124,1125,1126,1127,1128,1129,1130,1131,1132,1133,1134,1135,1136,1137,1138,1139,1140,1141,1142,1143,1144,1145,1146,1147,1148,1149,1150,1151,1152,1153,1154,1155,1156,1157,1158,1159,1160,1161,1162,1163,1164,1165,1166,1167,1168,1169,1170,1171,1172,1173,1174,1175,1176,1177,1178,1179,1180,1181,1182,1183,1184,1185,1186,1187,1188,1189,1190,1191,1192,1193,1194,1195,1196,1197,1198,1199,1200,1201,1202,1203,1204,1205,1206,1207,1208,1209,1210,1211,1212,1213,1214,1215,1216,1217,1218,1219,1220,1221,1222,1223,1224,1225,1226,1227,1228,1229,1230,1231,1232,1233,1234,1235,1236,1237,1238,1239,1240,1241,1242,1243,1244,1245,1246,1247,1248,1249,1250,1251,1252,1253,1254,1255,1256,1257,1258,1259,1260,1261,1262,1263,1264,1265,1266,1267,1268,1269,1270,1271,1272,1273,1274,1275,1276,1277,1278,1279,1280,1281,1282,1283,1284,1285,1286,1287,1288,1289,1290,1291,1292,1293,1294,1295,1296,1297,1298,1299,1300,1301,1302,1303,1304,1305,1306,1307,1308,1309,1310,1311,1312,1313,1314,1315,1316,1317,1318,1319,1320,1321,1322,1323,1324,1325,1326,1327,1328,1329,1330,1331,1332,1333,1334,1335,1336,1337,1338,1339,1340,1341,1342,1343,1344,1345,1346,1347,1348,1349,1350,1351,1352,1353,1354,1355,1356,1357,1358,1359,1360,1361,1362,1363,1364,1365,1366,1367,1368,1369,1370,1371,1372,1373,1374,1375,1376,1377,1378,1379,1380,1381,1382,1383,1384,1385,1386,1387,1388,1389,1390,1391,1392,1393,1394,1395,1396,1397,1398,1399,1400,1401,1402,1403,1404,1405,1406,1407,1408,1409,1410,1411,1412,1413,1414,1415,1416,1417,1418,1419,1420,1421,1422,1423,1424,1425,1426,1427,1428,1429,1430,1431,1432,1433,1434,1435,1436,1437,1438,1439,1440,1441,1442,1443,1444,1445,1446,1447,1448,1449,1450,1451,1452,1453,1454,1455,1456,1457,1458,1459,1460,1461,1462,1463,1464,1465,1466,1467,1468,1469,1470,1471,1472,1473,1474,1475,1476,1477,1478,1479,1480,1481,1482,1483,1484,1485,1486,1487,1488,1489,1490,1491,1492,1493,1494,1495,1496,1497,1498,1499,1500,1501,1502,1503,1504,1505,1506,1507,1508,1509,1510,1511,1512,1513,1514,1515,1516,1517,1518,1519,1520,1521,1522,1523,1524,1525,1526,1527,1528,1529,1530,1531,1532,1533,1534,1535,1536,1537,1538,1539,1540,1541,1542,1543,1544,1545,1546,1547,1548,1549,1550,1551,1552,1553,1554,1555,1556,1557,1558,1559,1560,1561,1562,1563,1564,1565,1566,1567,1568,1569,1570,1571,1572,1573,1574,1575,1576,1577,1578,1579,1580,1581,1582,1583,1584,1585,1586,1587,1588,1589,1590,1591,1592,1593,1594,1595,1596,1597,1598,1599,1600,1601,1602,1603,1604,1605,1606,1607,1608,1609,1610,1611,1612,1613,1614,1615,1616,1617,1618,1619,1620,1621,1622,1623,1624,1625,1626,1627,1628,1629,1630,1631,1632,1633,1634,1635,1636,1637,1638,1639,1640,1641,1642,1643,1644,1645,1646,1647,1648,1649,1650,1651,1652,1653,1654,1655,1656,1657,1658,1659,1660,1661,1662,1663,1664,1665,1666,1667,1668,1669,1670,1671,1672,1673,1674,1675,1676,1677,1678,1679,1680,1681,1682,1683,1684,1685,1686,1687,1688,1689,1690,1691,1692,1693,1694,1695,1696,1697,1698,1699,1700,1701,1702,1703,1704,1705,1706,1707,1708,1709,1710,1711,1712,1713,1714,1715,1716,1717,1718,1719,1720,1721,1722,1723,1724,1725,1726,1727,1728,1729,1730,1731,1732,1733,1734,1735,1736,1737,1738,1739,1740,1741,1742,1743,1744,1745,1746,1747,1748,1749,1750,1751,1752,1753,1754,1755,1756,1757,1758,1759,1760,1761,1762,1763,1764,1765,1766,1767,1768,1769,1770,1771,1772,1773,1774,1775,1776,1777,1778,1779,1780,1781,1782,1783,1784,1785,1786,1787,1788,1789,1790,1791,1792,1793,1794,1795,1796,1797,1798,1799,1800,1801,1802,1803,1804,1805,1806,1807,1808,1809,1810,1811,1812,1813,1814,1815,1816,1817,1818,1819,1820,1821,1822,1823,1824,1825,1826,1827,1828,1829,1830,1831,1832,1833,1834,1835,1836,1837,1838,1839,1840,1841,1842,1843,1844,1845,1846,1847,1848,1849,1850,1851,1852,1853,1854,1855,1856,1857,1858,1859,1860,1861,1862,1863,1864,1865,1866,1867,1868,1869,1870,1871,1872,1873,1874,1875,1876,1877,1878,1879,1880,1881,1882,1883,1884,1885,1886,1887,1888,1889,1890,1891,1892,1893,1894,1895,1896,1897,1898,1899,1900,1901,1902,1903,1904,1905,1906,1907,1908,1909,1910,1911,1912,1913,1914,1915,1916,1917,1918,1919,1920,1921,1922,1923,1924,1925,1926,1927,1928,1929,1930,1931,1932,1933,1934,1935,1936,1937,1938,1939,1940,1941,1942,1943,1944,1945,1946,1947,1948,1949,1950,1951,1952,1953,1954,1955,1956,1957,1958,1959,1960,1961,1962,1963,1964,1965,1966,1967,1968,1969,1970,1971,1972,1973,1974,1975,1976,1977,1978,1979,1980,1981,1982,1983,1984,1985,1986,1987,1988,1989,1990,1991,1992,1993,1994,1995,1996,1997,1998,1999,2000,2001,2002,2003,2004,2005,2006,2007,2008,2009,2010,2011,2012,2013,2014,2015,2016,2017,2018,2019,2020,2021,2022,2023,2024,2025,2026,2027,2028,2029,2030,2031,2032,2033,2034,2035,2036,2037,2038,2039,2040,2041,2042,2043,2044,2045,2046,2047,2048,2049,2050,2051,2052,2053,2054,2055,2056,2057,2058,2059,2060,2061,2062,2063,2064,2065,2066,2067,2068,2069,2070,2071,2072,2073,2074,2075,2076,2077,2078,2079,2080,2081,2082,2083,2084,2085,2086,2087,2088,2089,2090,2091,2092,2093,2094,2095,2096,2097,2098,2099,2100,2101,2102,2103,2104,2105,2106,2107,2108,2109,2110,2111,2112,2113,2114,2115,2116,2117,2118,2119,2120,2121,2122,2123,2124,2125,2126,2127,2128,2129,2130,2131,2132,2133,2134,2135,2136,2137,2138
0,-1342.8524316458943,-1404.546477660544,2851.309766102083,1695.4847107576,0.0,0.0,-1027.0400397509463,0.0,-824.5933635350187,-1031.2041875670714,-1844.357581541783,-1974.4656523137487,3253.85871056278,1100.683780036011,0.0,0.0,1221.908658075353,0.0,-1056.6496362161306,-1738.4519003562061,-1458.1400310469464,-1250.1234830027583,-941.8606322231473,-1085.099351265706,2296.9071789078575,2940.605276053037,-895.2489661940488,2193.8021458449434,1950.408575117432,-941.0093278134614,0.0,-886.5080600321602,-1396.272862681728,1492.5504876278235,-1480.1397316966306,-940.9204096079133,0.0,-994.8797743253892,-1072.2674165021408,-1822.0120051773176,-1651.2897234760453,0.0,0.0,694.1174112814318,0.0,0.0,0.0,0.0,-1031.669089889244,0.0,0.0,-2368.0122418008123,1111.4924736721637,-999.707600616756,-2739.1320847097268,0.0,-1010.6894826782204,-1471.2821483205523,4258.761386083588,0.0,0.0,0.0,1920.7270982123107,1129.2520935371465,0.0,0.0,0.0,-1154.0209781353672,-698.4350008995594,-929.6715220519684,0.0,-1211.797643781187,0.0,-1855.7938636742076,-1448.803052880786,0.0,-1841.6335000620668,0.0,-1227.3639090410768,-1508.930578664393,0.0,2605.311796041357,0.0,0.0,0.0,-1409.0170755269307,0.0,0.0,0.0,-1623.3641480893748,-1325.0877871648368,0.0,-1488.0994162503273,-1216.0613836059738,0.0,-1271.55875515667,-1152.1532773897222,-907.5486049667483,-1233.3573458281808,2916.6553454763966,1907.813258814864,-1247.3673925020983,874.7582094644525,0.0,-1323.127819260865,-1102.8355353121558,940.5947720784397,-1426.127421249779,0.0,-786.223389261734,-1391.027531623674,0.0,-1009.8768842467464,-1168.4994522854488,-1406.3093165215246,-1184.359351092096,-1990.4947884776693,0.0,-1105.6836175730193,0.0,3759.3231368832253,2350.109289230159,2737.0394260078174,1728.8455024720142,1396.7793671774273,1045.8588889373434,-927.5424306251803,0.0,721.185671253513,-1393.8058266013686,0.0,-833.9109591323638,-1376.6583336482634,0.0,-1215.3340904882505,-1246.7144539188864,-1197.419732203352,-1838.7299498592474,-1614.571055141154,-1197.802708701684,-1528.1263331230182,-881.4504946191802,-798.4409548180306,0.0,0.0,713.7860085592897,0.0,0.0,0.0,1135.2963487124348,-1218.892652188005,0.0,-1239.784914855165,0.0,858.355653512262,-1312.0795484004907,-1026.143547156865,-954.9692694002559,-921.3764054626063,0.0,-863.5519581981664,-1360.428661521505,-1646.761709078325,-1183.0408854030168,-1242.0988517334024,-1104.5301435940937,-1168.7825439727346,-895.731830578252,0.0,-1189.2794234820576,1852.355340271239,2189.669683675753,-1199.7557597724865,0.0,0.0,0.0,-900.4867995078233,-1005.4075800161692,0.0,1980.5682726045509,-1022.7087785916914,-645.994596744968,-926.6769698047013,-1399.3683222422706,-1194.3273900016607,-1209.383033721084,-1140.107183032842,-996.7117543878455,-1048.8933265799335,0.0,0.0,854.2751708894298,2109.529798308955,1720.5286287552306,2016.9792193457201,0.0,-1062.8877697620348,0.0,0.0,0.0,0.0,-706.0457609851865,-896.3253920296277,-1080.655515270021,-1010.4773389869391,0.0,0.0,-1191.9452266049097,-965.0107734599893,-791.0251369142269,-1328.859187998886,-1349.7394730769363,-874.4713703129045,-1042.4308311915847,-1314.024681093644,-1006.445895695743,-1143.2438803804318,-1232.1530332041018,-1059.4349623265045,-1030.6529981176886,0.0,0.0,-1239.370732322612,0.0,0.0,3989.348864563791,2755.789590367103,2146.4646104918857,1871.959878844138,1167.9338038124688,0.0,-1010.0356145666915,-11974.579624384947,-1262.0682846468073,0.0,-860.0061327427317,0.0,0.0,-980.1909763070055,-1582.0784370769356,-2408.415964655142,-1473.0799516955042,-1400.230181801768,-977.322486432429,0.0,-1082.7971517623073,-1130.8525943756704,-1313.3464687094183,-1064.5778019639404,-940.8075541831842,0.0,2269.1135797799166,0.0,0.0,0.0,0.0,1739.9806740487738,2209.1434751793754,-997.9196710089772,0.0,0.0,0.0,0.0,-1071.2018904086258,0.0,0.0,0.0,-1272.9257531611859,1046.3045623484618,0.0,0.0,-1086.1171245609046,-928.1258789068261,1277.260653170014,-1240.4084319841477,0.0,-1159.2160396415004,0.0,-1299.5283156021576,-1449.0702004296186,0.0,-1044.7980652062754,-954.5245372547577,-1587.713794611531,-887.0258731707494,0.0,-1498.683691855403,-1411.6733164464397,-1479.3817632815983,-1320.4649261759128,3029.613442027395,3390.794395939847,0.0,0.0,848.6091197985579,0.0,0.0,0.0,0.0,0.0,-1076.6390559685597,1862.0521129094138,-748.7408191864583,-1219.0936120610943,-913.4323963605132,-1419.1921697643977,-1258.303210011957,-913.6313979421031,-1330.8874911304633,-896.7785424165795,0.0,0.0,1571.7836074661234,0.0,0.0,351.3891345197984,0.0,-907.7125641366432,0.0,-877.9649779160261,-810.9945232461971,-759.9166575681294,0.0,-760.1432992756431,-1162.7014411672021,-898.5084027714236,-886.0861136056769,0.0,-1324.5660343538366,0.0,-1648.5752583053188,0.0,-1369.9975696607344,0.0,0.0,0.0,0.0,0.0,1962.9114065469003,-568.427561564892,-529.6450259645471,976.2216681716347,0.0,0.0,0.0,0.0,0.0,-995.859430559383,0.0,-1030.1966512331355,0.0,0.0,0.0,-946.1552450579661,2187.2571845587954,-1084.1347414030708,-948.1524337638087,0.0,-1321.6222392947118,-1514.5758331138718,-1057.9402006794935,-1689.1448658171557,-1116.147530470023,-970.8916549122935,-972.1631912286093,-1020.068108947275,-1398.5277831022133,-1066.5104616230717,3209.6495532190906,2670.34595605457,1433.7758967215063,1769.524512841555,765.3448125238749,0.0,0.0,-831.2214000056799,-961.1821089983731,0.0,-1442.928305324105,-1059.3417905949018,-1068.7098919025557,-1488.170860483064,-1196.6812928986008,-1239.4808556698706,-1064.000021276031,0.0,-1285.3511320704238,0.0,2174.2045764251593,0.0,1776.6380314286744,-1226.0485344893766,0.0,-766.6561252873256,692.2633850497149,0.0,-867.4027412195898,0.0,-862.241039622087,-898.4151022054688,-893.2872878778353,-957.9131798955232,0.0,-1326.3630360265036,-1065.0570485453225,-1740.2189229428052,-1132.5032616563044,-1705.1274332949943,-1311.940981249088,0.0,0.0,2071.3732466796223,2366.0837682865445,2019.2593840238167,2135.2195502789673,0.0,0.0,0.0,0.0,-1070.7605295759097,-1662.6553234762935,1663.0009961080655,-1112.552944929459,-865.1641399591317,-1312.682923101631,-1049.9210967096765,0.0,-1557.5762028441807,-1404.103243616716,-1006.3503419489427,-1668.347587259813,-1076.7861696039051,-1172.9026968416686,0.0,0.0,-2668.1384965964317,2051.4856114593345,0.0,0.0,0.0,0.0,-977.4992971238489,0.0,0.0,0.0,1580.1121276214992,-1479.392248666128,0.0,-1151.9468516475977,-1724.1295739547459,-1274.4409687235543,-890.5501650371717,-966.4653724407111,0.0,1735.6459918049295,0.0,0.0,-1209.6336690996914,0.0,0.0,1098.8801227767901,0.0,-877.7114988819246,-30170.237878603046,-976.1197117069717,0.0,-949.0811443227843,0.0,0.0,-1305.43602801636,-1037.0167495300989,-981.5459825538176,0.0,0.0,573.0246175389058,1211.3419011630529,1227.7754551504627,0.0,-1455.9315989612405,-977.981232065515,0.0,-1204.3642800503123,0.0,-1180.4975265543117,-568.522220804064,-1042.0145299906533,-1307.026263838779,-1261.0425559952373,-1631.8928487769917,-1178.6998673620371,-1364.7731786406491,-1228.4823550644048,-896.0826182160264,1972.5505667071798,0.0,2884.5034018424526,0.0,1097.9871107351432,1088.3255672614907,834.2938946425116,441.4411890437354,-1074.1391595929913,-1105.134198252561,1089.1658338354741,0.0,-1612.0165342792607,-1146.6092921924294,-1120.8478427278937,-1141.6634852926463,-1204.779502529541,0.0,2515.627460760486,0.0,0.0,-1119.6499585997174,-1062.4416704572131,851.268478252283,985.7135417174215,-720.7288700701436,0.0,0.0,-897.8877074967367,-1016.8848791526373,-973.1584591250597,-925.6736988576394,-1001.28132645012,-898.6331875519749,0.0,2555.277997762387,0.0,0.0,0.0,-895.465564949113,0.0,-932.9760027237602,0.0,-1335.0619673265826,-1206.8455427065308,-1471.9840825455328,-900.6878595988345,-1369.9689657134504,0.0,2359.4567247130108,0.0,0.0,0.0,0.0,-924.6161074654002,0.0,-1005.5746251554787,-1086.984078188186,0.0,-1234.3602530671951,-1124.6539373512721,-1369.8815277180456,0.0,1127.4314292279955,616.8277486250215,0.0,-1044.7806456874137,-1290.460949513906,-1023.7523685505586,0.0,-1347.7429125564533,-1807.808513228138,-1738.980067595698,-1110.0867645434744,0.0,2202.1313874741536,1315.5833707143724,0.0,0.0,720.2617592794742,-1011.8607198925704,-1178.1486789160956,-996.2693690808459,-1687.6764766519934,-1170.683513751537,-1020.1595551202486,0.0,2036.466138984014,-903.8450454655593,-784.3145883039394,0.0,-1484.7616401699725,-1253.4457840969187,-1075.4284378062812,-974.3850278320224,-818.0786856208379,0.0,-1284.847693485978,-1532.8590968079482,-1416.1319237790492,-985.4795720939804,0.0,1499.8837906725241,1136.5009501658922,0.0,0.0,0.0,703.767299727106,0.0,-1641.8370218714479,0.0,831.0762077731283,-1171.4126819561084,0.0,-1053.2643440522675,-1287.450160215276,-1153.6136108726687,-1713.1783458191264,0.0,-971.2133377554636,-1344.9379733493934,1986.82435803304,1747.0840938536364,0.0,659.9259254222023,-1049.042007045811,-1582.6368083508373,1216.94927973417,-1338.240447573858,-1044.1717460371294,-1068.7011584800161,0.0,-1252.7022947531752,0.0,0.0,1919.9416415548565,2038.261260418335,-1080.9255627415382,0.0,796.1905269089217,-1172.143359142927,1520.562269848795,1024.3415805085187,0.0,-1039.3922537918831,-1334.7345915443548,-1404.3346713223923,-881.1428682011599,-1352.0193488194116,-2972.1283522085164,2273.466996658423,982.2332492407404,-973.2234966637152,0.0,189.49819077217225,-960.8384519265544,0.0,1012.2098975101394,-1301.9584578616236,-1083.9648723303872,-1166.462237353859,-1121.3025222475478,0.0,0.0,0.0,1468.1586559168381,0.0,0.0,-1107.768355893526,0.0,-1148.950469067803,-1129.9829229708719,-1020.6811332574831,0.0,0.0,-1183.945943811296,-686.1027747356005,0.0,1786.766731229411,1099.7449689606212,0.0,0.0,0.0,0.0,-980.6837018805043,1865.5120423938765,-1111.1195694856633,-1037.5236784503852,0.0,-1134.1839493187488,-987.4884261913502,-1099.2439340299898,0.0,0.0,0.0,0.0,-1345.4994948743629,630.6042623122646,-1056.2622097494727,-369.33874833919367,-415.77162566978564,-1164.5623637773615,-1220.970399630454,-1021.969197117215,0.0,2367.690356326905,0.0,343.0542867478737,0.0,310.91593077800127,-1398.945223265731,1688.0896773046397,-1149.0335771079049,-1273.8613223585153,-1075.3375004198667,0.0,2107.049032068295,1026.8474368199759,490.5118377600496,420.67938796653357,354.81392008910854,1463.0036011613965,-1022.6720494095528,2308.8011189048348,-1544.0445767431193,-1101.3468291038905,-869.8800624080997,708.5430397395289,1227.151311811417,0.0,791.7694996650722,0.0,-1165.7624455718594,1519.1670505330749,2104.6262873340324,-899.4558076462483,-1191.0019858520081,-1313.2828350135937,-1050.400941171025,-904.5592765239428,-883.7002945961559,0.0,0.0,0.0,-757.0112222782362,-889.875690602302,-915.330090227886,0.0,0.0,0.0,908.0093205805277,0.0,-1293.7753646800024,-954.163320227884,0.0,-1059.9790699248188,-1301.2584679612858,-1153.1427353276856,-1131.6751083900217,0.0,-821.958447271884,0.0,-990.6457035325926,-1057.2368315306649,-1172.4457259495148,-1192.3847764572997,-1769.5808998125488,-608.4319423661696,0.0,521.8019746213837,0.0,0.0,-1446.2827831473005,-1050.0263604941508,-960.2965186841942,-1701.6460815528721,0.0,3079.0433294861805,1545.827752622543,0.0,697.0537374841276,1012.0406317726672,-843.8112919749757,-1172.1822326445931,-1154.2286490828556,0.0,-1274.4426241399553,-1396.49000530097,-1113.5718701913702,0.0,0.0,1216.6378269801323,0.0,0.0,-28630.62705253835,181.93078659378597,-879.7697854912456,-1212.8615016998403,-967.4212507480296,-962.2811685378982,0.0,1756.3193974311428,1723.251645272615,0.0,0.0,0.0,1609.4701382873025,-1032.4057275611506,-1135.976002579265,-1227.5252283770592,1706.1984881288759,1888.2192774397777,0.0,0.0,-1418.705866820456,-1062.8032642278915,-954.8310044853691,-1707.1374095855915,-1344.0143397257727,0.0,2264.2753998753383,858.2199856763871,-1262.2162045946918,-532.245707541199,-964.3728453852218,-1106.8999166624526,-1041.5580535304166,0.0,-1314.2331111430294,-779.0442176791612,0.0,788.7294292873356,762.1265268530817,-972.2060544279593,-1231.5276856117193,0.0,-1055.463688879664,-758.1503360896036,-984.3203173324904,-951.4784218581655,0.0,-845.0198987588717,-908.8335890052807,1538.5439994025967,0.0,-1299.8412394674378,-556.7851643231733,0.0,899.4864527237837,0.0,0.0,-975.2980627514565,0.0,0.0,-1667.6937693476884,-1090.2462825868204,-1188.8601843673944,1565.2594597037785,221.8452781105514,-1715.9228184856042,0.0,-1146.8276681115497,-1183.731044177215,0.0,-879.7886599541343,0.0,0.0,-1128.0139181938728,-1032.9278684131784,-1205.0017770412258,-1753.509180569354,0.0,0.0,346.6961491323415,0.0,0.0,-1343.0793687277687,-1123.540061564919,0.0,1150.7486168169607,0.0,0.0,-800.1625835201709,0.0,-1512.4088638281733,-1423.6201489286193,902.4311867488389,0.0,0.0,882.6105841837767,-1173.599487778056,-1322.6488994094366,0.0,969.1498399518101,821.6521053182254,-1035.3639450780722,-937.3086463446111,0.0,-812.4255105574335,0.0,0.0,0.0,0.0,-867.7695051460696,-1094.7084916163012,-1107.2055018502338,0.0,-646.7078885449911,1558.3761162073222,0.0,0.0,0.0,-1155.7013985651492,-913.2286039715412,-1087.0169601616426,-1525.631572999934,-3291.2906163505104,0.0,1047.7270973749469,0.0,-883.9668178863719,-1154.0043044757133,-1152.9938112949826,-720.9566325611486,-1299.1568476142807,-1596.569557660185,-918.5126315123979,0.0,439.22340505034276,0.0,1342.8699764318703,-976.4114437415069,-885.1513711560991,-805.4399077984617,0.0,1701.1388866723048,845.9168807099002,0.0,1707.652574140496,2578.2195095301076,0.0,2548.0561589061035,1727.7731525181032,0.0,992.1800214307306,0.0,0.0,-1526.515011992511,2057.2117032771243,0.0,978.9042547558898,908.796190152502,1478.0893263015494,0.0,-635.1700875345862,1362.5353217530871,0.0,873.0626407899769,976.6987404542476,918.5047289833185,1375.0739657009733,1445.7968082433795,0.0,2117.721434911989,1955.2547342397793,897.595237859554,674.3416148896627,984.4097439162492,1747.775402124378,0.0,1062.257710863298,2333.8791536741596,0.0,0.0,0.0,1002.6371142156228,1656.5876931953746,0.0,0.0,1014.1278127171042,0.0,0.0,1152.0212116484206,955.1463734174409,778.1773014843435,1185.370047563755,0.0,-1045.5380894360046,-1522.767763668034,2360.066145207474,0.0,0.0,0.0,0.0,0.0,-954.991218500328,-1156.6866603968165,0.0,0.0,0.0,-919.9375883102523,-938.4412706836201,-1136.4867870821488,-887.4131058603577,0.0,0.0,0.0,0.0,0.0,0.0,-1189.9605658633225,1421.0869900032214,-996.1854963850266,0.0,0.0,1929.965643703755,776.6856370891072,-335.2279416479174,0.0,0.0,-858.3870745887402,-836.7510013462615,-1325.8484922276323,-919.0807131320962,1426.312635695157,0.0,0.0,855.2509249350313,-1191.067278052135,-1032.2326522732526,0.0,-1228.9612855879425,-972.5619420843316,-610.6461584067127,0.0,0.0,0.0,-1344.252508065534,0.0,-1076.7811722938445,-1115.5810556884226,-1105.4056778731344,2368.5604634369556,0.0,842.0128273823134,0.0,740.4593845611053,825.5368650933179,-1354.8058571523568,-1095.9012080570922,0.0,-1267.0652691764533,0.0,2013.0511350180689,0.0,1108.1353980866386,424.9935548459912,-927.5861569342953,0.0,0.0,-963.8746229162351,0.0,-961.2485984588754,-1406.8764260571165,2751.659669360741,1499.8154315215656,0.0,1092.7476450432446,-826.8615323154424,1003.4899887709411,0.0,0.0,-1000.9938584074305,-760.2530634770606,-1192.7732586818668,0.0,2048.257903842882,0.0,0.0,-872.9399867283792,-1041.2383113230603,-841.3427930742051,0.0,-1596.2827546958044,0.0,-38422.74107735372,0.0,0.0,-961.9337378823989,980.2316852737258,-752.0337418152616,-1003.7182343687773,-1576.1407901074365,0.0,1094.9193302706403,0.0,0.0,-1022.4815466983879,-1065.652918735535,-1329.4170103267795,-1150.7635508551082,932.5752158509915,765.2128492072204,-439.04273594516474,839.0709085075816,723.2448578734476,0.0,-1036.3111424879778,-1046.2952317868837,-1281.7052800199797,1251.4527126909904,0.0,0.0,-1003.4241245705086,-960.2464591058995,-1049.9130120745156,-920.0470104509247,-1056.6430205726588,-1367.9679951748271,2403.4470717367694,1519.4530498632923,0.0,-841.3445470332496,-1047.0437982181638,918.3019344176258,-1057.4549240809993,0.0,2363.1001117452515,2318.3833412092936,0.0,0.0,-931.8823791095591,-853.2509659561917,-1257.6982190657911,-1617.2568582808822,0.0,1134.6908560753236,0.0,0.0,879.0675269195582,538.1828149452928,0.0,-1018.2683846401243,0.0,-1155.4755819021473,-946.3469976518354,3832.6009085026785,0.0,1101.062237361132,0.0,0.0,0.0,-1123.282854307211,0.0,-1613.70678166979,5323.135939963854,2610.8426996533267,1647.0288737248588,0.0,-872.173470343645,0.0,0.0,-1131.5296555302298,-1094.7495557296086,-1603.4037462274923,-763.2873494478671,2741.438314283459,1483.0171793327897,0.0,864.9008666325966,-1335.024927017652,-1131.266990046922,-1046.28486032085,-1122.8070333829203,0.0,0.0,2043.2829900361971,0.0,-773.5857448530226,-1009.062065156425,-831.1517562877257,-1215.6928006061448,-1091.7325689028032,3575.637642278464,0.0,0.0,784.8789909407119,1615.5823278335047,-915.3464453243502,-1096.5869175872979,-1281.2676559709273,0.0,1308.3862919779062,0.0,0.0,-818.5015782240567,-1004.5312331103408,-1025.7290088101877,0.0,0.0,0.0,-968.5492715449293,-808.1986643026336,-868.7685858568634,-1020.4269130365559,-1420.2683202825879,0.0,3202.2258442268,0.0,0.0,0.0,-1115.314260359941,-1145.7267868183583,-1263.414793160188,3459.9293492826982,6572.499411474018,2325.5346983218515,0.0,0.0,-1099.9008530397225,0.0,-1356.8862436708014,0.0,-1411.9671222810748,0.0,0.0,-852.479810756369,0.0,-770.1756968597805,-1024.5396223767239,-1912.691280130212,0.0,0.0,1747.4512567830104,1355.1940863769764,0.0,-987.3335417655699,-1199.022665803906,-1823.6988594600732,4319.16870538287,0.0,0.0,-946.6002841808316,0.0,0.0,-630.2147280926973,0.0,0.0,-17850.72736300749,-845.62160751626,-1148.4829868438737,-1437.0727761761525,-633.6660259589944,0.0,0.0,0.0,0.0,-1678.1200218580962,-984.342762091802,3527.896633002119,0.0,-727.5701804640131,-720.9841871774216,0.0,-896.0569389691328,0.0,0.0,4863.9744064034185,0.0,1380.3940859862014,-893.3252268505031,-805.0646154008795,-824.0810251465366,-1262.147313328677,-1208.656559002183,3892.1033719546795,0.0,0.0,-819.986327851163,-890.0070318530787,-977.3719995832664,-1570.6017761683738,-902.5959542301508,0.0,0.0,0.0,-748.0364539536416,0.0,-1331.6556546750196,-1777.0261678182562,3016.817455250645,0.0,0.0,-1030.9818564529967,-867.1518926940986,-1097.7668189605422,-1560.0661931587783,3459.7193026342447,0.0,0.0,0.0,-1453.3575300431962,-1101.19198826941,-1236.7296380427963,-1513.4510979883428,0.0,2833.559105775116,725.9231988122908,1119.9349017352192,-1929.2865320747485,0.0,-1152.7891392918884,-1641.9309025048085,-2553.56576377037,0.0,2114.0859798885945,0.0,-1160.5700866983739,-1048.791027229047,-1320.9677216927814,-1167.8089588497428,440.07384533690873,1377.9528407095622,0.0,1233.1860662308495,0.0,1631.955313131763,1016.7829008923768,-1022.2186117269216,1354.1092514753948,964.28020852311,600.2536206055299,0.0,652.8058089627742,1547.702537612747,0.0,0.0,2604.082132955227,1737.2158622423813,0.0,0.0,0.0,1890.9819926986168,-1580.5611488559018,0.0,1539.0050007284271,0.0,0.0,0.0,-1240.19021529306,0.0,1823.991468484789,1600.5586657987094,958.1109131201141,0.0,1584.3693107380145,0.0,-1018.1965555464976,0.0,1919.2854550066431,987.0381432037698,0.0,1457.6709766703746,895.2178593169849,2400.4978705802037,-1188.456381028017,0.0,3555.185500537547,0.0,1187.4283294986801,1421.009151738372,0.0,-1421.1110209325577,-1166.0147140225276,0.0,0.0,0.0,0.0,1333.556849040343,0.0,0.0,-1400.106209141242,567.2520843886338,3014.578313718742,936.1135726080443,-827.78470601893,1783.7126615317636,-1153.6585536258797,0.0,0.0,3852.843952573215,2616.2382251159984,0.0,1262.9054239417667,2483.969996245846,0.0,-1640.4390026619003,0.0,3958.1980105714556,0.0,0.0,970.4459238433712,1521.6220145501693,0.0,0.0,-1634.3099767508934,4849.033328029177,1826.9547791658963,0.0,0.0,1097.4372093638435,0.0,0.0,0.0,4722.899604942107,3810.580578437587,0.0,0.0,1394.8206987375822,2349.6885801041944,-1213.7221475770834,0.0,3974.3355902268777,2651.7216809491397,0.0,1524.8060507637101,0.0,2773.27489512751,0.0,-3423.030085085908,3735.518550051775,764.9538575986633,823.735318115672,2320.8089216567014,3044.1328727416553,-1418.26944956053,0.0,4456.55950174418,3029.40045086951,0.0,0.0,2180.8221947709417,3187.3413606261174,-1235.2332857477343,4510.584872779609,3194.8029520335144,0.0,1739.8571831016732,1820.9171575251225,-1070.7047598756792,-1352.1726286584062,4312.4264741716825,3985.313521417951,2058.1070591582834,0.0,1467.6071333498733,0.0,-1187.0872070470984,-2072.4888599140577,4947.457722012678,0.0,1214.6616884274033,0.0,1944.0954094418646,-1259.1771322061295,-947.3250570449921,1280.339579366258,2592.308872644749,1487.8446147757631,0.0,1067.1575211939632,-1306.3683987097133,-1108.7354534642034,-984.249698626375,4673.531224225721,0.0,0.0,1456.097825270723,0.0,-1114.815792807899,-1549.3714964417484,-810.1170298698054,0.0,2284.0821808071037,0.0,0.0,1669.2766421559813,-1054.378433973635,-1291.5634387315,-1329.045804522352,3326.524512267771,2785.359394759839,0.0,1613.386924869624,0.0,0.0,0.0,-922.0916347439843,3984.214724677622,2879.5101641271767,0.0,996.3954709022419,1601.2690235820546,-962.7179077735592,-1670.1184483354045,-4846.986456168327,4425.099916119736,3196.361675970879,1312.2449940676313,934.3458041907127,1793.0057991601964,1978.1139869837725,-975.2615787562962,-1393.3835569350936,3976.8006630901355,2846.7274597009837,991.8495847673312,0.0,3246.3919899824145,-1341.22948704205,0.0,4430.308683439742,4381.667004283487,2891.6447751578653,1869.6472284388115,0.0,0.0,1915.8037499786549,-968.780466777515,0.0,4180.790253635153,0.0,0.0,0.0,0.0,1159.411419583039,0.0,-1130.3338664567343,-1509.6730237156257,3162.8919462398203,2911.8353492884535,0.0,1155.5436397203155,1179.0345051349375,0.0,-1111.331960365131,-1383.3435151658273,0.0,2691.5909041535942,1512.2373617931105,0.0,-1318.1032538519673,-1799.6764075406097,-957.6327707714657,-1053.6502846159804,-3517.7335890125682,2736.7356629643623,1566.3683747893772,0.0,1577.0194728650865,-876.7020632296399,-1297.5576634708243,-1175.2046482390429,-1474.4563287164458,-827.2926227627628,2218.421738234442,0.0,0.0,-1411.0172075621813,-1521.846826038959,0.0,0.0,0.0,3608.857886700433,2590.6609694550534,0.0,0.0,-773.6707547861541,-1006.5386504762253,-1191.0710917830256,-1428.869968159601,3472.3737354376576,0.0,0.0,1014.9927176565415,0.0,-1122.9174041333404,-1869.975796257475,0.0,4296.20802363448,2108.6992597057824,0.0,0.0,0.0,0.0,-1623.1410653247683,3850.7358658516423,0.0,0.0,0.0,1453.6836180689365,1992.2400635895526,0.0,-955.793943918389,0.0,3438.6720711991493,0.0,0.0,-1556.0617633573906,-1227.1006105915833,-1612.2175422599003,-1801.0383345194684,-1490.5860897912792,3681.496190537609,966.5753788721938,0.0,0.0,-1252.9605013524865,-1638.5099004159633,-1177.9171348919426,0.0,0.0,0.0,-1060.7040041286275,0.0,-1031.078891220738,-1493.4107883422764,0.0,3429.0529172202355,0.0,0.0,1814.271878830424,-1468.892541082807,0.0,0.0,-1520.9866499954026,3709.8749517668753,1268.0527563378914,0.0,0.0,0.0,2362.3726807997205,0.0,-1099.4554892695403,0.0,1023.720602240024,0.0,0.0,0.0,0.0,-1139.0480658149072,-1457.1574600606984,0.0,0.0,0.0,555.6232459849763,0.0,1831.177077556219,-1055.090049585073,-1787.0085494942978,4385.789422919717,3154.613183846936,614.9785507179721,0.0,0.0,-808.3160464689187,-1236.9557400217357,-1187.9367663486823,0.0,0.0,1846.5965181083375,0.0,0.0,1391.5979069734778,-1131.610810986036,-1225.5558718441296,-1004.3626048178186,4265.532092522175,2787.3032046283083,0.0,0.0,-1210.2364202230006,-965.3269505699755,-1776.621060132157,-1361.2050623391312,-1004.4731712515236,3660.860259777627,0.0,0.0,885.7696451261811,0.0,-892.2560362945458,-1282.374258185898,-1096.1107092854595,-1709.95004396605,4504.804873572305,0.0,0.0,-1038.8190702902307,1476.1447310293304,0.0,-1355.707091572569,0.0,0.0,0.0,0.0,0.0,1674.5865024818654,0.0,-1093.1715963925196,-1126.0036140938112,-1012.7475172775017,0.0,3432.2724639114176,1980.3166218567044,1044.8998779552255,856.0921507267931,1552.6571429934738,0.0,0.0,-1163.3255198558807,-1567.753576362089,4689.378800431189,4287.855596992878,1195.6058820059031,2532.14376583579,1108.4084861766958,0.0,1220.6520475944208,1745.6978967040202,0.0,0.0,-1067.2450854795984,-1439.003408298598,0.0,4297.11816389195,3245.913929898066,785.8890300070987,0.0,0.0,0.0,0.0,2208.7046678182064,3031.633155999704,0.0,-1283.335771481873,4164.092112706058,0.0,3677.8337281965373,2305.581233415128,0.0,0.0,0.0,0.0,-911.8804738955017,-1140.2422480011887,-1317.8676687689663,-905.7044189215306,0.0,4088.404152108784,2298.4718499786054,1708.2973769595906,748.3469742191086,1061.3050129975068,2781.4709256861724,-1404.1370310294903,0.0,738.3210647192248,857.8751553274179,777.7189415720895,0.0,921.488702710206,1765.218895374296,2303.6941622934855,0.0,-27343.27112353959,5080.8890167367,4725.68145304817,2986.7759421189285,2484.451363381847,855.3509101230579,847.3689377400276,0.0,1972.8547072455308,0.0,-1901.8408958789005,-1666.9733617603465,0.0,2949.820975404805,0.0,0.0,971.778463282994,1925.906549724065,-1166.042321571535,-1519.4578580131092,0.0,-1262.6847394321057,0.0,4233.420375626865,679.2372442727558,2029.2383448124895,849.8948073993471,0.0,-1016.180637936171,1342.5217787396286,-1169.118850411909,-1129.6127893064424,0.0,-1357.4749536970771,-1199.9869418011772,-1022.3580112653538,4331.819489266935,0.0,0.0,0.0,-1156.545419342228,1088.3572876376488,-951.9802618687424,-1604.0762405097505,-1110.3362848723457,-1939.9890414714455,-1436.7270742198332,3983.8215278966354,4078.2929236622213,2128.6488090525613,0.0,0.0,-1125.0455376317104,-2390.517641627055,-1215.852534331753,-1545.0872788639774,-1422.450383616342,0.0,0.0,0.0,0.0,0.0,0.0,-1623.4063764512525,-2109.704535062074,-1168.1212922647626,3752.4362487636095,0.0,0.0,0.0,-1764.4489300924763,-1254.0048973191358,0.0,-1847.1449561023258,-1055.9434253164732,4301.756493607889,0.0,0.0,-1052.0150399042204,0.0,-994.2293596429097,-1064.802101837172,-1323.3620258084693,-970.9053115987026,0.0,3161.4787646679015,0.0,0.0,0.0,1284.6034029133978,0.0,-1021.1429654835898,0.0,-1241.0745501293482,-807.3976569087621,2855.9639860493708,0.0,1074.698793617757,0.0,0.0,-867.8160467099242,-1268.1838395932964,-1049.8755255772978,-1572.0459624037776,-1077.0789024476207,0.0,2996.4661307279557,-994.9763836705049,0.0,-1173.8192327804472,-933.8736526197191,0.0,-1168.8711685020826,-1257.3748825503599,0.0,3442.9535770816888,-1093.1843073021562,-1343.3724141377163,0.0,0.0,2514.0114983286007,2182.376092442764,-1053.4299878185293,0.0,4156.410374618296,3936.745643063211,0.0,1548.1051553157504,0.0,0.0,0.0,2276.4003883435635,-1027.2934448121098,-1510.6488917457038,-1612.1649239157105,5099.620468919459,4325.965521353317,3035.0699570543993,2273.674516463369,0.0,0.0,0.0,1415.9456542725366,1740.4146398269468,2112.6216212464724,-1212.5382152933234,-1195.2445261990406,-1046.0397136598772,-1196.487771973185,0.0,4167.50387045834,0.0,3401.600267140924,732.7037779763933,0.0,1863.6624535404947,687.7383738198693,0.0,1902.4000933400582,0.0,0.0,-1097.5815479721127,-1489.2723520985335,0.0,1121.316185693849,3844.2734506665633,2933.815486791608,1049.8287009106111,0.0,905.4134602420263,0.0,0.0,0.0,-1873.9985452842855,4835.504593961519,3793.589554758077,2893.3028784861394,1127.791744374164,1497.536983835871,1447.5506053491347,2108.980973615802,0.0,2417.6079136618114,-1721.3722200873667,0.0,0.0,-4229.70080675429,4019.0027202524825,2918.395231676859,0.0,668.4794035437731,1306.2736306813051,0.0,0.0,2052.889729428155,0.0,0.0,2982.8171902581917,3359.149235479802,4200.025987582543,-1124.1586297391334,-1047.1954092097708,4190.930975567795,4486.973844665555,3226.0527581593124,3039.6833152814543,0.0,1968.834924237946,0.0,840.1668262227905,0.0,0.0,2158.6176353159603,1886.579662024827,2164.5597011552445,-1306.0203992667232,0.0,-1436.6840233876321,0.0,-2024.8833604883914,-1164.8118431134574,0.0,0.0,3476.7635707136615,4414.093509143502,0.0,3895.7780521043887,4103.157401730314,3098.3152083267296,2716.094065297229,3159.251222548109,0.0,2080.3496463890833,810.5122791576404,755.796032946698,2087.471732904874,0.0,1580.626556112216,1190.365634690481,1078.1307976676226,0.0,0.0,0.0,0.0,0.0,0.0,0.0,0.0,1446.8035751569582,912.3698411715313,1936.6600896384098,2103.586897324708,0.0,1056.682470873873,0.0,1992.1995813832273,0.0,2531.8227658295073,-1225.3706863581629,2885.820630226617,0.0,-1241.1903678942165,-1093.1278740112705,-979.1998953663576,0.0,-1135.643201374692,-1568.7254750300365,-1125.0228234381993,-1251.7577347822826,0.0,-1181.023271788621,-1238.3701897157364,3326.3108340504236,-1261.028716474223,-1251.3842661132853,-1161.8764749280651,0.0,-1199.292839089629,-1245.6522231025747,-1179.5760003442479,-1463.6663995997096,-1129.0398303656186,-1270.6051496162927,0.0,-33502.879972579336,-1293.3250980721546,-1090.1592181249591,-1266.876902888381,0.0,0.0,-952.3517356684995,-974.2919047427584,-968.4734474183207,-1029.4199275130902,-1082.5216935049905,4742.714551354137,4956.852838520153,4961.884098285223,3966.4015276740797,5099.79679215726,0.0,800.372461103174,0.0,4295.4144504293945,-703.1510071654691,3963.352364985653,4498.791645410773,0.0,3503.0028289448073,0.0,3359.1464635475595,2986.8187575441407,0.0,1661.5355688360899,0.0,0.0,-815.0956044534889,0.0,0.0,0.0,0.0,1364.8677459342982,-812.6411191726206,-834.0234730669489,-1520.1145265293894,-1668.4019541266669,-1630.8710990767343,-1130.1326392516269,-1311.3261708607165,-1149.4198605220606,0.0,-1936.3695180409368,-1608.4127941985037,0.0,-1003.2288117035803,4279.921060746221,0.0,4214.473491967976,864.2852531389137,0.0,0.0,926.0275818308598,0.0,1113.566578952734,2906.2664259822504,0.0,2540.0981861785067,1923.1140986446778,827.09732793939,1447.9274865878785,0.0,2397.853712432398,1444.2647544590382,0.0,893.4500656572213,1908.1302624261523,824.2068163300054,991.2990537279996,0.0,0.0,1347.064469572627,0.0,867.5532908558081,0.0,441.33422618744817,0.0,0.0,2468.63953784947,0.0,0.0,0.0
1,-3.596630801823791e-06,-7.70755696069994e-06,-0.08079989803268851,-0.04000942994692437,0.0,0.0,-3.882751244303315e-06,0.0,-7.55609000947453e-07,-1.0770533294220719e-06,-5.237639303591333e-06,-9.415090796807543e-06,-0.07953195746903162,-0.030641989635488864,0.0,0.0,-0.04094348281905869,0.0,-3.308035557124797e-06,-6.518272074133979e-06,-3.84683659801804e-06,-2.6299054210398543e-06,-1.1958132297594316e-06,-2.800002075336807e-06,-0.05912550023531201,-0.03413692718153517,-4.398701748330156e-06,-0.07563406389150278,-0.06975856188404737,-4.213308756719266e-06,0.0,-2.201873254537848e-06,-7.660813690702388e-06,-0.051308034097842306,-7.305038900548489e-06,-3.0213219037005286e-06,0.0,-1.975459221052115e-06,-1.5317323372663783e-06,-6.095774175346196e-06,-9.679194005236807e-06,0.0,0.0,-4.296152007107481e-05,0.0,0.0,0.0,0.0,-1.3862174043098777e-06,0.0,0.0,-2.8777953223921304e-05,-4.899606249812723e-05,-1.024746966126063e-06,-1.764347243429844e-05,0.0,-1.0193464006500329e-06,-2.515559984850193e-06,-0.04114028384052357,0.0,0.0,0.0,-0.041549159196977624,-0.020060581061899393,0.0,0.0,0.0,-8.400000502216131e-07,-4.362702325792412e-07,4.1819615094743254e-07,0.0,-3.722167026272204e-06,0.0,-8.42128496437279e-06,-3.872818437496624e-06,0.0,-4.793958925985789e-06,0.0,-3.0309044568893284e-06,-9.293471470519957e-06,0.0,-0.05510945045465132,0.0,0.0,0.0,-3.987452238999299e-06,0.0,0.0,0.0,-7.117118423806184e-06,-4.265271161510955e-06,0.0,-3.5005179148250336e-06,-2.348782308892433e-06,0.0,-3.012117690391138e-06,-3.2182020029404118e-06,-1.9168117061665452e-06,-4.907357318943681e-06,-0.08751371938756282,-0.04858220415562005,-1.0079893834458949e-05,-0.02258246359116629,0.0,-4.510034952855071e-06,-4.078584596533304e-06,-0.030295180300425963,-6.481815934614714e-06,0.0,-1.5862734954927636e-06,-5.171150502287665e-06,0.0,-1.2403167779238747e-06,-1.926592886755574e-06,-3.7074475289288236e-06,-2.4907535510561067e-06,-9.822598911408401e-06,0.0,-5.565479525216313e-06,0.0,-0.07460757789724395,-0.06417671836927444,-0.07373996207428443,-0.049518580543426206,-0.047667208782181426,-0.028918360783993173,-4.116939835326172e-06,0.0,-0.022886110628503504,-6.774085055037968e-06,0.0,-1.2681617088210299e-06,-5.252999152484363e-06,0.0,-4.4541581327478494e-06,-4.6242476033377795e-06,-2.6751634128469322e-06,-6.017718346805654e-06,-4.639083828168357e-06,-1.9044872684433827e-06,-3.929940884003095e-06,-1.8526403253379902e-06,-1.2810272833148706e-06,0.0,0.0,-0.0003917197019797343,0.0,0.0,0.0,-0.05448398068581189,-3.7383971362259666e-06,0.0,-2.7853276088590244e-06,0.0,-0.001786352122499116,-5.552568106432038e-06,-3.8645710925258406e-06,-1.9539255698803183e-06,-1.5675260971349808e-06,0.0,-6.683263132429776e-07,-1.6686876050236024e-06,-3.83538499758375e-06,-2.427986568220392e-06,-3.4165162124095334e-06,-2.3542603992181915e-06,-4.3192165675307565e-06,-3.6506741976111575e-06,0.0,-7.258616205300579e-06,-0.055307483930570986,-0.0729506249049868,-6.113623816482044e-06,0.0,0.0,0.0,-2.0138555729687153e-06,-2.605177540891715e-06,0.0,-0.06918042697204377,-2.545926526333541e-06,2.91326092753256e-06,-1.4092313525273805e-06,-3.616785897516222e-06,-2.0833161693875626e-06,-2.0069564181189904e-06,-2.6316221009335193e-06,-1.6812475366402148e-06,-2.647095459497727e-06,0.0,0.0,-0.0008502832838360546,-0.0576460599496476,-0.05432112654854068,-0.07929730301453072,0.0,-7.258213634533174e-06,0.0,0.0,0.0,0.0,-4.6018178546535355e-07,-1.6515989261395475e-06,-3.798660527445096e-06,-3.247745586652241e-06,0.0,0.0,-2.8200032167230937e-06,-1.1947203441147692e-06,-4.774578336531208e-07,-2.461520640847751e-06,-1.954674593946738e-06,-1.25995170321134e-06,-2.5792184402719295e-06,-5.538096084439904e-06,-1.6895155501716118e-06,-2.16664010765458e-06,-2.4766036334601774e-06,-1.1275975637842587e-06,-1.1433568014453727e-06,0.0,0.0,-3.6513924526421658e-06,0.0,0.0,-0.06841075052154098,-0.07109622983768284,-0.06697139698160731,-0.06281086723596509,-0.026393998307472865,0.0,-4.370231894128448e-06,5.156556257608532e-05,-3.199574255450567e-06,0.0,-1.6436262719682139e-06,0.0,0.0,-3.1263727119950706e-06,-9.201329222559291e-06,-0.04101937593280547,-4.596261091013052e-06,-4.844243711954268e-06,-1.0962369434723793e-06,0.0,-1.8975779748736893e-06,-2.181209833245454e-06,-3.218148281831945e-06,-2.6476116763773666e-06,-2.6241631911092797e-06,0.0,-0.0614427310258724,0.0,0.0,0.0,0.0,-0.05037201930748286,-0.07758704863700651,-5.604340945244995e-06,0.0,0.0,0.0,0.0,-5.100374772851235e-06,0.0,0.0,0.0,-6.106220200925907e-06,-0.028851226868757365,0.0,0.0,-3.977166616816929e-06,-2.3095981372960835e-06,-0.041079516560872595,-6.644153867614272e-06,0.0,-4.9456369024266394e-06,0.0,-4.673034632345388e-06,-8.97646252645013e-06,0.0,-2.55915429372328e-06,-1.5010353205787284e-06,-2.966430507984116e-06,-4.648588437935595e-07,0.0,-2.295552300592537e-06,-4.360709036016399e-06,-3.943539387010453e-06,-4.566927727627528e-06,-0.06532441375442768,-0.05088875086457264,0.0,0.0,-0.029564743449148306,0.0,0.0,0.0,0.0,0.0,-2.6214687199694126e-06,-0.05496808852273404,-6.955493576039309e-07,-3.0374168222063865e-06,-8.624911905244259e-07,-2.070603730955483e-06,-1.9657433612972943e-06,-5.872175852232595e-07,-2.4957191534916425e-06,-2.0762757570858446e-06,0.0,0.0,-0.050729908976906005,0.0,0.0,-0.003663839382184446,0.0,-2.3289175592729345e-06,0.0,-1.0553980823046722e-06,-1.1460610065291863e-06,-5.766379526972596e-07,0.0,-6.980077100128302e-07,-1.368878584714937e-06,-1.0187674158212443e-06,-7.443167175512722e-07,0.0,-1.2474825942542377e-06,0.0,-2.3928672472119275e-06,0.0,-1.5585225645984566e-06,0.0,0.0,0.0,0.0,0.0,-0.051971553947479016,-6.400272512204015e-07,-1.338077930161688e-06,-0.03599586162947297,0.0,0.0,0.0,0.0,0.0,-3.547708491764861e-06,0.0,-3.113549220069232e-06,0.0,0.0,0.0,-2.353719827451704e-06,-0.0618078706257317,-2.6168704322039924e-06,-2.5469840798878234e-06,0.0,-4.506521589374557e-06,-5.6784087642737345e-06,-2.0865613089560794e-06,-5.1908477594172345e-06,-1.7633634463216778e-06,-9.824097725496443e-07,-1.1065579987227224e-06,-1.3564243319095591e-06,-4.77646773573787e-06,-5.5794141550198105e-06,-0.08982340313081634,-0.07193204124178097,-0.047071565392673015,-0.07493686217638483,-0.0013727863032220074,0.0,0.0,-1.2005044316220096e-06,-1.9896354360898433e-06,0.0,-5.746260902478317e-06,-3.820473289012311e-06,-2.6206729575528374e-06,-5.414739176540302e-06,-2.4721036685614602e-06,-2.844326615676339e-06,-2.2548831615346315e-06,0.0,-5.963570614974731e-06,0.0,-0.07159413768054623,0.0,-0.06581928097788445,-3.6299421216863787e-06,0.0,-7.936083209867926e-07,-0.06944080141972135,0.0,-2.597457265502602e-06,0.0,-1.335441296750583e-06,-1.389203483618581e-06,-1.5616678678971394e-06,-1.2072585206841893e-06,0.0,-4.522755572843428e-06,-2.186019624944383e-06,-6.254710007561357e-06,-2.2904320351520123e-06,-6.9468600553515525e-06,-5.608428317042212e-06,0.0,0.0,-0.051894084447594926,-0.06776771582179918,-0.06863373636118317,-0.06341917660060599,0.0,0.0,0.0,0.0,-3.6515342119263455e-06,-1.1494962181560706e-05,-0.05201031772224034,-4.60729871959725e-06,-1.423064268271965e-06,-3.883812469022154e-06,-3.025168378774718e-06,0.0,-4.363477987025128e-06,-3.943606680608342e-06,-1.5013142158056598e-06,-5.968899792557382e-06,-3.213241447486855e-06,-3.7478691992696037e-06,0.0,0.0,-0.05671683715174416,-0.10087387256093791,0.0,0.0,0.0,0.0,-3.587590098549029e-06,0.0,0.0,0.0,-0.06115537234822977,-7.40660373589478e-06,0.0,-2.3955483619193693e-06,-5.489706064657235e-06,-2.449154042819158e-06,-1.308999527720996e-06,-3.1214086820271697e-06,0.0,-0.05194646796407201,0.0,0.0,-6.1034670500224275e-06,0.0,0.0,-0.03889606910522052,0.0,-1.644585829714036e-06,5.291390002833637e-05,-2.7022644710010037e-06,0.0,-1.8217116136267505e-06,0.0,0.0,-1.2451179943135794e-06,-1.3480754878550598e-06,-2.462957384891999e-06,0.0,0.0,-0.005552299819442105,-0.029879487514630244,-0.05411309979485028,0.0,-8.12908750009751e-06,-2.836047381947623e-06,0.0,-5.633824093269902e-06,0.0,-3.7262176731513487e-06,2.6961161074239552e-06,-2.0006108275307826e-06,-3.252248645734191e-06,-2.5439622029132616e-06,-4.94752370606133e-06,-3.0521526853953776e-06,-4.679010725604557e-06,-5.618080900284811e-06,-2.7622769719125846e-06,-0.054456253360515836,0.0,-0.07858287899273154,0.0,-0.028036302850792,-0.032963487317501095,-0.04852204476893588,-0.005315920487674123,-4.429827239013572e-06,-4.340634923709608e-06,-0.05541978907616302,0.0,-7.569201257813505e-06,-3.2328848821693977e-06,-1.6799881033979892e-06,-2.385921639091704e-06,-3.947421394158719e-06,0.0,-0.0668981877631675,0.0,0.0,-4.639283561741843e-06,-4.153639424792189e-06,-0.027346037781719172,-0.0407764849639123,-9.537976269882005e-07,0.0,0.0,-8.653257534183336e-07,-1.1094085238433935e-06,-1.0610397527225692e-06,-7.176033391608103e-07,-1.790059629248398e-06,-2.6998896438978045e-06,0.0,-0.06229124113619023,0.0,0.0,0.0,-1.9866203010291765e-06,0.0,-2.1707245427044452e-06,0.0,-4.636622700371036e-06,-2.8992861046732806e-06,-4.183518936080602e-06,-1.6813990076476935e-06,-6.913576228663197e-06,0.0,-0.06362450004104071,0.0,0.0,0.0,0.0,-2.099071712145605e-06,0.0,-3.7363843160794028e-06,-3.0073182792305093e-06,0.0,-2.9605554458984264e-06,-2.7769560706134737e-06,-7.78156917003423e-06,0.0,-0.035934178442400745,-0.008688579334788676,0.0,-2.224200449686814e-06,-5.176453523606938e-06,-2.674285914741523e-06,0.0,-5.1789846397962344e-06,-7.961454168711493e-06,-6.670386116108131e-06,-2.8481380606625834e-06,0.0,-0.057940501575563054,-0.029543841084164617,0.0,0.0,-0.0006057513169252719,-3.1255833064263595e-06,-4.403412612925157e-06,-1.654772305913259e-06,-5.0749146011998644e-06,-2.951019169608007e-06,-3.7848974347664502e-06,0.0,-0.06648234345082957,-3.013755349426379e-06,-2.2799119781050562e-06,0.0,-6.951419982152325e-06,-6.291185978601687e-06,-4.09303898575286e-06,-2.832555018450536e-06,-1.2171395376649652e-06,0.0,-2.8690840113102676e-06,-3.855208801855824e-06,-4.905712211187497e-06,-2.650360901387434e-06,0.0,-0.04824164920402763,-0.03374844614462846,0.0,0.0,0.0,-0.03299288509317676,0.0,-9.682277894037685e-06,0.0,-0.0009275877878451054,-4.5208818952035194e-06,0.0,-2.1761155687520326e-06,-3.551919824961005e-06,-2.047371790483175e-06,-7.5939611626604985e-06,0.0,-4.2664334836974486e-06,-1.3200006218217599e-05,-0.07039584655636164,-0.061318672944187635,0.0,-0.015581151182798422,-3.127443579296653e-06,-9.06851537652979e-06,-0.04423389995769343,-3.848631210562391e-06,-3.0476632207842967e-06,-2.000604090723338e-06,0.0,-3.602177783534062e-06,0.0,0.0,-0.07841598904879722,-0.01849707834928351,-4.922849925536361e-06,0.0,-0.02911902461483558,-5.450370952375696e-06,-0.06355690643519218,-0.0015283623982157997,0.0,-1.96121751863684e-06,-3.3392108599395915e-06,-3.830785543800196e-06,-1.155102540321884e-06,-5.481984152937326e-06,-0.056148675390601734,-0.061945333022541,-0.031949136141853206,-4.715094816101145e-06,0.0,-0.010444673079042928,-2.925802901439235e-06,0.0,-0.0013289451959832418,-5.633654565249178e-06,-2.2059316882742312e-06,-2.5224509669242627e-06,-3.34591497844424e-06,0.0,0.0,0.0,-0.041887745917693765,0.0,0.0,-4.75793764820288e-06,0.0,-4.846902675603864e-06,-4.806199512935444e-06,-2.2112227345286974e-06,0.0,0.0,-2.7275105919816664e-06,-6.608210187329081e-07,0.0,-0.10560955255884152,-0.024978815346496357,0.0,0.0,0.0,0.0,-2.69267781210586e-06,-0.0711262930409376,-4.228528586093644e-06,-2.4275462328698355e-06,0.0,-2.5225879914683236e-06,-1.7351327354447414e-06,-3.693745604853109e-06,0.0,0.0,0.0,0.0,-5.848614697231953e-06,-0.0005266323019838581,-3.7629549124501922e-06,-1.958739654021972e-05,-7.713283810181125e-05,-3.0589600580876218e-06,-3.3921491295295344e-06,-2.6986048417141237e-06,0.0,-0.06810713009249372,0.0,-0.009758936019706973,0.0,-0.008516600247489346,-7.024792330334323e-06,-0.05522979198340609,-3.1218508992968685e-06,-3.5038978530417818e-06,-2.715613201958261e-06,0.0,-0.06685551471488425,-0.021456259195634157,-0.007316987797603145,-0.004140814287642885,-0.004038598337158753,-0.06088748647127395,-3.362111233224087e-06,-0.07441679565628989,-5.036978671148793e-06,-2.3427532516683392e-06,-1.9558784972142934e-06,-0.00020699379001612274,-0.0407839762577529,0.0,-0.0227128467699645,0.0,-3.769263476855504e-06,-0.0511624150794766,-0.08451032749166859,-6.29956061346939e-07,-1.2781275876674305e-06,-2.6439643031189275e-06,-9.397623621674041e-07,-1.463654250518849e-07,-2.757346539563019e-06,0.0,0.0,0.0,-1.051166660625181e-06,-5.552821687504061e-07,-8.25875678897701e-07,0.0,0.0,0.0,-0.02504917462637265,0.0,-5.441029245114946e-06,-3.0875617783880384e-06,0.0,-2.528366666666217e-06,-3.998603430542312e-06,-3.948496718575965e-06,-7.329928271177948e-06,0.0,-3.0693436365412455e-06,0.0,-3.236463991169819e-06,-3.7323949771138e-06,-3.7006612185276513e-06,-3.1323020417885468e-06,-7.404440150580338e-06,-9.162014496783371e-07,0.0,-0.006281047910097077,0.0,0.0,-6.627438921247584e-06,-3.8029870922386727e-06,-2.6959160564667754e-06,-7.532228409861786e-06,0.0,-0.08860184770081381,-0.051299319694605244,0.0,-0.01499159053828613,-0.03535847098582173,-1.7557747667983228e-06,-4.062539834683804e-06,-5.6892855640332965e-06,0.0,-5.279619706451486e-06,-4.454076014516219e-06,-2.690511297774267e-06,0.0,0.0,-0.03803960201822153,0.0,0.0,3.564468695809302e-05,-0.007928734381046635,-1.7128929179090364e-06,-3.3329111810577195e-06,-2.2322682453292075e-06,-9.83419699445849e-07,0.0,-0.05669531615041103,-0.04176817415756889,0.0,0.0,0.0,-0.05512137849172998,-3.1642370994419358e-06,-2.2502749412518855e-06,-3.048414533490723e-06,-0.05062465888150449,-0.06442338390015158,0.0,0.0,-6.81201369905297e-06,-3.972246937097597e-06,-2.102686413219385e-06,-6.421384819027419e-06,-4.7919966860613075e-06,0.0,-0.07074877464452843,-0.0022618502967542728,-4.621159788446264e-06,-8.811009429385522e-07,-2.7894366703931044e-06,-3.7913901072889996e-06,-1.5182075755968349e-06,0.0,-5.447250044414383e-06,-2.155584729371908e-06,0.0,-0.02363562104864187,-0.0015286732719807707,-1.9930286429768096e-06,-0.04643274337877775,0.0,-1.40019457539607e-06,-6.739214967313193e-07,-2.233337541106311e-07,-2.5389107211791007e-06,0.0,-1.0344997216155765e-06,-2.7087294742608696e-06,-0.054571543106486806,0.0,-3.1027785017868034e-06,3.6922179100914427e-06,0.0,-0.0007333155475869924,0.0,0.0,-2.866079488981401e-06,0.0,0.0,-6.54773849212456e-06,-2.3013431243781507e-06,-5.888196939400448e-06,-0.04370840182520171,-0.004967599082907504,-1.1720723134640894e-05,0.0,-3.77101301522677e-06,-3.1522845182094173e-06,0.0,-4.241473805605842e-06,0.0,0.0,-4.111233914550083e-06,-2.6399794956424944e-06,-3.073634894843314e-06,-1.1610953864020116e-05,0.0,0.0,-0.010039761276075396,0.0,0.0,-3.9183384735514425e-06,-3.566021381871357e-06,0.0,-0.06467168358157172,0.0,0.0,-1.210095112797352e-06,0.0,-4.440923150552088e-06,-1.0617914269304078e-05,-0.030125091371485422,0.0,0.0,-0.0008490747847908676,-3.344388026961741e-06,-4.376811655707532e-06,0.0,-0.02982886577792326,-0.0004177891979313858,-3.314124153266748e-06,-2.890938802045687e-06,0.0,-1.017626673973255e-06,0.0,0.0,0.0,0.0,-1.8548416144754061e-06,-3.0364226714916963e-06,-3.4006303210332578e-06,0.0,-1.074096168060466e-06,-0.046260821419833044,0.0,0.0,0.0,-4.853241962265377e-06,-1.659852781849455e-06,-2.2264300657260285e-06,-5.052892303249112e-06,-0.05355090943746377,0.0,-0.035137049546252117,0.0,-2.091565238894561e-06,-3.886185762823143e-06,-4.287662620132601e-06,-3.5501446639006578e-06,-3.163177552571144e-06,-6.4745534993007e-06,-2.8329552541564977e-06,0.0,-0.00819358920899757,0.0,-0.06835133410325628,-2.667514464779771e-06,-7.333607785395472e-07,-6.66718256972372e-07,0.0,-0.04619137708278931,-0.007828873103790115,0.0,-0.037455731936408276,-0.019556854066888733,0.0,-0.0668911268187167,-0.03592856006762292,0.0,-0.02118978482729286,0.0,0.0,-5.8538223827800266e-06,-0.03830614224780618,0.0,-0.014457573718889945,-0.014891531447061885,-0.03099582575886004,0.0,-5.1510830839146756e-05,-0.0008506243074145632,0.0,-0.004893703726478781,-0.035992880343111947,-0.02033054450087853,-0.03057860092077861,-0.0008017605177500548,0.0,-0.06720682481276062,-0.036879582412334896,-0.0004649258431324635,-0.003914644928168958,-0.019809217111513247,-0.048266191198175386,0.0,-0.0005945784824232892,-0.04712759837710547,0.0,0.0,0.0,-0.027408189501059926,-0.04589573671416783,0.0,0.0,-0.0008177389860772958,0.0,0.0,-0.02367739487194681,-0.034960340626390765,-0.03487997518101202,-0.03823582840587567,0.0,-1.7113287677440313e-06,-5.680077010718499e-06,-0.06064959209161946,0.0,0.0,0.0,0.0,0.0,-1.7053912444359086e-06,-3.1451341261460315e-06,0.0,0.0,0.0,-2.326343229195776e-06,-2.021722389226777e-06,-3.856017395154623e-06,-1.140341960782963e-06,0.0,0.0,0.0,0.0,0.0,0.0,-4.867177695799159e-06,-0.05045085483793004,-1.9693139011831326e-06,0.0,0.0,-0.04514778151783744,-0.0005739669072984037,-5.0493876953817966e-05,0.0,0.0,-9.819276981542464e-07,-6.111271827938557e-07,-2.7198870429958984e-06,-1.2089737718761417e-06,-0.03971567540132093,0.0,0.0,-0.020896943254492685,-4.775636891013768e-06,-2.9820656377179815e-06,0.0,-3.295055478625047e-06,-1.647085412132393e-06,-1.7948490400373588e-06,0.0,0.0,0.0,-7.641269036856902e-06,0.0,-3.183917609891815e-06,-2.797073587512568e-06,-3.0005979938398606e-06,-0.09408112148659532,0.0,-0.0007154992485825639,0.0,-0.02514064674205465,-0.03638859771104984,-3.8475010975919406e-06,-3.0355354030260558e-06,0.0,-2.40087892106196e-06,0.0,-0.06722721337847223,0.0,-0.04259455855444339,-0.010124963205507124,-1.941861156530386e-06,0.0,0.0,-1.6633375056836575e-06,0.0,-1.6433778638407722e-06,-5.2415265040966246e-06,-0.09387871261828874,-0.05165344082940003,0.0,-0.025505679776043726,-1.7782637768363646e-06,-0.044521417811189526,0.0,0.0,-2.4059618584742464e-06,-9.118090944740038e-07,-3.42531399141458e-06,0.0,-0.0673287820719182,0.0,0.0,-1.6256303565002796e-06,-2.6480843594806127e-06,-1.2326836731345915e-06,0.0,-3.735732165651321e-06,0.0,3.4228844064302615e-05,0.0,0.0,-3.7923700468858066e-06,-0.0449399003534913,-1.462559034660402e-07,-7.487695018011932e-07,-5.710600102315298e-06,0.0,-0.030429605165625102,0.0,0.0,-3.571732763041592e-06,-3.5686779793152755e-06,-4.61561619593503e-06,-3.7099545164325876e-06,-0.0008727904613669767,-0.02236188460370212,-5.166881725276109e-05,-0.03644960682721111,-0.03279118222647197,0.0,-1.6247598599715289e-06,-9.02167949464876e-08,-4.004094300160565e-06,-0.047567673702110395,0.0,0.0,-2.8395508413970193e-06,-2.7069911374963495e-06,-3.1697663223752374e-06,-1.2176296058232605e-06,-2.08922237291587e-06,-6.445993898465968e-06,-0.07011285145144364,-0.06857606976801225,0.0,-1.8336412635468864e-06,-3.3145599176237527e-06,-0.044978699483203446,-1.9827524577273083e-06,0.0,0.0008900871219435153,-0.05638295176019251,0.0,0.0,-1.558682346911799e-06,-1.200896516045676e-06,-2.617492628893864e-06,-3.5396763807697743e-06,0.0,-0.004161706303721857,0.0,0.0,-0.0010524634351980575,-0.00017573273287590116,0.0,-2.0569932394300303e-06,0.0,-1.65564082946281e-06,-2.3485216227115758e-06,-0.08266844676804193,0.0,-0.0019355628479362393,0.0,0.0,0.0,-2.4611357488321363e-06,0.0,-4.501194271370279e-06,-0.06776238758203765,-0.05925852442027245,-0.033441201156769615,0.0,-1.7396564076487315e-06,0.0,0.0,-2.3966451428699047e-06,-1.225294782571807e-06,-4.631986429872467e-06,-3.4827664539543953e-06,-0.0537524900444022,-0.05878920796789227,0.0,-0.02570489128922888,-4.304058035188998e-06,-2.881665387430207e-06,-1.1022718760528151e-06,-1.6608508618411721e-06,0.0,0.0,-0.05383068677786729,0.0,-1.069125084385127e-06,-2.342689772496703e-06,-7.954367704697128e-07,-1.3798486214804534e-06,-1.5957140221493616e-06,-0.06936529154658146,0.0,0.0,-0.024465120687095068,-0.055660710138998155,-1.0101850524894532e-06,-1.3755623901856893e-06,-3.928921813513589e-06,0.0,-0.038493688126844075,0.0,0.0,-5.534786972436839e-07,-9.939602295763479e-07,-1.4114497901967322e-06,0.0,0.0,0.0,-2.6399195032358407e-06,-1.3149298557120213e-06,-4.2167455142812686e-07,-7.913562216770627e-07,-3.9815007424865275e-06,0.0,-0.07471398552278201,0.0,0.0,0.0,-2.379543335055464e-06,-1.3959737566200543e-06,-3.2711756664587786e-06,-0.07266771702792403,-0.05037667356130149,-0.0876861478455967,0.0,0.0,-4.384294683743325e-06,0.0,-3.2215367140671256e-06,0.0,-8.616407201978933e-06,0.0,0.0,-1.3886162068557496e-06,0.0,-4.7508752985185154e-07,-1.4041050396376733e-06,-6.3904060022383595e-06,0.0,0.0,-0.05125924274328906,-0.05078622788622343,0.0,-1.568143346098153e-06,-1.8076050238916855e-06,-3.490873687328345e-05,-0.0774722781864676,0.0,0.0,-2.207152960984177e-06,0.0,0.0,-1.1182998755994768e-06,0.0,0.0,9.65904782899637e-05,-9.13191617573181e-07,-1.4755739267415002e-06,-4.856747186703818e-06,-6.310939279454325e-06,0.0,0.0,0.0,0.0,-2.49854864013891e-06,-1.921067637176552e-06,-0.0723564460013299,0.0,-6.498428412477459e-07,-5.957524183316344e-07,0.0,-4.08640489394548e-07,0.0,0.0,-0.06466612948226946,0.0,-0.05415538345418382,-1.5630734348697899e-06,-6.078566632183746e-07,-1.5028395011741386e-07,-1.6816099069378127e-06,-3.7314924791493824e-06,-0.08656640181275341,0.0,0.0,-1.115194595557784e-06,-1.2431658488874464e-06,-5.581266909313045e-07,-2.958713151396904e-06,-4.438097263142009e-06,0.0,0.0,0.0,-7.256894591300032e-07,0.0,-2.6170192501768705e-06,-5.072978393409969e-05,-0.07042369132320343,0.0,0.0,-2.6910966718101293e-06,-7.425290427807847e-07,-1.33273680464496e-06,-6.292571651130728e-06,-0.06952450092637055,0.0,0.0,0.0,-6.226080413488634e-06,-2.4271551629495854e-06,-2.011448365425175e-06,-6.5751832227698256e-06,0.0,-0.06441372961599554,-8.047281018139971e-05,-0.02559756337433355,-0.03588997850437397,0.0,-1.4023312056421483e-06,-5.547228354017723e-06,-0.09319320577574684,0.0,-0.002142088722143924,0.0,-4.8761080505785895e-06,-3.124947117826894e-06,-3.897819653091487e-06,-4.736869542467347e-06,-0.00639351002171122,-0.029320828975350044,0.0,-0.04811696870658839,0.0,-0.03930540844021617,-0.0008401387020308067,-1.2704025889058585e-06,-0.000902316771776043,-0.0005113096850723097,-0.002071778156592424,0.0,-0.003685302926004911,-0.03654251170524534,0.0,0.0,-0.08166163464696566,-0.040302458503094746,0.0,0.0,0.0,-0.06908430109054134,-4.2839228124795764e-06,0.0,-0.04115046032621638,0.0,0.0,0.0,-3.459594376782456e-06,0.0,-0.038819198367961875,-0.025170035743208592,-0.0262089758398753,0.0,-0.05014673316776746,0.0,-1.5166603479638941e-06,0.0,-0.016912742393847945,-0.016410168785053917,0.0,-0.04660488556896652,-0.002808513541856247,-0.04573252082505382,-1.6393362385185136e-06,0.0,-0.06347884271118653,0.0,-0.0462665385116977,-0.035329023513070434,0.0,-1.2555664054870025e-06,-2.0301726858552563e-06,0.0,0.0,0.0,0.0,-0.046036405562941814,0.0,0.0,-2.913121966240495e-06,-0.004930044547529063,-0.06250829023965028,-0.020124720842818675,-1.195724958556834e-06,-0.04930250893914877,-1.0074106070727933e-06,0.0,0.0,-0.06585237180839534,-0.05832218294764951,0.0,-0.03932684621124268,-0.06784055964955518,0.0,-1.957843398647505e-06,0.0,-0.06196537999005609,0.0,0.0,-0.004978854239837792,-0.04364580427459667,0.0,0.0,-3.311366965409467e-06,-0.0979287186506191,-0.0017272987657085156,0.0,0.0,-0.02038628868467321,0.0,0.0,0.0,-0.10017356525407037,-0.06486351067807439,0.0,0.0,-0.0357126908360627,-0.046773839520321964,-1.777919437733484e-06,0.0,-0.060890179293290214,-0.05851909363906582,0.0,-0.04138224552765048,0.0,-0.05912998273405711,0.0,-0.07038418685061679,-0.0571880978886114,-0.004144852819772801,-0.0003094155013684049,-0.05599908700069687,-0.09907594680346801,-1.9158196169686825e-06,0.0,-0.0752745835052313,-0.06543497238010472,0.0,0.0,-0.04556053340034401,-0.0596054272259241,-4.013824425636821e-06,-0.074025770081436,-0.04845740934503615,0.0,-0.04257820360949155,-0.037781254182502125,-1.5971081178537133e-06,-2.476668438581978e-06,-0.11386066334102053,-0.07268365445220262,-0.0409713147525712,0.0,-0.03125026151916595,0.0,-1.6748805113681127e-06,-4.7386590492810136e-05,-0.05891183200866321,0.0,-0.04879840989425469,0.0,-0.05071972831916065,-2.2899696383757687e-06,-1.7215804889735599e-06,-0.0008546065467052656,-0.05461403493497388,-0.049681761871060125,0.0,-0.0007504579003326115,-1.1138559339772818e-06,-1.2414554589032366e-06,-3.2970554128386103e-06,-0.05266268304480417,0.0,0.0,-0.041191225467806174,0.0,-1.29388936359178e-06,-2.477518135456196e-06,-1.915873096243318e-06,0.0,-0.05644553640745546,0.0,0.0,-0.04571400007152892,-1.0636590320650933e-06,-1.939817569813627e-06,-6.121032545751942e-06,-0.06057521700972308,-0.06986733277166067,0.0,-0.05169974740442523,0.0,0.0,0.0,-1.9686673268924015e-06,-0.0784748798911317,-0.06553082869111804,0.0,-0.02462734344838187,-0.043691289318000905,-7.117266504182696e-07,-3.1771695332659935e-06,-0.061916516657513514,-0.08494652654729869,-0.06921693882237788,-0.024963432205428005,-0.026311206628793268,-0.046293181706675936,-0.05106198719161475,-4.651641964337064e-07,-2.884688974050291e-06,-0.06687903979680815,-0.059199463684164656,-0.0006897360798026965,0.0,-0.033370053905345115,-2.57322017492071e-06,0.0,-0.08491197406504436,-0.08577158536507573,-0.07240318591049998,-0.06669506272443185,0.0,0.0,-0.054344740491030656,-6.605717622425345e-07,0.0,-0.11756912365223296,0.0,0.0,0.0,0.0,-0.044525523285791804,0.0,-1.599253429692194e-06,-5.2681192434679595e-06,-0.05677152572052643,-0.06484124860015443,0.0,-0.04594407503556359,-0.0016678587067073527,0.0,-1.1044155325354845e-06,-2.5125736739980504e-06,0.0,-0.04195205716056729,-0.03445084244491554,0.0,-5.465147935608514e-06,6.079243046609944e-05,-1.0470789620514693e-06,-1.2638314041924853e-06,-0.05373323562730032,-0.055549652668229046,-0.04333184584853783,0.0,-0.034230302895135505,-1.765338090499797e-06,-3.451358951122727e-06,-1.4725640339241133e-06,-3.1345122036047905e-06,-3.950659891199225e-06,-0.05200811942179986,0.0,0.0,-3.4017921226602454e-06,-4.0775339960731316e-06,0.0,0.0,0.0,-0.05820839523633246,-0.05872845974728977,0.0,0.0,-5.366108890628736e-07,-9.09337117508037e-07,-1.4664495318048112e-06,-6.601610938390934e-06,-0.05855372505825485,0.0,0.0,-0.025367797901328752,0.0,-1.8904095046877671e-06,-5.6896239726080645e-06,0.0,-0.07456274806654577,-0.04169095249746193,0.0,0.0,0.0,0.0,-5.107188806093633e-06,-0.06438415930500774,0.0,0.0,0.0,-0.031655933038453654,-0.048958346173180865,0.0,-1.95931966816459e-06,0.0,-0.07273779246021,0.0,0.0,-0.10184051475451536,-4.323000347112514e-06,-4.373771961594772e-06,-6.261481880926224e-06,-1.2699495609937479e-05,-0.07493369164866283,-0.03212972338611784,0.0,0.0,-2.922991646081835e-06,-4.314367037266794e-06,-3.839311790121593e-06,0.0,0.0,0.0,-3.2495057001073385e-06,0.0,-9.718475150887807e-07,-3.4417963666601224e-06,0.0,-0.07326287895822604,0.0,0.0,-0.05563148362554487,-1.9884160241254485e-06,0.0,0.0,-1.0746145649504735e-05,-0.07542475997392903,-0.025825556754564917,0.0,0.0,0.0,-0.060435891349049975,0.0,-1.6583192036196253e-06,0.0,-0.0006648962088085914,0.0,0.0,0.0,0.0,-1.945379599497539e-06,-4.101238422383728e-06,0.0,0.0,0.0,-0.006821970408378681,0.0,-0.04645253874422069,-1.4845500590982983e-06,-5.096646862334816e-06,-0.09725016184551423,-0.06784257688769961,-0.005752755655454602,0.0,0.0,-1.3042579460416616e-06,-2.8493056050936334e-06,-1.7333555052966376e-06,0.0,0.0,-0.025351702413425447,0.0,0.0,-0.00249670350988215,-2.1392199433274627e-06,-2.2027941663264445e-06,-2.9625749780493688e-06,-0.09523515409052337,-0.066766202020904,0.0,0.0,-5.010047655753618e-06,-1.3645301761824354e-06,-4.561153938909312e-06,-3.4715964770259435e-06,-4.94171344976115e-06,-0.055558121016788205,0.0,0.0,-0.0013381384799198229,0.0,-1.1036564645695701e-06,-2.1187003605038094e-06,-1.4256116408312087e-06,-4.079977658916567e-05,-0.06620636091265972,0.0,0.0,-3.058765623961459e-06,-0.061934097293045214,0.0,-2.41482047253021e-06,0.0,0.0,0.0,0.0,0.0,-0.0424259559757888,0.0,-1.3861916188970363e-06,-1.421932968148482e-06,-1.8345103181565818e-06,0.0,-0.06486182804771407,-0.03809735697347727,-0.0008742778715404872,-0.02549364520362803,-0.04928375969030201,0.0,0.0,-1.1061465157849812e-06,-2.255465090330824e-06,-0.09890906051295237,-0.0831370964022664,-0.0006205593622405793,-0.043608685736673376,-0.01318461729971072,0.0,-0.025624623122542527,-0.04104560644138261,0.0,0.0,-5.681396188860714e-07,-2.5562130489209168e-06,0.0,-0.08485766787173121,-0.056070459126869136,-0.005210022258258058,0.0,0.0,0.0,0.0,-0.056842375604594625,-0.06970925778190415,0.0,-2.4975801913861994e-06,-0.11000881358730785,0.0,-0.0611723751062162,-0.0412487862042224,0.0,0.0,0.0,0.0,-9.844257557143592e-07,-8.539769791188944e-07,-1.241426039344492e-06,-7.964037051727579e-07,0.0,-0.04967807249910062,-0.03994654489977075,-0.041936117806059804,-0.004061660314438387,-0.0015517135912733243,-0.08080301470648334,-3.0759962326523295e-06,0.0,-0.00478140417145037,-0.004732421442217211,-0.002915171976606633,0.0,-0.00043930704002414486,-0.06950090864554993,-0.044964538710497125,0.0,6.807560062203002e-05,-0.05133949227295447,-0.0849271951341619,-0.046351029038956555,-0.03973288110808774,-0.0027447869416079313,-0.0055203001353476815,0.0,-0.046464534141437745,0.0,-5.8301619865250415e-06,-1.0959802907646261e-05,0.0,-0.05459411982745525,0.0,0.0,-0.0006440412201488406,-0.05136325663360763,-3.0971460764625425e-06,-4.024406264346925e-06,0.0,-3.2238625105802433e-06,0.0,-0.08179868526321402,-0.005130870354889618,-0.06201899389499714,-0.0006951674101657468,0.0,-3.1690582677516695e-06,-0.04803917320953991,-3.848318052028983e-06,-1.9616540573646937e-06,0.0,-3.288919495519269e-06,-4.468244197457236e-06,-6.224384046212762e-06,-0.06740660279204304,0.0,0.0,0.0,-4.605514955734131e-06,-0.04277347828501881,-3.1801896369161336e-06,-8.108444604308106e-06,-2.1793371002918434e-06,-5.9927308722796035e-06,-4.125868410561115e-06,-0.12614260775667127,-0.08684610974755679,-0.050710609057038676,0.0,0.0,-4.324010621800468e-06,-0.06430112434528712,-3.0727443760216246e-06,-4.162751330802459e-06,-5.880982957148545e-06,0.0,0.0,0.0,0.0,0.0,0.0,-5.055852591176351e-06,-8.599945783766903e-06,-8.038463839353997e-06,-0.07574372471246234,0.0,0.0,0.0,-1.0708039588592126e-05,-3.972349161685877e-06,0.0,-6.810683947255022e-06,-4.795651829993862e-06,-0.08387237147089152,0.0,0.0,-3.2851206374553856e-06,0.0,-1.801292018023598e-06,-1.5526182011311258e-06,-2.4284775337489815e-06,-1.2328564201005074e-06,0.0,-0.09857311734573912,0.0,0.0,0.0,-0.0737333875941649,0.0,-1.8545097468465832e-06,0.0,-3.0259793244534674e-06,-1.9882954959267887e-06,-0.06463796970038227,0.0,-0.03326772353502591,0.0,0.0,-1.9018921177288084e-06,-4.207807711326208e-06,-1.400113671481986e-06,-2.579250472666256e-06,-2.8284527829141096e-06,0.0,-0.07051763166864851,-3.7884842583525017e-06,0.0,-3.1618274799487385e-06,-2.0581782093088618e-06,0.0,-1.106013951893154e-06,-3.4452455268364012e-06,0.0,-0.08004373622384105,-3.028035550329518e-06,-3.84753333698566e-06,0.0,0.0,-0.059727639291372654,-0.04955701760286878,-8.328161914121859e-07,0.0,-0.0696363457850813,-0.05877195162828063,0.0,-0.03500415406895078,0.0,0.0,0.0,-0.05373132052443945,-9.305172662303194e-07,-2.037940223620866e-06,-5.741174530510658e-06,-0.09086982781926359,-0.08036923101984125,-0.05715476173608873,-0.04126842453449086,0.0,0.0,0.0,-0.039077440426691465,-0.04057210454269303,-0.04281908344077418,-2.7231625428318227e-06,-1.7685935596945678e-06,-7.86439969453438e-07,-1.5183540164225674e-06,0.0,-0.06822847209246456,0.0,-0.06849378209316641,-0.005283272986757916,0.0,-0.052995149913918696,-0.007199942928179048,0.0,-0.06046419691878338,0.0,0.0,-1.093676110652334e-06,-2.7043723715201707e-06,0.0,-0.0006270679954797119,-0.06664403674003673,-0.07729957510552757,-0.022197657779817224,0.0,-0.028715947451372313,0.0,0.0,0.0,-7.003137268955357e-06,-0.09888353288863999,-0.06299437421161552,-0.05272863038193924,-0.0004759041599623592,-0.03307877035495981,-0.0007725371568963768,-0.05257050230469085,0.0,-0.049030530089382095,-4.600750066343825e-06,0.0,0.0,-0.11286884943867133,-0.07213637122410312,-0.05983041063440151,0.0,-0.003926387194488022,-0.026971218687071606,0.0,0.0,-0.043688217066305865,0.0,0.0,-0.054504618969525236,-0.05844741234468737,-0.09579261843759071,-1.7213148773591005e-06,-2.3457903249861586e-06,-0.0668641958121629,-0.06098647467282952,-0.06345715186085431,-0.05606026642056945,0.0,-0.052127966093793804,0.0,-0.009809613974271662,0.0,0.0,-0.07192163423984103,-0.05435006483454498,-0.0497694245003633,-2.1042717481342068e-06,0.0,-3.0109842474051975e-06,0.0,-3.597311234775217e-05,-5.162169768236227e-06,0.0,0.0,-0.06135770270455894,-0.0720813671462244,0.0,-0.0517889881871555,-0.05393148306748914,-0.06016925936640231,-0.053096721104402715,-0.054373634020375684,0.0,-0.04483634448007945,-0.001970516549617017,-0.0056006735200134295,-0.04389478993527893,0.0,-0.03907611017885613,-0.03099126406634743,-0.021250283012472983,0.0,0.0,0.0,0.0,0.0,0.0,0.0,0.0,-0.040639051015310367,-0.00032984060532378174,-0.05396987086935595,-0.04727516422917833,0.0,-0.0005590155705392141,0.0,-0.056080145045471146,0.0,-0.057157043524193325,-3.612930750403454e-06,-0.05540421655920621,0.0,-3.0762741329160914e-06,-2.2068958278997178e-06,-1.30465610208214e-06,0.0,-2.409613796114941e-06,-3.980946232785898e-06,-1.637919125613851e-06,-2.2586431872090544e-06,0.0,-2.0001501796612457e-06,-2.564609495221038e-06,-0.06847650753850534,-2.066124914499786e-06,-2.60365746797417e-06,-1.8239968141260496e-06,0.0,-1.7318099542418025e-06,-2.006311266978922e-06,-1.425521733187034e-06,-2.99474930930847e-06,-1.4532217945262103e-06,-2.017327367910189e-06,0.0,6.35451072694405e-05,-2.1564184727084053e-06,-1.5970938423269963e-06,-2.6008964580972436e-06,0.0,0.0,-1.0885979840273928e-06,-1.361412051655599e-06,-1.5328686693120507e-06,-1.6232340902418402e-06,-2.8771384847112957e-06,-0.10453741500581466,-0.0908290224580845,-0.09261620574308607,-0.06364377702446633,-0.08537956107063781,0.0,-0.004925480094675312,0.0,-0.0869734102774085,-6.0781543942672466e-06,-0.06036064009487716,-0.08021990621355087,0.0,-0.06203726324805157,0.0,-0.06303535236103242,-0.05890446439188327,0.0,-0.04543745622735355,0.0,0.0,-2.115663878704618e-06,0.0,0.0,0.0,0.0,-0.040752067041525064,-1.1681376468022766e-06,-8.550454412340732e-07,-3.4722443352409842e-06,-3.571945623575776e-06,-4.631616910146274e-06,-2.2748698246928e-06,-2.6662100585246703e-06,-1.434481110975117e-06,0.0,-3.719546760992082e-06,-2.4281730607351005e-06,0.0,-1.3397508442896354e-06,-0.0642249609693429,0.0,-0.06434976365653618,-0.0046334584680000155,0.0,0.0,-0.004390688642065194,0.0,-0.0008210108859833878,-0.05642590001148285,0.0,-0.05199860369541914,-0.03835125391839397,-0.00561702387033622,-0.03406656299345886,0.0,-0.023288369599520662,-0.036911680240552525,0.0,-0.020600764530261786,-0.052051662518563614,-0.0004000859132402555,-0.0167846497938819,0.0,0.0,-0.033588437537009956,0.0,-0.00046637737901559687,0.0,-0.006232123580046535,0.0,0.0,-0.02802907035542153,0.0,0.0,0.0
2,0.004546758785312459,0.003721821224623978,0.2330506037615341,-0.3903921490771687,0.0,0.0,0.00559174729062253,0.0,-0.004535144966546804,0.00414753218549059,0.00024737623453815485,0.000303374978424678,0.11333932674631524,-0.7469221398676537,0.0,0.0,0.8728327671480541,0.0,0.006000903038559009,0.0007101923070079543,0.0053288228189222716,0.0035646126703854277,0.004263171330311565,0.004314592271277818,-0.4367344697904848,-0.2977048156147672,-0.007613519114196637,0.2752519219773834,0.19201313851835428,0.006347991513599029,0.0,0.003676421026849591,0.0024756934096343388,0.3442668673372995,0.0001781423868805357,0.008749902236336203,0.0,0.005013150597862065,0.005546253173659697,0.0007237938213269983,0.002051850483781366,0.0,0.0,-0.02293383101478585,0.0,0.0,0.0,0.0,0.0044672693992407735,0.0,0.0,2.009308972255495e-05,-1.056746879268322,0.006045524437010218,-1.7928207661777184e-05,0.0,0.005745221870741114,0.00021598732048653743,-0.25930438346300655,0.0,0.0,0.0,-0.44206637019521544,-1.0293603769084796,0.0,0.0,0.0,0.00029916205208829256,0.003882427147133323,0.0006811647804525005,0.0,0.004649983721801897,0.0,3.0909716222207544e-05,0.005637978655242633,0.0,0.002121871310558027,0.0,-0.006288608947341493,0.0001678790532865946,0.0,-0.29127907616609555,0.0,0.0,0.0,0.00013952689556649635,0.0,0.0,0.0,0.0004366523133389699,5.034771709776063e-05,0.0,0.00022026235766054106,0.004442239992720545,0.0,0.004122215735993675,0.005301114299086865,0.005452955546641691,0.0002961421659130454,0.19097090225472815,-0.3592449894978763,0.00011940285286994933,-0.8747398421436567,0.0,5.1886300882267334e-05,0.0036411751752347954,1.8285421784574463,0.00016629451455486534,0.0,0.006928707735990854,0.0028234467918619253,0.0,0.006412593761558374,0.004079438342015463,0.004447733583360468,0.007070779402986912,0.00031040064816404615,0.0,0.00765704328815125,0.0,0.004782127797018632,0.3429171660394449,0.209891981225785,-0.4443059688180976,-0.5877590764957219,-0.8667294020000796,0.0077484496643535124,0.0,1.9443486617721717,0.00013456739515220616,0.0,0.006165580321155266,5.8816479350182154e-05,0.0,0.0031507568397368003,0.006063168693540112,0.007668131114802262,0.00034149872673626527,0.003724034448335497,0.0039399391060846774,0.00036295900880922634,0.006024490939677112,0.0032577421340794954,0.0,0.0,1.245396891821166,0.0,0.0,0.0,0.07965379345737812,0.0003430121617500613,0.0,0.0003384461354927315,0.0,0.8469811093417063,0.0028842232774175004,0.00606891170372461,0.004720415292645985,0.00478180177413868,0.0,0.005063842087809405,0.0011205193464939812,9.238686627471714e-05,0.004364095168945819,0.005792465244894251,0.0055054557613494134,0.0035348367210251822,0.0064486084295299565,0.0,0.0007556609310075932,-0.37570819729813615,0.171032380796608,5.034547717989192e-05,0.0,0.0,0.0,0.005075152353489249,0.002984946187866493,0.0,0.30669903549545546,0.003569780428137784,-0.0017347291274910014,0.005285631366924849,0.002602489732753814,0.004974427948769431,0.003130389248835299,0.004897212967235308,0.006676529695367248,0.0037318834770002727,0.0,0.0,1.238026064747718,-0.3120561414691088,-0.3551235746452905,0.2238709018703743,0.0,0.00395190593962636,0.0,0.0,0.0,0.0,0.004717180459543755,0.0033043153582770846,0.0042903019384952,0.005160382617756086,0.0,0.0,0.0013946925268595695,0.0025641158504469195,0.0029923958241533056,0.00017488295900160546,0.0002840398693941849,0.0032085379816914855,0.0031214355332838555,0.004659463340077477,0.0066809569035006,0.004238530646180724,0.0037306629298821514,0.005106295924303879,0.0045787562041544,0.0,0.0,0.0031517647914681203,0.0,0.0,0.0049121594132794846,0.2517188589317543,-0.2839414323477951,0.3539831674389646,-0.6008706751370406,0.0,0.004933737089918409,-0.010144460201458956,0.00017687051122063414,0.0,0.005449723747232477,0.0,0.0,0.006093821680685587,0.00011605340343438747,0.2764544516199228,0.00011182595460466603,0.004493099431009415,0.006372273160962344,0.0,0.005045904899216492,0.005281467956119971,0.0033956366715729774,0.006390865211573373,0.005765272963779697,0.0,-0.407629721918011,0.0,0.0,0.0,0.0,-0.4083227826853973,0.20787999585435687,0.004451352843829331,0.0,0.0,0.0,0.0,-0.004694719217064217,0.0,0.0,0.0,0.004129773883283285,0.6466868116671984,0.0,0.0,0.005295040119861461,0.0050999924184484706,0.657781869675016,-0.005096112658631137,0.0,0.005650284132420482,0.0,0.0017283400316195066,0.0037716547866394603,0.0,0.004712402819373432,0.005979076861359206,0.00035129542222722216,0.004734915482044424,0.0,0.0002700617295803828,0.0023114867765660456,0.00028813593839704786,0.0005536872241068496,-0.27094649311539,0.20242678329589742,0.0,0.0,-1.1814094573392122,0.0,0.0,0.0,0.0,0.0,0.00250687595792406,0.42643765908246856,0.002657629404136435,0.0019295798643573184,0.004803053845419016,0.0008384595105232838,0.0022564288892122455,0.0038367207909660566,0.00043307435364131885,0.0038586013994072214,0.0,0.0,-0.42382283645176977,0.0,0.0,0.8782015978961604,0.0,0.0038610609906911887,0.0,0.0024374345288019905,0.0040027690157470016,0.0046689545856592775,0.0,0.002976566629198679,0.0010570593882317217,0.00512798070149733,0.0030710101148235325,0.0,0.0011282001570693306,0.0,3.9101005096020194e-05,0.0,-1.668114245518154e-05,0.0,0.0,0.0,0.0,0.0,-0.35219861432277,0.005870504361473062,0.06942902661843126,-0.7443286561303427,0.0,0.0,0.0,0.0,0.0,0.0033343005504038016,0.0,0.004015711036847761,0.0,0.0,0.0,0.003786178233277265,0.32793711683608145,0.003146936691169137,0.005117638009944645,0.0,0.003208121301277902,0.0032162184677415966,0.005725276671390122,0.0006942962754896492,0.0057318583866380795,0.0050784278492431445,0.0035878176390099726,0.002889963210956241,0.00010697644726259464,0.0045753105552119745,0.109040074652633,0.05620578295487716,-0.49002586611669685,0.03960356799505572,1.7854601237964254,0.0,0.0,0.004267914396550771,0.002720398120560286,0.0,0.00015576771408949157,0.006478348550467625,0.005588478664805906,0.003836303036379092,0.00628546367218871,0.003635176062239558,0.005196082095622645,0.0,-9.051798282589913e-06,0.0,0.30097804240331405,0.0,0.24155129171669196,2.2408714220400835e-05,0.0,-0.002106544255127488,-0.060712489639137814,0.0,0.006694910072273101,0.0,0.005000863937615005,0.0028075944485291154,0.004434326106373954,0.0035253883542732834,0.0,0.0026771503501032893,0.0059343925820576245,0.00021524527485452567,0.0047142943174439955,5.842287300505716e-05,0.0034983251231772935,0.0,0.0,-0.3693991789393383,0.28695026735176227,0.30169376750142696,0.13886184988309602,0.0,0.0,0.0,0.0,0.0036142221546024964,2.8144010781176326e-05,0.3940247898205848,0.005375507643139099,0.00546176377668354,0.0005613764674633543,0.004044302300072763,0.0,0.000436311516426852,0.0032723097832962167,0.00612269713903807,1.7180175680853296e-05,0.006371237468841972,0.0022054081240535386,0.0,0.0,0.21494627885153875,0.05151588444283723,0.0,0.0,0.0,0.0,0.004851225681510315,0.0,0.0,0.0,-0.2951240772506884,8.554476376500235e-05,0.0,0.003636590299858445,0.0005730202308773009,0.0031557058536200453,0.00411710645696767,0.004679630836282849,0.0,-0.40281095161353403,0.0,0.0,0.0001328865858311956,0.0,0.0,0.47862488276354137,0.0,0.0035722610090841342,-0.010284211338203656,0.0044070751169234985,0.0,0.006578614665258247,0.0,0.0,0.0012766178884766756,0.003584755323693034,0.004837981927704605,0.0,0.0,-0.0005662835518067261,-0.47991380697839237,0.0623085155996926,0.0,6.8880238367772e-05,0.005014814680504419,0.0,0.004339963523511964,0.0,0.003511568822264801,-0.001377937485007079,0.006245758255847364,0.0031446277578896374,0.0032558139214220066,0.00028869105728150836,0.004905174915566521,0.0024512615609917996,0.005112764983974068,0.005139226426347225,-0.43467638098762995,0.0,0.0735553695203418,0.0,-0.6001899041978389,-0.5389289782421078,0.029676944560390023,0.6347594410764901,0.004827575967912479,0.006321348645701688,-0.413324437907598,0.0,0.0006821459541095081,0.005229460732775491,0.00549826602562901,0.00456512837574707,0.0036272530301161552,0.0,0.19052705529983016,0.0,0.0,-0.0037664376051323,0.005762263543920791,1.1690598705512938,0.8303993138866635,0.005349517797055672,0.0,0.0,0.006917362028603206,0.003952738091602635,0.0047914959445654855,0.0037136929771250634,0.0025507305286535577,0.003667768869435659,0.0,0.08055996341212995,0.0,0.0,0.0,0.0033253231808341153,0.0,0.0033339277399598113,0.0,0.0032235355435919735,0.004155758473887782,0.002082253750821852,0.006393006604064169,-3.1373939030116386e-05,0.0,0.19723302859307137,0.0,0.0,0.0,0.0,0.006188028974013629,0.0,0.00626495257854074,0.0073386631595730055,0.0,0.004204315529223195,0.004026283573928093,0.0002634805751905964,0.0,-0.62904641570953,-0.001046083964483283,0.0,0.002239843828613977,0.0023422309259873543,0.005528552364109379,0.0,0.005814197452172422,0.0003503517833854838,0.0028049598711383304,0.006166493586489515,0.0,-0.27225988546074914,-0.49064841005038795,0.0,0.0,0.8308644522001354,0.004432661894054831,0.005004391163415007,0.005701044962218355,0.0005165679215717958,0.005474854207431531,0.00492775264472512,0.0,0.2596601948285318,0.004221149471722243,0.005535175050540343,0.0,2.9636394557881534e-05,0.004592968469869527,0.006336952461326203,0.0047414229206839955,0.004883923528108694,0.0,0.0031790013852678826,0.0005341883850540033,0.002340466539503463,0.003993722354752448,0.0,-0.4194929672562837,-0.5626771319200201,0.0,0.0,0.0,0.3583160702765046,0.0,0.0002837401213867664,0.0,0.7463301862751464,0.007019616363122349,0.0,0.004332025974074688,0.004419125672128847,0.005101442514254738,3.176036673287729e-05,0.0,0.005781487995696567,0.0029610958414246656,0.19813165323067813,0.04824069092685251,0.0,0.3742792870873113,0.0034671195966347896,0.00017581247606685495,0.5585967900358734,0.00032027737943122797,0.004881721627726349,0.004189888547700277,0.0,0.005082570563279339,0.0,0.0,0.049908192510076145,0.25942811170099606,0.0037106354759136664,0.0,0.9802588225537807,0.006408819570075615,-0.2209392201051343,0.7115902529037812,0.0,0.007276764184039745,0.0033277661229293713,0.0030935011544228376,0.0045634828279386835,0.0002028940161755165,-0.03655272867191878,0.20272493632234426,-0.6157420292691006,0.006385890301131559,0.0,-0.025062711453406182,0.005659211105922391,0.0,0.6676995902384392,0.003960490579821243,0.005936957025952782,0.003696507098822091,0.004527345521605421,0.0,0.0,0.0,0.30333011291224266,0.0,0.0,0.00527132709687351,0.0,0.005941660562679043,0.008607092658410892,0.005836764485382169,0.0,0.0,0.004392644330911544,9.46479130644462e-05,0.0,0.050645186924608315,-0.48128145657687005,0.0,0.0,0.0,0.0,0.004174158938019045,0.19082971915257674,0.0055183025552429255,0.004738918066770064,0.0,0.005566463108051124,0.006033382649796393,-0.004627280552105146,0.0,0.0,0.0,0.0,6.511408829128836e-05,0.8939298816514654,0.006132761375396076,-1.3745410726613563,-1.3682953308995647,0.004759790841408212,0.004238684684828616,0.005088260767697172,0.0,0.1274692254700321,0.0,0.010822060103857003,0.0,-0.0020788653741154925,0.0017612317157904526,0.3868759131013472,0.005487224548372161,0.0038755930329537657,0.006385248818883807,0.0,0.2550624390636756,-0.5354070487826941,0.0133356252489973,0.6629621867576597,-0.6688183115420997,0.2522861897531942,0.006261495926874503,0.16713258667657005,0.001364774689891952,0.005076552095147911,0.006464573138671413,1.1711746596063957,-0.4245082947941945,0.0,0.49312940023284063,0.0,0.002904655934811752,0.4679789964884206,-0.14933005592677898,0.0032576150632042276,0.0016112351012773358,0.0002633076511899904,0.00030840343704116634,-1.1512486238186395e-05,-0.0030507748776627515,0.0,0.0,0.0,0.005080434404885616,0.0028846285327638957,0.004366408568058594,0.0,0.0,0.0,-0.7365112391387462,0.0,0.00010824843299129402,0.005616338539400511,0.0,0.004490061050962224,0.004481149499794612,0.005128002030978521,0.004197556994107404,0.0,0.004262451979551711,0.0,0.005218587367552965,0.004158828669519929,0.005804563813738513,0.003867986996486779,0.0004554863651428091,0.0013595446341950622,0.0,0.0060673217942347965,0.0,0.0,4.6252116407601674e-05,0.006051872114710653,0.00509174603731271,0.00033345345000310953,0.0,0.08476198190781069,-0.4504813188856059,0.0,-0.9881774427657053,0.0868369327011917,0.007162664897442217,0.002285166013815185,0.005227022143029611,0.0,0.003774064348379557,0.0037873487173118356,0.00601235806372269,0.0,0.0,-0.4894698616215611,0.0,0.0,-0.008441185742416408,-0.018354110297811234,0.0073505704831400625,0.0015696559852122157,0.004970288017213524,0.0045343193730925735,0.0,-0.4314437728951033,-0.3158319319345251,0.0,0.0,0.0,0.3124287486507714,0.005175588222566053,0.003213418011092536,0.003003207367947888,-0.457898747443592,0.2743215425465011,0.0,0.0,-7.133010782973961e-05,0.004839985641450147,0.007714289783074511,0.0001634443439197066,0.005047798374111633,0.0,0.09304289750368261,-0.2905521288102506,0.00010113030158820923,0.557312644444838,0.005961265673169364,0.004373780360907159,0.004861038500653352,0.0,0.00047879727019446494,0.004863883103035402,0.0,0.29599445377766825,0.6118859505084702,0.003294775105047166,0.46788994493914876,0.0,0.003287540749588363,0.0041775783891580135,-0.00019559363328080058,0.0024096661958654757,0.0,0.0020747834587962837,-0.005897244650964969,-0.2380770695307365,0.0,0.002310024532623963,-0.0011487870360513467,0.0,0.8525983916463596,0.0,0.0,-0.003982111138688774,0.0,0.0,0.0003468545248835272,0.004137232576999353,3.1962059068799693e-05,-0.2824543690665237,1.0427892936909084,0.00025057755705287,0.0,0.0049488861562831474,0.004863691476398198,0.0,0.00418275517603079,0.0,0.0,0.0036175565245665188,0.004709787159366228,0.004102530610617242,0.00016955271228589775,0.0,0.0,-0.00016206636920374537,0.0,0.0,0.003426637445591661,0.0035608381181688005,0.0,0.03353542010444475,0.0,0.0,0.006252472909982566,0.0,0.00023611335120946137,3.436383131853945e-05,-0.7385056916240056,0.0,0.0,0.7599850845815018,0.00541165670033692,0.0033128947381773598,0.0,-0.5464288752029021,0.39715335759643455,0.003856422457991127,0.005645901236437811,0.0,0.003370673660513434,0.0,0.0,0.0,0.0,0.007501235559335323,0.002988968637303418,0.004893087702517372,0.0,0.007076778507634837,-0.42895595880883136,0.0,0.0,0.0,0.006513438337861975,0.005906175434146953,0.00434027164585199,0.0022605582412026986,-0.03797726223047557,0.0,-0.4812163837857652,0.0,0.011418913166447749,-0.003633395900210733,0.006071347564759709,0.02645488360381538,0.0028396891807771826,0.0005056179521450315,0.004760285397670964,0.0,0.016198322036787602,0.0,0.24760182346872572,0.006633108616847138,0.004907529435872295,-0.004297626317892129,0.0,0.1456622673606721,0.009480868999938606,0.0,-0.29359048738451937,-0.2540201704945562,0.0,0.03875156316106218,0.072985806153871,0.0,0.5822868768262528,0.0,0.0,0.0001534261784625617,-0.3272494150263378,0.0,0.17411421797454216,0.6832658004251402,0.3900686592016794,0.0,-1.520442303881931,0.057658830275991446,0.0,-0.4690288852222626,0.04397063892007081,0.46373520413183483,-0.35779025193847125,0.07009817132052927,0.0,0.3304185368747234,-0.32455613811143125,0.5138417927237303,0.6880119528543633,0.5423242064372784,-0.2190970810376229,0.0,0.8913791452901336,-0.3155948936498593,0.0,0.0,0.0,0.3479556466421533,0.1936097862363459,0.0,0.0,0.9100245328759471,0.0,0.0,0.23797960087552944,0.015125332881387355,0.5485423137803904,0.46704570324034766,0.0,0.003925042818576033,0.0003102554182612273,0.1507068623679312,0.0,0.0,0.0,0.0,0.0,0.004425770966195086,0.005712980284014087,0.0,0.0,0.0,0.005669971508509613,0.003259819591084896,0.0038080883272365203,0.0052159239433636866,0.0,0.0,0.0,0.0,0.0,0.0,0.003986900083482051,-0.31030633616020503,0.005323139052660333,0.0,0.0,0.24705546937392,0.48964488310599147,-0.8573897535051479,0.0,0.0,0.005099362562587867,0.0024651923616836736,0.0017841282835426126,0.0004994153234929517,-0.4515608516683649,0.0,0.0,0.5074713993292226,0.00327524904343472,0.0057335819979584144,0.0,0.0030566258600074375,0.005622462722208691,1.3813712409031738,0.0,0.0,0.0,0.0036552433670196077,0.0,0.004289754951874901,0.0055727978556952195,0.0036020497037907305,0.045043259080314715,0.0,0.15553137682439774,0.0,1.0347734028319922,-0.5489365015087075,0.0004844492562760992,0.004554771858499655,0.0,0.0003311246704276272,0.0,0.07342502214819438,0.0,0.09854519183718918,-0.014335833992343956,0.004069505413405768,0.0,0.0,0.0028673251363008747,0.0,0.0043500025910859635,0.002090345137092083,-0.0031704477555948825,0.3790774457430915,0.0,0.22547358661042238,0.0037520887261469926,0.4660956225332844,0.0,0.0,0.004109197099149454,0.0031841776392028485,0.0037470261109811692,0.0,0.1394772075224941,0.0,0.0,0.004936824941619532,0.0029559396162820357,0.004814132401403402,0.0,0.0001158011990344329,0.0,-0.00827506069472,0.0,0.0,0.00706991728987446,-0.4308577089474571,0.004364180743156033,0.003431616810111996,0.0003483434890672355,0.0,-0.4268024801439705,0.0,0.0,0.005427458182893622,0.005963192266511716,0.0055400505921293156,0.007268539366760893,0.8350342055014554,-0.7419398926421151,-0.46871095298907256,0.7656170331005769,0.9552239675179847,0.0,0.004098246379672862,0.00013498810534069429,0.00025219404432568865,-0.5026756845402742,0.0,0.0,0.005189296436260399,0.0041532493250907255,0.004380948111341351,0.00585758871909092,0.003772685985892724,0.0002458668321432653,0.05305816081472358,0.02665006446347871,0.0,0.005426049633548036,-0.003541926745782228,0.8281222464360373,0.0057562128038386555,0.0,-0.07128271254962454,0.3503862564671825,0.0,0.0,0.003986225451356402,0.0036156538617127688,0.002278675964919466,0.0003852598851516418,0.0,0.013891456007734228,0.0,0.0,0.11777055551764391,0.704718255264692,0.0,0.005971869531080339,0.0,0.004385926259258713,0.0028597504000708626,0.06516675110864611,0.0,0.1491412646876933,0.0,0.0,0.0,0.0035059156955717283,0.0,6.126229426350271e-05,-0.0015722808690468073,-0.33989117567884763,-0.44011545325395396,0.0,0.0038511573224230865,0.0,0.0,0.0034577200413178325,0.006209358800827078,8.147229747032533e-05,0.0060142219810296275,-0.2581558908117123,0.41536071693673615,0.0,2.187116834395215,0.00024061187854911356,0.004381574672910604,0.005575294939018174,0.004204274587587749,0.0,0.0,0.4117282374070132,0.0,0.004295943617240968,0.0025510430623097067,0.004754324703494706,0.001962928842102531,0.004561029113018218,-0.34760598958652233,0.0,0.0,1.7347983352434482,0.5253153869268369,0.00582533534226231,0.005521501182829338,0.00042179459980566143,0.0,-0.6424128556202233,0.0,0.0,0.003027408866515825,0.004525648508076818,0.004891766845203744,0.0,0.0,0.0,0.0038622946387657886,0.0039164539194220275,0.0036914453588213774,0.004373324700300316,0.003561465447906532,0.0,0.19370934804026996,0.0,0.0,0.0,0.008598720324890468,0.004816631699396136,0.004564214607920789,-0.3568466837463476,0.5763650055373192,0.19126018445718995,0.0,0.0,0.006344456038600029,0.0,0.004654337916822099,0.0,0.00027871276840712376,0.0,0.0,0.0034358719439466787,0.0,0.003559997865123327,0.004420131401384722,0.0003107343567062993,0.0,0.0,-0.4414113286915252,0.06517736180084034,0.0,0.0058840259669089914,0.004718751498579128,2.3165530228383348e-05,0.11305573208732811,0.0,0.0,0.006486466632166774,0.0,0.0,0.004673592072140446,0.0,0.0,-0.01388824578586792,0.0043864670016095205,0.004944442113548957,0.0001271071438032678,-0.038789484448243,0.0,0.0,0.0,0.0,0.0004080977338877785,0.003193417651017022,-0.22888372155579761,0.0,0.003154886424630801,0.0037338528200891135,0.0,0.004708949949390083,0.0,0.0,0.01903280509058566,0.0,0.05663850985288195,0.003422638630897126,0.005135956644556346,0.004225747145528645,0.003558384954344899,0.0007145561985805101,0.09659413270157274,0.0,0.0,0.003196833716422508,0.004832244261239195,0.004329891193266222,0.000375971653656456,0.004383181374777001,0.0,0.0,0.0,0.0037294626348152314,0.0,0.00422591530743942,3.054481226596445e-05,-0.2794441154112652,0.0,0.0,0.002878022352641273,0.005996694844952562,0.004612197603640515,3.330108804900108e-05,-0.32363310201454565,0.0,0.0,0.0,0.000147459966570539,0.0055460789781111835,0.0036564126026780593,0.003719086356812809,0.0,0.3067677658056709,0.7130574211798992,0.6740049576841369,0.25231872854436704,0.0,0.003258384126972703,0.0005914258064380431,-0.10448334585909258,0.0,0.051433158366721125,0.0,0.006554318378391975,0.008110073093934253,0.004784047299566554,0.00634120981848811,0.0004562283511857756,-0.3018588352841362,0.0,0.04961598429069241,0.0,0.3486358328038825,0.8796494110151521,0.004133325890725721,0.0662011108487682,0.7727827806096786,0.5835470745634443,0.0,0.9025366798551996,0.34733502708846176,0.0,0.0,0.09161685692386926,0.2563946808405009,0.0,0.0,0.0,-0.24043167195939733,0.0004297461280886973,0.0,-0.2635787857778672,0.0,0.0,0.0,0.004129624656905423,0.0,-0.3814171948915547,-0.28282042101281135,0.05345133856345504,0.0,-0.2883271382341701,0.0,0.0038871981857343013,0.0,0.41128265582770057,-0.49205604096737326,0.0,0.19756644891423072,0.6877605562118697,0.45869121151897935,0.005026025695379553,0.0,0.1700686143335478,0.0,0.11476772761819538,0.5157217639124634,0.0,0.0013489739183279044,0.0035120037536538946,0.0,0.0,0.0,0.0,0.5870139673891088,0.0,0.0,0.00025509380468225054,0.0012643233773680313,0.06343742665594558,-0.793934539565507,0.004230372947431786,0.45002499236393595,0.002277812803325497,0.0,0.0,-0.23805146229012994,0.17809498617023609,0.0,0.44010178468553096,-0.17077585247442179,0.0,0.0005483090646170303,0.0,-0.28103763669510623,0.0,0.0,-0.009521223987121552,0.44883621486434294,0.0,0.0,0.0003350825440040703,0.06559646723012476,-0.0005652929538164399,0.0,0.0,0.7164848673077588,0.0,0.0,0.0,-0.06605628508957495,-0.14725516592907975,0.0,0.0,0.6738101252873399,0.4775786378058301,0.0048286724374138066,0.0,-0.24054204276262595,-0.25353753285629055,0.0,0.21621149486126126,0.0,0.36927497198658366,0.0,0.38479016168602503,-0.2252230985805071,-0.7712443485878745,0.5627973558605531,-0.18405550500989656,-0.130806593148345,0.002555477042847468,0.0,0.06674048645551756,0.15101644658776964,0.0,0.0,0.5790985685694355,0.5182837650082565,0.0020276741877352897,0.0052298340404175435,0.012793015396437724,0.0,0.1806314741062324,0.5855375926544619,0.005269637905519173,-0.0031199342908177353,0.04857806596508689,-0.010694356183468793,-0.24181837084803495,0.0,0.5068026371180704,0.0,0.004463745189971299,2.925261735900616e-05,0.030263128575314373,0.0,0.10224249613223832,0.0,0.5577642775099876,0.00558016525843859,0.005015315605992721,0.07386269317642936,-0.26111992240268744,0.07133636212944708,0.0,0.09954282627038605,0.0016934719544125082,0.00411940649048958,0.004840931167104672,0.0943216728201542,0.0,0.0,0.44872349916922744,0.0,0.005046342551908126,0.0006224086770766687,0.0042522541025196,0.0,-0.23718933759841998,0.0,0.0,0.5534595375969255,0.0037279434332196716,0.0035557190818631818,0.00025423692844192964,-0.2803311189006251,0.08696810604630281,0.0,-0.1393213519872333,0.0,0.0,0.0,0.003947422921479543,0.1191878558550549,0.09498955240422385,0.0,0.8274336802497464,0.6006874536235939,0.0032644833672184634,0.0003139516071957605,0.21198350337283076,0.004712633965667935,0.055888519059271,-0.3541924236718931,1.0403944720886895,0.39662844804066905,0.7137895550341455,0.004186471036940886,0.0005980566944352603,-0.2641721813691006,-0.21766172176288326,0.660144607408776,0.0,0.11890098366119692,0.0019713973619940564,0.0,-0.2654654971800902,0.07243452919155689,-0.20075019062531171,0.027242920245190743,0.0,0.0,0.4933378054637218,0.0045956111537702,0.0,0.0837046723366023,0.0,0.0,0.0,0.0,0.7304966773209721,0.0,0.0037637833538127622,0.0031050128157869,-0.29935381428636454,0.08463026021236486,0.0,0.26891983408433623,-0.548296051552936,0.0,0.005236298510538982,0.0002975784009180792,0.0,0.16618514536677992,0.027438821474337387,0.0,0.00015776075173194783,-0.010901786740434894,0.005549157206397779,0.004161212514579894,0.2956385123004877,-0.3089378166592175,0.3998512966294672,0.0,0.31251866245599563,0.004436807279055161,0.002868223267967244,0.004465204472016102,0.00012898370681316008,-0.008652397966244271,-0.396684943988745,0.0,0.0,0.00011182727914203751,0.00032053645393062877,0.0,0.0,0.0,-0.24072040238739412,-0.1558513441713982,0.0,0.0,0.004172588313061637,0.004991534801069893,0.003606137985808706,0.00010513427932081221,-0.25788686215482814,0.0,0.0,1.1701988888967891,0.0,0.004736533894174848,0.0006894619643603825,0.0,0.01615322414528515,-0.29509284754846105,0.0,0.0,0.0,0.0,0.00326443962460807,-0.3094932190405902,0.0,0.0,0.0,0.5911054353437284,0.6354497941548991,0.0,0.006281797278319966,0.0,0.15294070870774473,0.0,0.0,0.20941263034706173,0.00538220684651926,0.003423137544347601,0.00035261095358192366,0.0001950483995243008,0.05427355105209711,-0.9266643630739113,0.0,0.0,0.0033068212449035763,0.0031336122833124434,0.005253904766697699,0.0,0.0,0.0,0.003148833891613023,0.0,0.007411643306406086,0.003130027782815368,0.0,0.04887011180603821,0.0,0.0,0.3827621110226471,0.0009264579246859338,0.0,0.0,0.00017443457000240815,0.1811832458016614,-0.6204916539768881,0.0,0.0,0.0,0.37171696791581793,0.0,0.005067609517490555,0.0,1.2857808162010929,0.0,0.0,0.0,0.0,0.005422781824145509,0.003702414855419432,0.0,0.0,0.0,0.0021303346850411473,0.0,0.45220431068462347,0.006078990867745021,0.0001724000954590719,0.15018121180062607,-0.23094685791529226,0.0008441518915991801,0.0,0.0,-0.0038372985218151734,0.004221775612079413,0.0050611656230271545,0.0,0.0,-0.38617839869400605,0.0,0.0,-0.0003776962967094414,0.004313680741263924,0.005172763122133638,0.0052240637872033235,0.01499714222775144,0.22300498975030764,0.0,0.0,0.0033258357080400776,0.005014617792536474,0.0003759186837684299,0.0034856869893676043,0.0038212742844687124,-0.1912362241390978,0.0,0.0,0.4803148490440096,0.0,0.0055824140840067815,0.003400910836737311,0.004405932983939799,1.9195676012409704e-05,0.05396720517740048,0.0,0.0,0.004114937075357081,-0.3791695561321067,0.0,0.0033331571560963583,0.0,0.0,0.0,0.0,0.0,0.3383031284241198,0.0,0.003329985733985491,0.004786309907737809,0.005302545968864593,0.0,-0.19463051793136105,-0.32823641698649425,0.11512065670017416,0.7355842411254462,0.35098141610139116,0.0,0.0,0.004082455624889998,0.0005544033351523628,0.03584820411285127,0.07607657104588708,0.9746563807893801,0.11733371295829702,-0.3741435099792199,0.0,0.6708228184546726,0.41886583110041253,0.0,0.0,0.003462689899583603,0.002875457227138924,0.0,0.05459173553124068,-0.19943917656721696,0.0016145400775614681,0.0,0.0,0.0,0.0,0.3458439550747825,0.2715440563347139,0.0,0.003676744518479831,0.04469830132973168,0.0,0.18789639923506765,-0.2529179517666799,0.0,0.0,0.0,0.0,0.0044139134383693705,0.0028147792985472094,0.0022179228999163083,0.004180849067875082,0.0,-0.16956360920821734,-0.31737310582651174,0.06119929252759561,-0.5834657598734695,-0.582514729523638,-0.15425251522381286,0.00363902383164296,0.0,-0.0062318627229225945,-0.0031472903669838444,0.871399276507999,0.0,0.5485081109199463,-0.2431296294064965,0.3792043838404969,0.0,-0.011661111998332191,-0.241703759801609,0.06320035189798454,-0.34748133425536,-0.25949903886139103,0.816976650034007,-0.022111999339547276,0.0,0.4149986847271027,0.0,0.00031298302247656116,0.00012414551066231583,0.0,-0.21770447873827653,0.0,0.0,0.10456047702037724,0.38626585992172763,0.003210172940318885,0.0028563509863557537,0.0,0.003312366484404127,0.0,0.0460799565253631,0.01649738490005874,0.009637213480482389,1.8935321997108574,0.0,0.00872601513868058,0.827955275697764,0.00627222586874726,0.008166518612564557,0.0,0.005262685187148202,0.005723501902451284,0.004931822137820647,0.11182884109730852,0.0,0.0,0.0,0.003705200920420725,0.4556950230874536,0.005394854739565332,0.0003693904572077377,0.005290335342701136,6.806986882188531e-05,0.005339869937789549,0.02456372443537489,0.03454404102449892,-0.35360961613535374,0.0,0.0,0.004219966136316263,-0.03888916769421993,0.005999333647592183,0.005032216450753548,0.005432279094706234,0.0,0.0,0.0,0.0,0.0,0.0,0.00469476867203733,-9.232261331523577e-05,0.007985290978125883,0.17536295059659074,0.0,0.0,0.0,0.00039658216713100395,0.0066049539082396105,0.0,0.00014359918402143658,0.0049479071586660435,-0.011094575708860924,0.0,0.0,0.0038771238165240867,0.0,0.00789520237607015,0.004314599985904586,0.005036764066250535,0.004179402661288813,0.0,0.09480384026397952,0.0,0.0,0.0,-0.25658550912082084,0.0,0.005404431810841709,0.0,0.004141877057670561,0.0064949058153076,-0.3607341042720567,0.0,-0.8079059944467984,0.0,0.0,0.004768570810460697,0.002920769362964902,0.006431712990670157,0.0011003057889523206,0.003310710994078516,0.0,-0.22138793106600183,0.003933595916659539,0.0,0.0004703539899272321,0.004927292062210208,0.0,0.0029763748520540033,0.003632161970571984,0.0,0.19474727843751305,0.00018406449375245462,1.6806071805342337e-05,0.0,0.0,0.1943105851196814,0.5706950835943333,0.004617676964717034,0.0,-0.3230590974253427,-0.21148033047822,0.0,-0.30720019881765903,0.0,0.0,0.0,0.44560797745926656,0.004093250907149464,0.000881687566436259,-3.425042589974758e-05,0.0025671454465688833,0.06266439788287718,-0.25304039749363044,-0.2672151376612071,0.0,0.0,0.0,0.5602733998018671,0.6039472682188001,0.5657713300410877,0.0037520019173955866,0.0036427054954684657,0.0055241416753605155,0.004698424281156726,0.0,-0.3413277875873246,0.0,-0.2512052006780718,0.004732501817381538,0.0,0.042731374892595285,0.002974100883923869,0.0,0.23568855836051011,0.0,0.0,0.005104436443607052,0.0027546029922234177,0.0,1.5680282084434662,-0.17731550181580555,0.03589313838306188,-0.7766440556411027,0.0,2.0409915261166875,0.0,0.0,0.0,0.0003597314107025919,0.11759981618030846,-0.26366868717961284,0.3068353231758883,0.6857971705873522,-0.23355014109246858,0.056567892814279375,-0.1085960392789146,0.0,0.45002836655160733,0.0002588568177706796,0.0,0.0,-0.08464442065113824,0.2124782650809207,0.2864150446691101,0.0,-0.7957744766790502,-0.2104568726368587,0.0,0.0,0.283572017155552,0.0,0.0,0.36384477659682274,0.3726734270647019,-0.18856199701919746,0.004618866790234742,0.003794879543027564,-0.3024823496354351,-0.20039033255241442,0.26573984026907205,0.2020864260523727,0.0,0.060663750281603486,0.0,2.4136263634337887,0.0,0.0,-0.15954122592581824,0.45783509570886083,0.6120177295546511,0.002128604177379733,0.0,0.005003575482605334,0.0,-0.0001616990427232042,0.006435460888689203,0.0,0.0,-0.2974638034435409,0.044289287568378355,0.0,-0.15306969581483057,-0.006446595542763584,-0.2175787766860744,-0.2784819587728034,0.17773975771136444,0.0,-0.38668373177456083,1.0817449341858987,0.00042257093842397117,-0.29015515298972683,0.0,-0.4030832120678268,-0.5715330579733402,-0.6746534375987694,0.0,0.0,0.0,0.0,0.0,0.0,0.0,0.0,0.48781683638131246,0.767577986065836,0.3086749445630152,0.3641577798420812,0.0,0.9431173047331104,0.0,0.5648869084868507,0.0,0.4346943315339158,0.00431908639556263,0.3913407729898581,0.0,0.004262972106681293,0.006233931635106757,0.00623443445100153,0.0,0.005971113445088104,0.0021362421918592676,0.0034260604201296016,0.0025765708877721126,0.0,0.004443847407183976,0.004553207014559359,0.3420065758580723,0.002392707372301094,0.00477152390403325,0.0038550647260833007,0.0,0.005695531410865968,0.003905029712592975,0.005190137623855764,0.002901310496964935,0.005520437705142963,0.00323249478700043,0.0,-0.011267950675442957,0.0035802286254834944,0.005659150975633894,0.004607386189755207,0.0,0.0,0.0040994331085707275,0.004618827124397942,0.0037750903520071197,0.0020833882912817863,0.006071156525828494,0.1258425239795153,0.07745509517938573,0.07262764815105255,-0.33719643841323677,0.023618831400773935,0.0,0.005195769606291262,0.0,0.181024789478531,-0.041150646564294624,-0.2928649972932967,0.08762975005349995,0.0,-0.2571070059983495,0.0,-0.17882062581059072,-0.20983299200244832,0.0,-0.4873472476253614,0.0,0.0,-0.0055480294145751246,0.0,0.0,0.0,0.0,0.755436074003308,0.004625359854093944,0.0030073136081372595,0.00034511712679312264,0.00028355202091600207,0.000356816408287054,0.005651475487074465,0.005703256435575819,0.005869258875733646,0.0,0.00046279484703877147,0.0004969294821269152,0.0,0.005134260678555131,-0.3499153421917049,0.0,-0.3156348328703424,0.0018005063625303227,0.0,0.0,0.01669569225687879,0.0,1.0182071773864416,-0.23225063008414698,0.0,-0.2730331156793398,-0.3771339955227588,0.0014596983373029388,-0.5059437850592017,0.0,-0.1665417224658469,-0.42962327267998845,0.0,-2.3509223149309593,0.027502426843603198,0.6819530257901363,-0.6975403626425961,0.0,0.0,-0.16545999939304995,0.0,2.671844255714938,0.0,0.03507398010853097,0.0,0.0,0.011404160977309546,0.0,0.0,0.0
