,0,1,2,3,4,5,6,7,8,9,10,11,12,13,14,15,16,17,18,19,20,21,22,23,24,25,26,27,28,29,30,31,32,33,34,35,36,37,38,39,40,41,42,43,44,45,46,47,48,49,50,51,52,53,54,55,56,57,58,59,60,61,62,63,64,65,66,67,68,69,70,71,72,73,74,75,76,77,78,79,80,81,82,83,84,85,86,87,88,89,90,91,92,93,94,95,96,97,98,99,100,101,102,103,104,105,106,107,108,109,110,111,112,113,114,115,116,117,118,119,120,121,122,123,124,125,126,127,128,129,130,131,132,133,134,135,136,137,138,139,140,141,142,143,144,145,146,147,148,149,150,151,152,153,154,155,156,157,158,159,160,161,162,163,164,165,166,167,168,169,170,171,172,173,174,175,176,177,178,179,180,181,182,183,184,185,186,187,188,189,190,191,192,193,194,195,196,197,198,199,200,201,202,203,204,205,206,207,208,209,210,211,212,213,214,215,216,217,218,219,220,221,222,223,224,225,226,227,228,229,230,231,232,233,234,235,236,237,238,239,240,241,242,243,244,245,246,247,248,249,250,251,252,253,254,255,256,257,258,259,260,261,262,263,264,265,266,267,268,269,270,271,272,273,274,275,276,277,278,279,280,281,282,283,284,285,286,287,288,289,290,291,292,293,294,295,296,297,298,299,300,301,302,303,304,305,306,307,308,309,310,311,312,313,314,315,316,317,318,319,320,321,322,323,324,325,326,327,328,329,330,331,332,333,334,335,336,337,338,339,340,341,342,343,344,345,346,347,348,349,350,351,352,353,354,355,356,357,358,359,360,361,362,363,364,365,366,367,368,369,370,371,372,373,374,375,376,377,378,379,380,381,382,383,384,385,386,387,388,389,390,391,392,393,394,395,396,397,398,399,400,401,402,403,404,405,406,407,408,409,410,411,412,413,414,415,416,417,418,419,420,421,422,423,424,425,426,427,428,429,430,431,432,433,434,435,436,437,438,439,440,441,442,443,444,445,446,447,448,449,450,451,452,453,454,455,456,457,458,459,460,461,462,463,464,465,466,467,468,469,470,471,472,473,474,475,476,477,478,479,480,481,482,483,484,485,486,487,488,489,490,491,492,493,494,495,496,497,498,499,500,501,502,503,504,505,506,507,508,509,510,511,512,513,514,515,516,517,518,519,520,521,522,523,524,525,526,527,528,529,530,531,532,533,534,535,536,537,538,539,540,541,542,543,544,545,546,547,548,549,550,551,552,553,554,555,556,557,558,559,560,561,562,563,564,565,566,567,568,569,570,571,572,573,574,575,576,577,578,579,580,581,582,583,584,585,586,587,588,589,590,591,592,593,594,595,596,597,598,599,600,601,602,603,604,605,606,607,608,609,610,611,612,613,614,615,616,617,618,619,620,621,622,623,624,625,626,627,628,629,630,631,632,633,634,635,636,637,638,639,640,641,642,643,644,645,646,647,648,649,650,651,652,653,654,655,656,657,658,659,660,661,662,663,664,665,666,667,668,669,670,671,672,673,674,675,676,677,678,679,680,681,682,683,684,685,686,687,688,689,690,691,692,693,694,695,696,697,698,699,700,701,702,703,704,705,706,707,708,709,710,711,712,713,714,715,716,717,718,719,720,721,722,723,724,725,726,727,728,729,730,731,732,733,734,735,736,737,738,739,740,741,742,743,744,745,746,747,748,749,750,751,752,753,754,755,756,757,758,759,760,761,762,763,764,765,766,767,768,769,770,771,772,773,774,775,776,777,778,779,780,781,782,783,784,785,786,787,788,789,790,791,792,793,794,795,796,797,798,799,800,801,802,803,804,805,806,807,808,809,810,811,812,813,814,815,816,817,818,819,820,821,822,823,824,825,826,827,828,829,830,831,832,833,834,835,836,837,838,839,840,841,842,843,844,845,846,847,848,849,850,851,852,853,854,855,856,857,858,859,860,861,862,863,864,865,866,867,868,869,870,871,872,873,874,875,876,877,878,879,880,881,882,883,884,885,886,887,888,889
0,1777.6736330536053,2951.365047634233,3051.33216191852,1957.9003509716604,2863.29071854493,1957.9602449918934,7530.407599840692,10301.697738652287,3449.9384123315494,2133.750311171827,3290.2433004351724,2378.4241194181077,1719.156104856538,1517.2485990718792,1995.8610993443608,1958.045780867189,1678.9195274876395,3094.8639291593195,2312.1262611958105,3111.004761781927,1811.662635336185,3340.882233656036,12131.66735409805,3452.7647640353966,1913.9361295659307,2284.308893628229,3008.0248034822694,1607.9548781304807,1995.8407937871455,1976.3253331464873,1891.898485771385,1828.5678509935346,2768.929142607438,2494.9766313246846,1627.606601884016,1691.1744026280055,1974.8674335866344,2736.5485232353335,1743.348428212497,1568.5250187213617,1680.8009183848321,2239.888062306547,2407.2665045045865,3638.2920220675537,3281.7691227992336,1557.6569864433504,1747.4829949512196,1808.9375418055608,2095.912302886241,2596.1051790966776,2987.6863236505365,1732.3742610338256,1846.8662433861539,11127.978857944407,2229.146868761897,2487.0588234321067,1545.6561114710164,2555.18220539971,2243.7186724868425,3014.5968946908324,3070.4694855436233,1657.914609025976,1675.3270259897029,3142.671585435393,2475.8827238108643,2181.6751645174063,2947.0056636405343,2381.2972093266344,3297.871054363673,2403.622387394341,7948.803288381037,1666.5939292609764,3548.6747845580117,2023.3436845118454,1517.5997167959458,2425.7889302799017,1772.3163640966482,2529.827147284578,2534.563719224139,2512.924423040454,2599.313918302793,1822.9854561439406,2252.6847780484372,2476.6530287050973,2546.411623333127,2323.4637607848545,2171.887361205635,3328.4958618945648,1948.2646702172622,1653.2784134256035,2090.2339629921184,3125.7574385113858,2318.3629377857183,11350.256801157619,1401.3642560135306,3642.487946944903,2306.8264444352567,2197.8632794757464,2556.1014732820004,2554.108559599609,1483.1538143503049,1508.2826709601113,1724.1758324889308,1391.4308732314855,2381.962997277451,2675.2021294277656,3173.170731464621,1548.9457693884628,2692.629356115785,2333.6499455737376,2335.822713291036,1834.9758577944062,2165.635449176172,2384.2962349071595,2677.5650982354596,2688.5948837630212,10417.899312498632,2481.4558853918993,1455.11420881503,2541.8743922139897,2583.856788873088,1704.566570454393,2412.408797485176,1462.7965969872696,2378.827908650871,2379.1042825157824,9487.744521369637,1927.969331131535,2542.6867452000015,1749.6567835964136,2642.791471472657,2842.937410499374,3398.133799270288,2023.9087463137253,1432.034882549516,2638.454318158664,2348.5749189031662,2626.0859717104495,2698.6171818071066,2457.767618250068,1509.5845654673935,2177.5888332154386,2521.8060955678934,2669.7324859608157,2671.206596989705,2030.0337528104267,2355.9466477003148,1624.4045284642,3253.4305764196374,2334.9651591324605,1509.1783564048262,1397.3569745960783,2381.9247132291734,1399.389830408172,1833.1983066610508,3972.9294445456408,1852.6911206842797,10312.28298322848,1536.4531839908668,14167.593699310675,2659.5091608228486,2494.8266416976653,2399.648735489519,1286.9271940674687,2368.88753945228,2460.747965622928,2519.23190686807,2529.8968145161366,1519.2151895827244,2502.0797866381076,7564.160324954983,2254.6054905967926,2674.4513437982673,2759.2639754236234,2575.5107411225968,1417.345874869115,2456.5439050446053,3956.7244613327753,2368.902690918086,2393.45229277325,2538.3211340839703,2425.5112879787985,3562.086867961065,2641.4171593194233,1976.8213249898627,2494.5631903150756,1977.8864067719821,2771.9971392415996,2913.86040233749,2678.8506203393495,2549.994814763369,2543.4761671649294,11879.230131086253,3267.6281725280182,2348.1333389552633,2353.4857722624124,1449.1087762381785,1390.6975375199713,1411.3315058020023,10253.344565379704,1909.6991036944357,2344.3190614912896,1573.1575339457515,2512.883332210256,2561.757668577071,1672.9843802011912,2482.0794089105602,2389.462593575124,1784.5164558458168,9964.142578535917,1585.5045533282612,1589.0547699253025,1407.8128390565741,1543.2877017174594,1458.6529012942506,1648.9531213187538,2335.8187976103336,1590.3626034365261,2498.44914550417,1558.5677329362072,2494.288298225399,2400.602253066911,1782.9940983677175,9801.874323033655,2351.8982683616364,2465.083996198133,1475.275930581282,1695.6712645541181,2306.0668276127026,2444.6773648115404,2326.8346130350783,3726.5067385965867,1761.671227065004,2127.4899181726373,1982.1455710739003,2540.236802036769,1981.3687806961311,2076.5766956517805,1827.1233551393743,1394.0137223165427,9240.386260861582,2689.2640564170197,1580.792428732545,2617.560148777332,2486.6242174099184,1358.9113459839823,1613.6495940443538,1224.2041078205884,2329.451560060501,2494.0278566338543,2310.6701139462607,2499.070082865078,1756.0235249623133,2569.8999474332027,2611.624699842727,1565.961159215122,2469.4988081189667,2470.4643764234875,1788.5716871964587,1520.550341572973,2591.0253441022937,1741.8534855771434,1476.95794038119,2518.0116453940313,2400.928118092747,10198.792546230854,2328.9215348863745,2331.1568904537544,3638.6957535919873,2314.866674828532,3200.537220004771,2329.5708579875277,1746.4237717124242,-3177.815370043944,-2849.5161589933737,7796.048566698866,1637.3770599217858,1841.443933468796,-2850.1326938994334,5841.963959004563,5473.136724896918,-2820.006136903743,7615.79905583291,10269.927812452923,10202.149809860874,10367.95995672397,1862.3030248453401,-2712.6129186392504,-2951.8114880895664,1597.8807961453629,3091.106906872254,1846.6272590876747,-3132.663632770354,-2891.8924825845515,-3081.001708590358,1840.8856348550437,1869.4359155507673,-3282.3324947922792,-2896.905603725185,1706.90157993579,1700.8651789371495,1891.1058431610006,2019.2774358981676,1790.782422558137,-3275.3628133343373,1677.6296728330992,8339.421457938919,1699.766262656467,1699.9685950249905,5572.5903442567505,1993.554225989995,2303.690336911411,-2544.955196020141,5936.127671994897,8993.462070770503,2053.597529970934,6140.602257580277,-3491.0574447415765,1715.580975819455,9399.021251839727,9277.09149272632,-2816.215380683899,-3376.215649772475,1829.4967899730218,-2820.3834662598983,-2573.1495694037612,-3403.3392224963814,10032.408921102755,8013.433276780793,1615.6789659585793,11725.928155635285,6353.806662564694,-3284.668191515591,1862.801175892713,-3020.8481531319917,-3348.79245944909,12613.88535553747,1609.5507900291946,10672.16987844538,-3201.369421545706,2010.3565337594962,-2803.2097057182177,8847.72687393775,7428.858829791481,11524.627923931019,2253.2082375579294,-2627.860920254693,-2676.760336128872,1891.871574022067,7392.875017538178,1794.4090459551496,-3000.779186250591,-2791.9470588626714,-3232.82131862985,-3117.9435828527603,8086.399457552638,-3181.6962018444933,1813.184761288421,6011.366958766859,-2693.6239181765936,6561.551541463333,1636.5952985123663,-3088.833486997866,1631.0210084785886,-3093.7942368955287,-3055.1597244575614,-3145.1425624658946,9113.60537979913,1977.6340764264776,10619.792464086757,1923.3143143945715,1461.249680626855,9465.975213153672,1626.0303379901911,6627.349684676517,1500.7396932373047,2571.0466294320477,1921.6968570214376,-3014.7830142007697,-2819.0784466594478,-2519.3034277713773,1856.6137349862454,8471.492285408287,1930.6465707344687,2058.9484066034775,-3108.7600252204643,1640.9979669693043,6194.997133115832,-2598.0711342643926,9474.48436528357,1835.812566352029,7490.742366552053,6243.697653354314,-3059.2825623194535,-2795.86988974502,-2757.298096713166,4482.450313008877,-2763.285473796388,1714.1117947003709,8883.941252026203,5158.5640888939415,1834.769831839567,1693.47562903002,-2921.081017357585,12509.323874979273,1999.8428520873833,-2438.053876555043,2187.7448933353176,-3038.864452326224,9021.495345448453,1775.8999148338066,-2515.267746460815,1659.2700697331836,-3130.0153040094633,-2589.239300230343,1715.9318267633764,-2817.465636099471,7535.118906616216,1733.1725993181728,8848.969327404251,-3332.8695337152108,-3192.6656174628656,2568.282997166422,1938.2986756353453,7770.895523270752,2404.68330542119,12354.854446490803,1612.3608881203932,1925.348090679853,8223.832367105239,1601.5766065753448,1923.8230384193077,1508.4549669990943,1805.588910654035,6204.798277736749,1942.8397596054997,9559.145722326246,1610.9017686377047,1744.0154226884206,-2880.830390157901,1762.111529813127,8585.963459777126,1622.6842517890236,6049.419420230293,8119.859459735204,-2796.7296665329995,1730.0092090839023,1711.7494871268614,7151.166457810253,1541.8242420067281,1423.5454114654876,9810.251223406862,-3162.7453939809116,2275.1115221508403,1948.5738783360384,-2806.849162471176,1892.6154436759505,1494.0522941031684,2002.464992231072,-2826.877068011507,1952.2271486375714,2408.300837813471,-2681.3684216325714,1890.8532122630443,2132.8763701146027,7052.1585528004625,10119.178800698146,1684.1397735799862,7458.926236775883,1648.7911612055677,6163.189253786132,1782.8364270263382,1727.4010757371636,-3253.8517751078043,7155.549259414974,7020.56916400955,7116.029456292595,1468.2444289053058,1557.6904584221156,8629.115902893242,1838.5544398025506,1705.2439934442657,-3343.5822653110163,1476.4819432249176,7995.051764861517,1473.1678750118504,11311.413491471449,1773.9550025136737,-2766.1144809017615,-2544.2257588370526,1760.6410205616037,1391.0532787133207,8696.9888586086,1832.1674301076018,1696.4079047576781,1924.0959471012118,-2541.8106206893544,1414.1613663802118,1956.9576173415155,1491.7679917809207,9597.052956111513,7991.852245382333,1490.8415655954736,2271.9535841658158,1492.4370371654109,1709.390554544978,7621.372112943481,7334.633337771469,2328.1506562171317,7809.786469509809,1886.5197616968696,1812.7095293532213,8038.633509472278,1900.796460082703,1484.6024069566909,2327.31641207131,2526.6042954826894,1595.58994664838,9834.805223481477,-3146.220635673502,7795.167460447318,1382.4893849819568,11039.268924004207,2328.212972001314,2547.171993983079,8208.510869197104,8648.615611036585,1972.9603082030474,8224.513837406445,1857.9064345534746,1733.1433971514534,-3130.0179449976777,7174.736029724566,1515.6743067389227,1920.4856164471487,-2955.473200556984,2485.6017970727953,1843.8531909065723,1463.9629267006758,2493.4528854757227,1641.7650941219974,1885.5977222519682,2184.663611646177,1653.3181273661314,1620.3895687554796,2105.947859631223,2397.3898480160606,6469.464683853133,7680.85021770749,1657.6435396039537,1833.6571443611651,1455.1332577099922,5606.146997854894,1457.2460433657234,1530.5009520681256,1378.4292417921527,1629.5708330338675,2472.4595269871593,1357.7436524600312,1966.1733941990424,1433.8727208399698,7980.419066045844,8196.768461773067,1311.5625901369626,2352.1423185134945,1533.8019857874112,1750.3022546582276,2197.398072807827,10780.663321102822,2350.3862242821624,1355.0079064386432,1551.023265994075,12531.084245721539,1534.8898510518488,12842.47978683449,1474.5185286869075,11540.619167984085,1667.0133785458938,1835.0546018437979,1958.0250093209545,1583.2474197410656,10246.200745011618,1599.4541733147487,-2870.1055072751174,1528.4509759488537,1908.7207610759851,1556.530141894434,9977.114504538995,1641.100798676509,1818.9090871193325,1506.0090154348723,1540.367986795255,1416.8409115579138,1518.648328269805,1535.8875994934613,1920.8468573716502,2504.694646099212,1490.5274362644438,1345.6789520398522,1450.8168637091587,1263.7104480997134,2042.5028625378957,1821.50953681448,8595.368573823318,9682.41525580986,1194.9662216916925,1538.702734087082,1504.6692321879398,1775.3203102428065,10965.109975864849,1201.8717883179627,-2859.0396652306586,1515.1731786978341,1690.8531978206836,1273.5039429782612,1308.1344859154117,2277.143967996615,3278.536567100759,2575.122728006365,1541.622141863196,1331.1755664759767,1643.5840728293238,2464.4342171492267,6397.327092532314,9004.041397568471,1478.963679308347,8943.558256910239,5493.942160404006,1317.5576787708874,-2924.2268479395934,2279.610542084386,2516.5359392395694,1401.9362474563118,1621.1038448492118,1354.5740997266819,2610.4951066510203,2251.264216768345,12958.440554725204,1469.475709275526,1360.1286278484197,2454.893412147493,1783.6741650754805,2329.395054216635,9782.714839381992,2266.6676115745995,1746.61259089792,2634.30279108608,1304.2071285513118,1474.0980261668137,1213.348809672896,1517.6911491516023,2241.7544771507005,1719.7178602233025,1146.3668702944617,2428.963246200202,2392.1523801531544,8896.198160742922,1743.8086346411028,2238.947238065435,1197.110690464651,-2931.6679826606555,7810.619131849005,3848.1043446663925,2447.9510139277263,2340.576764655154,2320.351890352907,1437.8893982383122,1354.4788215561084,8271.441433093698,1860.3306714953235,2201.8948876394934,12140.649550596881,2424.536293408979,2321.6654191080465,1460.7870473609835,2328.8436700651437,1098.700395571673,2498.6826191881814,2778.6596601799406,1573.8464469793603,1052.7885578399842,4125.152150448004,2460.3111650847663,2380.022893474411,1735.268999288301,1585.7614790436146,2342.3373485298844,1413.2759569237228,2291.0624994947543,1049.6491105585778,5917.866945485136,1099.3787553298039,1773.1174836265964,-2963.5035513375215,1854.2423494732914,-3216.384488412307,-2833.8828117775347,-2863.562100571541,6836.613994868111,6884.282600236323,1801.0094210559052,-2873.3336178427326,-3136.9996185401715,12237.9650239926,-3404.726355670488,-2786.3016678771164,-3115.701739824159,-3378.4773821920617,-2757.654387701422,7527.7976757850865,6586.965420892489,-2801.4295357628334,-3565.470958224412,-2634.162857494659,-3068.969829840759,-2889.59297643095,-2540.022320912232,-3294.8757006495216,-2924.4482447401506,-3037.8612673628804,-3171.931015853484,-3191.9504428490804,-2913.2048105854,7934.476632825807,-2943.8322899056525,6524.705956662597,-2316.1457666192096,6536.943585099953,-2858.5760651885353,6617.3234405816265,-3235.6876515403915,8593.065481532338,-3175.6511668833177,-2654.863426988559,-2798.0286513568826,6227.818158819427,-2838.5857095236875,-2793.667496040176,-3129.7096792669463,-2793.9991653133516,-2877.56441754788,6153.7843977122975,-3041.565973654817,1597.0085017532283,-2738.7408811471887,-2717.131727400371,14248.599423686535,-3040.751794770819,-2773.5670254838865,1604.371339842827,-2832.9076161342423,11583.676296976037,7211.889365206371,-2614.4239622170226,-3140.609081247862,-2548.574164976132,-2466.999694680723,8096.946471682761,-2674.600581129695,-2516.571718969329,-3020.0078432370956,-2747.966586572333,6129.7437017020175,1641.8485511244517,-2917.1702314550234,-2791.003057140953,-3113.0503366174244,-3001.248536563562,1791.3121675114128,1682.3221951862402,-2852.6883656810287,7996.662569140854,-2917.7972121150474,-3085.7417089503124,-2898.1230093167283,1639.1855291052104,-2895.4519782449024,-2591.8087565676324,7866.127505819235,-2859.43510062315,-2992.5057472612166,-2525.5285159970053,-2689.1603449744835,1961.3078285082524,-2932.081098379645,1791.0319546545995,-2746.818822725138,1507.3573413293975,1847.3545805778856,1896.3192013795965,8479.35225827083,7498.413106223725,9015.815308484433,1674.891941957754,-3582.2892949173547,1657.652667427006,1791.8249764333407,7074.8914931718855,7968.856996204163,1695.9273626315774,-3014.613082282841,1895.1968196413109,-2690.6835712747275,-2746.093344655573,2197.6384452657694,1848.1902414024808,9681.553479504231,1653.027433907907,7973.857511826997,7528.875464917463,-2979.7815832671995,1717.8261495485372,-2987.508721594824,-3036.560474666768,3962.750799659327,-2916.531873217527,1848.8052768211921,1711.2332935958582,8652.060075883757,1685.053884203396,-3298.361862640561,3373.9226666834156,5802.25653933076,1555.9926670252912,-2716.3281932714444,1840.8590877375102,1630.522437690574,1861.354172104417,1776.977528403141,-3135.954219075309,6917.23531416384,1835.2462938977026,-3054.5980641649785,6645.377895785806,-3029.6831334536982,1776.6696415486426,-2974.087414507223,9470.970969334965,-2562.118271198128,7447.43955073767,-2960.361252845327,7863.953870727531,-3099.4692673028962,1771.3252621813697,1715.425908430506,8336.613278362027,5816.94305416746,1927.5351372553075,1773.014778613561,2561.7595862998205,8350.63566659428,1775.4285756862098,6907.633493863774,2166.666987261801,1806.740410975547,8237.63634592133,-2838.3376299702245,-3178.6804370502796,10154.839508938127,1825.46791604007,-3508.4486328832986,-3065.516011356404,1530.5262497751794,-2483.9599271345346,-2797.5547592884177,2045.7575984613131,7141.152237691097,1620.155245198264,-3135.123590868011,1689.6585745531577,-3144.437080290276,1380.8629806852257,-3180.1466841202896,-2804.096028083456,-3228.511425253606,-3034.032949640481,1903.920595817613,1642.9371684219652,-2799.854746124547,-2804.6700208342395,-2840.2233175742617,-2819.944795591452,-3147.713047800038,2442.7657226472597,-2927.4342790051855,8596.277156987771,1568.181737789255,-3169.1992284370267,1590.0888117397571,-3158.7257641105575
1,298.3317664240875,296.32972761531795,296.3294880477727,296.3293732634106,298.33182806230894,295.3284635785127,294.3271220944518,291.75875731535234,293.3260138308353,295.3290485983581,297.3305086120844,295.3282625749766,298.33155659469156,301.33530738335367,295.3282117880657,295.32921648182946,291.32424985169837,293.3259528286944,298.3316363929263,300.3337563690036,297.33085293316043,296.3294042433193,293.63431342048654,297.33061069502963,297.3308726992462,294.327211815197,296.3293804962548,296.32995039577446,301.3353830744681,295.32875992784034,298.33158056095965,297.33060733773203,294.32730503615994,298.33159918211896,292.32575906677175,295.32860824600147,301.3349566068828,299.3328661618119,296.3293622029655,295.3285152604815,296.32942005803096,294.3273271950783,295.32894856662637,298.3315751276804,294.3273943518068,295.32849607584734,294.32757572041487,296.3292688446004,294.32787856788724,297.33041320037546,297.33045518629496,293.32616487185214,291.3239622009162,292.71763158253225,294.3272918569108,298.33162876755654,296.32934015495294,294.3270716307357,294.3273145454744,297.33049238361065,297.3304739675479,293.32621945544685,295.32917732647724,299.33273885389144,297.3306119397049,297.3304112271522,300.3337328462949,295.3281460666196,299.3326479705552,297.3308331993036,295.32823219392,293.3261555190295,297.33044686744216,295.32835279252015,297.3306227859113,295.3281637247644,293.32609348786605,294.32708311631734,297.330600606024,293.32595256546676,297.33050128509785,298.33185589095194,295.3283506688802,298.3323832956861,292.32550929403817,293.3261027811291,294.3270635131596,297.33041855835114,297.3306915016196,296.3296322319712,296.32948893188166,299.33268342585905,299.3326207242314,292.3248701956263,296.3299118934445,292.32506404343644,294.32789036628293,294.3271212555105,295.32841282307584,298.33177895901747,295.32859038493757,297.3305951924405,296.32927182598536,299.33283775221076,299.3327122997111,299.3331241105081,299.3327880402563,297.3311618572765,294.32748449629594,299.33306960616636,296.3292676222624,295.3282521746993,294.3270526683469,297.33046335446153,294.3272048906716,299.33276192063005,291.84277721538353,293.3259254557233,295.3281692972436,293.3259533798283,297.33114007371614,295.32840711885234,297.33119848131054,297.3303941854887,297.3308531963407,296.32948048607676,290.8263735757923,301.3349501762969,292.32496508761767,295.32870387058756,295.32858657454034,297.3304326499333,296.32926636133345,294.32757667683154,293.3261130756437,297.3303841164134,299.3326528358839,297.33075020822315,300.33437747266515,298.3315679939787,295.32817488880613,295.3285678320054,294.3272898465738,297.33036891305113,294.3270741118495,293.3263421952684,296.32958796047876,295.3281696899814,297.33049055223455,297.3308050031854,291.3239339961084,295.32848786995356,296.3295778655699,297.3304868455123,296.330476389939,293.3260351394404,296.32939988335903,291.77532924992244,291.3240621277539,296.32947282800416,294.3275031199754,297.33045133008363,297.3305746043625,300.33416625735356,294.32714116583156,292.3249288738928,292.3254111351114,298.33152573364674,293.32592048506115,293.3260053091126,288.82189725320245,296.3294946022417,294.32727153036365,297.3305955042005,294.32714922667964,294.3271994362471,292.32534256006886,292.3249346940842,295.3282023538751,294.3271963585658,297.33051587510414,295.32821700181864,297.3305369602829,293.3262626388683,293.32622035957615,296.32948239363753,293.3261552024243,296.32935889356094,299.3327937933605,300.33388238425215,296.3292956842438,294.3272141033441,293.6271865374888,296.32940176426774,298.3315147631342,297.3309725941216,298.33209739303453,295.3285279931567,296.32945666058157,290.7998775881576,295.3282502521122,298.33194151837745,297.3306554028655,297.33072109760616,297.3306752562826,297.33151619120684,294.3275999801718,298.3317438661818,296.32990970493415,290.77567234215013,294.3272365579295,294.32713068433935,296.32970210896707,295.32847569582503,293.3262149797829,294.32744280853973,296.3298765421064,296.3302212907238,297.3307709646184,295.3284474022575,292.32503738391927,298.3318631742783,295.3291585106497,290.905166317834,296.3294619401106,293.3259778099561,295.32823647477755,295.32855097746165,296.32950056790935,297.3306280577336,299.33273075123,291.32387853859444,294.32729102139706,294.32719190395994,297.3308067171897,294.3275153216554,294.32781941274294,294.3274891823187,296.3293865892134,295.32880937062737,289.82370060090454,297.3308534580018,297.33073144510115,297.33114727894485,293.3259950766132,296.32935917342047,290.3226455693262,296.3293355414574,296.32938301313914,298.3317166647857,298.33150121385694,296.3297731302111,296.32930222045155,294.3272109565634,294.3272295736138,296.3292606651088,291.3238281416364,293.3259999114997,296.3298944339506,295.32873877415693,295.3283931722199,292.32516655757826,294.3272853726466,291.3237143682273,292.3252463536051,290.8226191643957,296.32935563121487,296.3295799430424,293.32632895495726,297.3313164447253,298.33164963166786,299.33277057655556,294.32792892430666,333.3704361952996,334.3718617899874,297.33043786639246,296.3295603201385,297.33130654540724,334.3715931606823,296.32927481556925,299.33264105158776,333.3704246392503,294.32712750945996,290.78473097183183,290.78096813504243,291.7684509829234,294.32707614497406,335.3727593827815,334.3717058968712,300.33411414962325,299.3326341247288,295.3281893087861,334.37169460403135,334.37154449182174,334.3719446248131,291.3240072393183,296.32929999003414,333.37060130412726,334.3715628374941,294.32816651202484,296.33006950473924,293.32626513959724,295.3284871810489,293.32611652331985,333.3704690788683,295.3283426969858,294.3270829815864,296.32927099424916,296.3296290837774,299.33287314629297,291.32404915216716,294.32802371799664,335.3738127103473,297.3304602522538,289.81530467171484,290.3227277777039,297.33052535839016,332.36942800025514,295.3289643408963,290.86099304236234,289.8833930096089,334.3715563930965,332.36955915481,297.330803474229,334.37168310286546,335.3730944831275,333.3705106494286,290.79875492001855,294.3270483530279,297.33113873834907,292.6544219972453,297.33040072910364,332.36934967889056,293.3261597979298,333.37066009175857,332.3693103916737,293.50591114935753,296.3294485579908,290.3226363327058,333.3704791973382,295.3282548056146,334.37166282992416,289.8587375124123,294.32708334180876,292.7026112647609,295.32834737634215,335.3726920732828,334.3715965782108,297.3305291503292,294.3271293174105,295.3284613224548,334.3716224921479,334.3715896476145,333.3705017070018,334.37203741618805,288.8609453678146,332.369315122239,295.32827857701835,297.33040498027333,334.3722779084741,295.328196846469,296.3292829783118,332.36933402233495,297.33053178984926,333.37126502608885,334.3715439827704,334.37154829184084,289.84297750049996,295.3288045078588,290.32259915915074,290.32345248796634,298.33156594712915,295.32822860021327,295.3287240157016,292.3248386516116,297.33045593489334,296.32942599898104,291.32369900520075,332.36942727741774,333.3705106213666,335.3726525842534,293.32606347328283,289.89973602140674,294.3274292707938,295.328177318792,334.37153513430053,294.32725884840124,293.3259816396348,334.37183819847746,293.32593961761023,292.32527858104123,293.3259341345991,297.3304100619215,334.3716227998883,334.37193221438883,335.37273458506206,301.33492147145336,333.37044558975253,297.331140143699,289.8353651545849,285.73125399632374,298.33175937218414,297.3311189456384,334.3717791044835,294.4142108888732,295.3282017181089,335.3733454441805,294.32714318030327,334.372162977753,295.3281494996728,297.3304265521985,334.3716097433933,290.32288184901745,334.3716577673745,335.37280428240837,295.32816234538046,335.37308637052314,292.32484214241697,291.32411298868305,289.85612362931556,332.3697586658729,332.36948696591696,293.3261013350634,294.32763141348806,296.3294000983506,294.32731021798423,293.5911487592578,293.32621150510073,297.33050478542117,294.3270357612295,294.3272205567413,295.32828443711713,295.32881833333624,298.33161379253335,294.32709842885356,295.32846095884776,290.8217703992751,296.3293680789568,293.3263293879656,333.37106182521484,295.3283931781081,294.32708204634315,295.3281884807355,295.32818736349685,296.3292729830353,333.3704475196637,295.32843048224504,291.3241604276644,293.3259925029318,293.32591960882377,297.33050417108535,290.8139979565856,332.3693377341229,295.3282328567413,295.3281469771341,333.37044590511965,297.3305983967935,296.3292808222325,296.32935211973665,334.3715369393244,295.3289791363855,293.3260344182129,334.37181331686116,294.3276031864466,294.32785475348953,287.8323799714277,293.325926882212,293.3267877546381,294.32706332258437,295.32853680379935,293.3260435026613,292.32500825041166,291.32380022496875,332.3697114367184,294.3270305950437,295.32827812464905,295.3282414096398,295.3288073884881,296.32956028351083,294.32717392109225,295.32840307890746,296.3299271363268,332.36953939496027,293.326067753761,293.3259721583803,297.3311865354008,292.75800331266385,294.3272845537515,335.3727244236559,335.37312224178606,292.32489522541033,293.3259796223983,289.87811667077784,296.32927345183487,293.32600579068503,294.3270779458101,335.3727036459484,295.32827311762793,295.3281588132833,295.3283242745357,294.32716011356047,293.32594777428403,296.3301792450001,294.32710789640953,298.33230427171634,292.3256314822459,296.329312059273,293.3259630094028,293.3259550261156,288.88113363132544,296.32940259256577,302.33626284226204,288.93800786661296,295.328813662905,295.3283411309933,295.3281832237463,295.32816453353763,295.32879488143396,290.8837783587007,332.3694009857555,296.3294758453375,297.33106823405865,293.3259826615906,297.33064986348455,293.3261510442889,292.32482606247106,289.88151794550953,295.3286312390886,295.3282439447048,296.32927433302916,295.3289903366805,333.3704256130744,287.8373451461788,293.32608023778954,295.3283040738967,334.3715836081091,296.32934427270544,296.32940130424436,295.3281896557594,295.32873927842576,290.32361988751,292.3248152539985,297.3304701985785,294.327066765119,293.3262809107944,293.32624309828714,291.32428423675356,295.3281531754907,288.8579227057608,290.32264394593506,296.3294537185809,296.32941845982185,286.7710156612659,291.32392401139157,293.32612429060526,295.32834355521015,296.32942852758805,292.3251848925778,293.3260787970806,295.32818136452147,296.3293902425676,294.32703825372306,288.8742140120063,293.327026284842,293.32632959711196,292.32490768082613,295.3282446460612,295.3284166013519,291.8094936071914,292.32497201714875,294.327204321595,295.3292931347943,294.5020238880117,293.3266909681818,294.48153155343897,295.32857512142203,292.7821577390695,295.32832211876473,296.32937726761037,296.32953437298096,294.3271672518999,292.3248092854056,293.32678174742574,333.3704328201678,292.32505565998457,295.32821239142044,293.32653064401586,290.85793343739147,290.3231807992547,296.32977529727856,294.32740317334833,292.32484584007653,294.3279494727901,291.3238112947714,294.3272887186634,293.32658064215946,293.32595421157873,293.32666150391447,296.33021444676086,292.3250687600367,296.3295815431525,293.3261539993946,295.328249380019,293.32595920282483,293.3259307344335,299.33313198696754,295.3287688207111,295.3284072860304,295.32821080194924,292.7557608523397,296.3300744902441,334.37153341275604,292.32480693136563,296.3307709919894,296.3292918270132,295.32911854585376,293.32633988790326,292.3249256991745,292.32481036811583,295.3282001047711,296.3292905357408,294.32814985027466,294.3272588204803,286.31817446415903,289.3214850915162,289.32175237298503,293.3259921959815,290.32265843858914,293.32642495484805,334.37156123605894,292.32484030816414,296.32949961944354,293.32609940676105,291.3241860019329,296.3301031656786,294.3277275597573,299.33287607046645,294.45622321383655,295.32825690173155,294.3274405536226,291.3240956972665,292.3249764369474,293.32599276864147,294.32711405305406,291.32374074179063,294.3283995071901,294.32708921065375,292.32487218498727,293.3265522243443,295.3285564634483,291.32390832496503,296.329392301869,294.3280337354885,294.3273285550239,291.32380891715644,290.3226257122279,292.324890681874,292.3250716208213,297.33042924108884,292.32493724565126,334.3718263155778,287.31926678638814,292.3248066691867,295.32903698866295,291.3237068046336,291.32414142355213,293.3261438429925,294.327273035309,296.32927670119614,292.3254682743062,292.3250809368574,293.6250405382603,292.3249940767349,294.327155788965,294.3271951153767,292.3248709957133,295.3284119929474,294.3271456739191,295.32824703988956,293.32602755005337,294.3273248791184,291.3237071646035,291.3236975818308,296.3297659325271,291.323935695515,291.3243006912609,290.32276544797617,289.32153374957767,292.3249094201047,294.32739878236305,286.7865377276823,294.3272489062624,292.3249982179736,333.3708426403709,292.3248968983365,333.3706277603186,333.3706335785524,332.3693674510333,293.3260314248969,294.32706164685317,296.3295548714732,334.3722336784176,332.3693252425387,293.53722664612025,331.3682581546067,333.37131289680104,333.37043383407246,333.37044597582036,335.3728946269892,295.3281843418822,292.3248091772066,335.3727044871229,331.3683994609754,333.37044363695867,333.3708116677279,334.3715366348487,336.3741979173148,332.36930083069683,334.37164434904105,333.37054191391553,333.3704449298341,332.36952479034846,333.37046018405044,294.3271841748126,333.37043376161716,294.32704744325554,336.3738676252976,291.323795995965,334.3716352323438,294.3270470760604,332.36932461430337,294.32707511785617,333.3705488442972,335.3728281587018,335.37296679310606,293.3259906485014,333.37078412517906,335.3727640262576,333.3704933432176,334.3716380013384,334.37164620201344,294.3270758043882,333.37046351656454,295.32831513994864,334.3718099908204,334.3716139826224,296.32971731231896,333.3704283560084,334.3721972574109,294.32706120581287,334.3721388582925,292.7433823820461,292.3249329742736,335.3727045636554,332.3693074775274,334.3716250688442,334.3718438125024,294.32709562204224,334.37152758919535,336.3738579021135,332.3693510723832,334.37160454135864,294.3271926845144,292.32483569252196,334.37177619843567,334.3717812307298,333.3705567765614,334.3715709446633,293.3265350576576,293.3262900098041,333.37043849162825,293.3259395086622,333.37052793619074,333.37094494924133,334.3719188384962,296.329615864158,333.37052006291697,334.37192471132425,294.32706914068876,335.3727223780217,332.36933033560604,336.37413135332093,336.3740446356222,291.323782833165,334.37177103726737,292.32512697315497,334.3720095492158,296.32938126289764,292.32505600690376,290.32272429566643,294.3270412406514,294.32703113593885,289.85407766058825,294.3272641028684,331.36822016934974,293.32606650516755,293.3265912100445,292.3248847687037,293.32593233137953,296.3294233197791,333.37066866897226,290.32270232896354,334.371604096446,334.37202874214546,294.32736798930097,292.325367318931,291.3237149342936,295.3283087270158,288.9248716034512,287.9038990731501,334.3715558277348,293.326105818524,332.36950027283746,332.36955466612886,302.3360259282414,332.36944881069763,295.3287670999214,295.3284284496252,289.8854122392144,294.32758560654685,333.3705169956474,292.32482187771984,294.3271897689585,295.3284299142034,335.37272003743715,293.3262224038891,295.32835378749724,295.3283195406125,293.32624660288855,333.37048244638135,292.3248671418209,294.3271522890733,333.3706983671103,294.327096060235,334.37171456817543,293.3264852719057,332.36988713922597,290.87874881333414,334.3719152249139,294.327060661764,332.3695693923229,293.3259441358931,332.3693604361259,290.3231663339958,293.3259898607305,288.88365321685757,294.32703842183685,292.32514291715194,293.32658414116514,295.32834271585676,298.3316341910835,290.3226583488349,294.327046541043,294.32723162369876,292.32486457916406,288.85336335483197,334.3718158312078,333.37078776386005,290.87753062551224,295.32829049429955,332.36938726703653,332.3693135266911,296.33031902779953,335.37271883094417,334.3715535725334,293.32615010712345,293.3260282118252,294.32725885449645,332.36938971562046,295.3282070784421,333.37048188704324,297.33040353433,333.3704521222346,334.3717244186149,333.37062306399395,334.37172821005987,288.3203642889518,295.32845475015955,333.3709599319473,334.3717002332087,334.37163444928876,333.37130239332777,332.36938976726844,292.32551490634813,333.3706375550005,294.3272704209448,295.32847384552736,333.37051245100514,294.3270317782288,332.36930374718605
2,-0.012933463543022742,-0.006637360980050166,-0.007489966961500564,-0.015285810147736601,-0.0060795475393999815,-0.012419034442752759,-0.04439360096134321,-0.01944258993058855,-0.007248376700742,-0.010622958461889315,-0.0057019139784209,-0.011060969339037567,-0.013422702470669472,-0.011625614871240707,-0.012364546384525195,-0.012809320273704449,-0.015409267876605594,-0.008387805109747865,-0.008884743956209128,-0.003951676876924902,-0.011965227596142857,-0.00527068675236742,-0.014308316725251038,-0.005129856512266312,-0.01207324076063281,-0.011167357280917146,-0.0066303234273513674,-0.013584800099891088,-0.008531300424278498,-0.01250680522139637,-0.01148398311288973,-0.011902847910852802,-0.009305518289151424,-0.007765557487341207,-0.014786598359736586,-0.01300756285648783,-0.009073236890496906,-0.006424273695856614,-0.01267365767696421,-0.014118902434723364,-0.012670735870182963,-0.011415082362474875,-0.01014288007793385,-0.0025984639093011527,-0.007002901248683397,-0.013983218906105441,-0.013369811898486276,-0.01260550510191559,-0.011728545584905286,-0.008276215058950166,-0.0068278386062910505,-0.01498204956019611,-0.015436436521474474,-0.017097492958994865,-0.010926554776457962,-0.007500524534139555,-0.014198641885303155,-0.010172880031132828,-0.011268101501185233,-0.006446895287226699,-0.0062694095149761365,-0.014856623891554507,-0.014156657083134584,-0.004038707954707191,-0.007991209271128966,-0.009879760934840706,-0.0045546809307883615,-0.010157417663923007,-0.0031840528629614624,-0.009127445531563512,-0.045380151394998285,-0.014482785565281828,-0.0041310126631208845,-0.012702290498357222,-0.0136732411553252,-0.009638057508013954,-0.014672064839239907,-0.010203080822673799,-0.008932008775123835,-0.01079900355842601,-0.008833106036062454,-0.01217449548272257,-0.010066721754615935,-0.007849045891277237,-0.010901379228889665,-0.011240167969847316,-0.01162168127681969,-0.0048756945503652185,-0.01110669519729164,-0.01374846951175359,-0.011680640935229702,-0.004083048558805043,-0.008767111641356436,-0.026802341837899986,-0.013815017315387345,-0.007453862455681703,-0.011176705412217939,-0.011889288089959529,-0.009289989769620961,-0.007274914128744255,-0.014546860457153784,-0.01323612799452551,-0.012901550262128608,-0.01350844664782203,-0.007677126069961011,-0.007057991242165992,-0.0035870941147214527,-0.013069278690002043,-0.009865868548551477,-0.00878995043742532,-0.009821446670898867,-0.012458329054567625,-0.012243845431688329,-0.008958096890484898,-0.009525768885303862,-0.006869236786704485,-0.018499318658945874,-0.010773261030619848,-0.01464340989972088,-0.011149028605206501,-0.007132164820570813,-0.013894254657838875,-0.009421964462103723,-0.014084053125191193,-0.009204016773268,-0.009813916530474687,-0.023086910382492578,-0.0092285080557853,-0.011352484225989948,-0.013598359016826194,-0.009450206826223129,-0.007008644642345574,-0.004963891622937763,-0.01191191663410806,-0.015631602374763166,-0.007591417904177713,-0.007253568060094209,-0.0077855900574362496,-0.005972783953958423,-0.007792772091072675,-0.01411193622783566,-0.011550281990956592,-0.010494300468682362,-0.008523362389599703,-0.01009191104992541,-0.012572874213765803,-0.010219271609210823,-0.01360613091996822,-0.0048836519587578085,-0.009845655101964954,-0.016128214413783044,-0.014442970247358142,-0.009911054617021506,-0.013297864938497442,-0.011996722986761504,-0.007482254686894374,-0.011707567407592153,-0.019484451375512513,-0.016148101165059582,-0.010080537587478802,-0.010127215835244419,-0.009056143292698412,-0.008881183134939255,-0.01234284410161005,-0.01052730864235496,-0.011177853017498143,-0.011069468339600277,-0.0070941368051458675,-0.01540728717604948,-0.01092329142645222,-0.03294027438394719,-0.010236759068778023,-0.010025802093679063,-0.006300743721556568,-0.009941014108476046,-0.015458826375216273,-0.011553695218568647,-0.0075660590404543464,-0.01072828559535156,-0.011090414516639661,-0.008554852953686392,-0.01030098226624696,-0.003723898077289777,-0.009910147818219502,-0.013005861213551044,-0.009765052972975342,-0.0131427016997548,-0.008716048441390315,-0.005269656075743643,-0.006467170667098772,-0.008627950973266388,-0.00981564040982128,-0.01454894315504073,-0.007330705298680619,-0.009471305977938932,-0.00956974072956942,-0.01320741719124843,-0.01495957686747678,-0.013766688618639606,-0.0196749905335901,-0.012479946366044567,-0.009567001517607521,-0.013022889718795541,-0.007298244168967084,-0.009072604292749751,-0.012660956126108127,-0.010380305649657065,-0.007691873795182952,-0.012443698281530082,-0.02046646602483126,-0.014812159779516205,-0.01464926426883673,-0.014678387114441025,-0.013031166926986566,-0.01638406697056088,-0.013959476347614293,-0.010067116869951579,-0.013596780203680155,-0.009024517205248486,-0.01404601440826169,-0.011271418915135336,-0.007544509102075582,-0.012953960068879757,-0.02014342034262623,-0.010163909232757033,-0.010964383739654283,-0.01481958658399766,-0.013135670907816312,-0.010383358438024556,-0.009213219605809059,-0.007239893402268404,-0.007698896015759371,-0.014133235418185482,-0.01248594567558313,-0.010006745977974699,-0.009675591611324173,-0.012246771330377836,-0.01252348208675755,-0.011621326514436385,-0.014594402670286194,-0.022870524995472152,-0.006893829663755233,-0.013143895277219368,-0.007069348800276304,-0.010992321197568074,-0.01448010181416435,-0.016924793815695907,-0.01508114968981708,-0.010437335804127245,-0.007038330772908194,-0.009406404420573163,-0.009900764541140179,-0.012756366437192631,-0.010247894800683385,-0.010321160996716188,-0.013662865521153459,-0.012389668387035679,-0.010711415036253316,-0.012587931311712866,-0.01440363214408429,-0.009604590025642245,-0.01419463840010237,-0.014900438739206512,-0.012416384877782962,-0.012074813830578467,-0.019459065969708377,-0.010602063710245989,-0.010440583766293183,-0.007760181551212593,-0.009577229617011464,-0.0038149307638858116,-0.006498052163283193,-0.013340763285101793,-0.00923029003706741,-0.007983005444278853,-0.03174970618612872,-0.013272700132520214,-0.01257099171394601,-0.009413389718475837,-0.02370187060005028,-0.003836877976310508,-0.008894802763746594,-0.028844632223334152,-0.01976891206638568,-0.02016183448481892,-0.018924824708997926,-0.012912372047501418,-0.007539836621938014,-0.007994186851122166,-0.011536024127518177,-0.005237056695859849,-0.012235563622975466,-0.007974397754214891,-0.00796669979268125,-0.007988871876338814,-0.014774487722560625,-0.012306849543668796,-0.009221545149654353,-0.007961341143302209,-0.013948136530989298,-0.012981126292759358,-0.013622742860471087,-0.011129390746505033,-0.014429671319391563,-0.00924903592889345,-0.01356063966794286,-0.02857471795746086,-0.011909150825017669,-0.012953678125000902,-0.0038176829344591097,-0.014913401405175561,-0.010253261591345193,-0.008175491226537107,-0.024284130741833852,-0.024471018589200002,-0.015539971810815723,-0.024183708052067262,-0.01185656404560244,-0.013588179302250567,-0.021624503854316978,-0.022519647742974797,-0.008304848923217496,-0.010948913825631998,-0.010937847370621414,-0.008435436791412518,-0.007551635130222771,-0.009148297908859905,-0.020126878726751715,-0.02065978922558099,-0.012786859781504765,-0.015058673821394981,-0.024372758808968456,-0.010799268830689532,-0.01401733780985546,-0.009647885616472444,-0.010857277024209192,-0.012989213661947007,-0.012915928045403598,-0.032129042004347685,-0.009237287321888657,-0.011830652127129304,-0.008032428342002457,-0.024365985040920426,-0.023003911719914533,-0.015160235560622752,-0.009945727747313622,-0.007219666097779898,-0.008678353433170624,-0.011023332421659721,-0.02672005194743244,-0.013847738120229902,-0.007939058928008754,-0.00835701943155325,-0.009356086920444562,-0.0082170226729434,-0.02868366170813435,-0.012122182139940025,-0.013146950104470347,-0.024627540737433742,-0.00845917613496067,-0.02348511062850143,-0.013445880960190802,-0.01086148917585877,-0.012537471130398716,-0.011415833762574242,-0.008118427839234093,-0.00812252405531557,-0.023665710930848557,-0.012045029044483672,-0.036001249027674535,-0.01556299392629222,-0.012819397304843752,-0.021158172437310985,-0.014294274665801998,-0.022659961568310752,-0.012272088092715351,-0.007529490368940372,-0.014157373394392587,-0.011192094424793691,-0.009014848379744693,-0.007723977654994173,-0.01461741153717296,-0.025974168229736957,-0.012526016124481454,-0.011163913276585362,-0.008077005910178932,-0.014896671631115677,-0.03151334703038097,-0.007724774425954303,-0.02010672737956058,-0.01572250284339224,-0.022913068555533597,-0.025353051922101143,-0.007992454335910651,-0.008874605083845997,-0.007560715432676377,-0.0028606942730657085,-0.008714947541986722,-0.011546924115274375,-0.024283329554027684,-0.06282257611763578,-0.011239007422534085,-0.013015428283522685,-0.008139716482265686,-0.013069546904744857,-0.011717558977781624,-0.007838933004090904,-0.01135168598276465,-0.008421799836041586,-0.024616216021652478,-0.01174024877530526,-0.008335951211094567,-0.015807033561650304,-0.00812759539549312,-0.007906669601067853,-0.012733480141885693,-0.00729149119896802,-0.02093205065690178,-0.015567757040802262,-0.024064080572810988,-0.011950797119698245,-0.012279351158250422,-0.010415509676355832,-0.012769791057964079,-0.03715125894032643,-0.010319641166133342,-0.013201459128958015,-0.014934602296318544,-0.0106204112211788,-0.023704371216976987,-0.015329525032088176,-0.012362969405644858,-0.014718907533269831,-0.011838951606568752,-0.029151704367835343,-0.011940239654230547,-0.021439781377729193,-0.013776644858270955,-0.01492088621845156,-0.009611488529054383,-0.013341497632087022,-0.03674253271010569,-0.013308797947353675,-0.02308081097557026,-0.031510188511535246,-0.008611091035652264,-0.013613881279647638,-0.01570348472696517,-0.04509253657911539,-0.015458659816778172,-0.013789628473213038,-0.020682008913064348,-0.0108326915375039,-0.010169225767924608,-0.011850098098480644,-0.00875843498992013,-0.0108980623979852,-0.014318121850505931,-0.0116326710860191,-0.008014526907212627,-0.012420740725322682,-0.010930819839468694,-0.008630035433349876,-0.012936153804755282,-0.012177034094957882,-0.03541759938514202,-0.027723943979943624,-0.014819362600057307,-0.03889091143881213,-0.01332746375658932,-0.020773852347493602,-0.0160486470056961,-0.016246215603243828,-0.01242927522384896,-0.04763304222463069,-0.04720773402683787,-0.03473433071729883,-0.015186803007783254,-0.013315654988818624,-0.02555457424127232,-0.012639543416634471,-0.012927920248030973,-0.011371259967966648,-0.01560980380580138,-0.03829876531632112,-0.013595121386566452,-0.01538667300912629,-0.014001374624632879,-0.0073308351254090754,-0.00884282107494534,-0.016405242599295662,-0.01610832868258711,-0.024176734684999354,-0.01323365448681,-0.016024245918249067,-0.013328215772673182,-0.007146646947548119,-0.014754332320122682,-0.01231750189612316,-0.015453737186985807,-0.02913245031364482,-0.037371278213421955,-0.01492007314311501,-0.010317220623283269,-0.014107377707407717,-0.01647048166177068,-0.030851083820829968,-0.048792676780677134,-0.010916615111516259,-0.029426093513808912,-0.012328592808534754,-0.008321772163723016,-0.027179514932429337,-0.01248745050199814,-0.013589741318653198,-0.009015342156705667,-0.00950995295785773,-0.012706996682237714,-0.019469785063022625,-0.01268046194816594,-0.037371049069743624,-0.014780409140713966,-0.02052790391886565,-0.009761907985212441,-0.00988856077359677,-0.022188156074927624,-0.025405844769252037,-0.011867635368030758,-0.038451672515945244,-0.01196250410469019,-0.014420680622922906,-0.00972998558008888,-0.034994141067182225,-0.01622308324132085,-0.011875713958688265,-0.008413437805499717,-0.008856933963686659,-0.01228683265048973,-0.015323546684709626,-0.009780354364830043,-0.017147412307843612,-0.013888494308889096,-0.009684845008888282,-0.014617622077465088,-0.015243315001936793,-0.012385529158452147,-0.011928095209728252,-0.02111055269352605,-0.030736641769263984,-0.017169934742356546,-0.011719266752247097,-0.014304394885894477,-0.0531983492013465,-0.01645123618292152,-0.01567384675232282,-0.01577035542096739,-0.013075580461440453,-0.0115540385086764,-0.01607003408347757,-0.012555651748048782,-0.014126416218461967,-0.023465552095032347,-0.027485105539165264,-0.016173235347737572,-0.01063196361578956,-0.01620709888407504,-0.013406364015033916,-0.010856755356237455,-0.01714074022096094,-0.011308288316508661,-0.015438602837385193,-0.015057366870914286,-0.012751720390979618,-0.015014411953704378,-0.012314353540897736,-0.01515854198290899,-0.014632669895705157,-0.013946826910587722,-0.011797302658421868,-0.011364192505476111,-0.014803382707764018,-0.02870380065663477,-0.015277995128154582,-0.009208201059544958,-0.016351429291612377,-0.011955945044480635,-0.01557485223214204,-0.019016641040048562,-0.01702947775617148,-0.01249977160761284,-0.014577788176429282,-0.01610218298486674,-0.015050554440327855,-0.016892263309923536,-0.014952327076301493,-0.013449549609850916,-0.010280008001457418,-0.01527889264274103,-0.014693382788296195,-0.01582344274716043,-0.015672132526350253,-0.013181696042815175,-0.012455904765506193,-0.022506387037274696,-0.028467518133317098,-0.014055915734294724,-0.013857228853434116,-0.013700258210110389,-0.013264951046791654,-0.01667479840089977,-0.014810827436359697,-0.008243914184121813,-0.0169033339843311,-0.012954594714393483,-0.0135543521930621,-0.013565461453493502,-0.011851925632307534,-0.00793884304152955,-0.010748957755064629,-0.014028372298651838,-0.01493596849385557,-0.014216283629236747,-0.010155366537227461,-0.09305694135416481,-0.046825896284490014,-0.018178567491949568,-0.03267397146783853,-0.01260662077239192,-0.01588061343517118,-0.008473651644205018,-0.012222128060134462,-0.008885862706377506,-0.016464608347342723,-0.015375761624917626,-0.014315309602065614,-0.009699868312046047,-0.0069532142209484645,-0.011953273928699198,-0.014623979140013654,-0.015537066287563933,-0.012400262475783767,-0.014826031719859693,-0.0111630858237541,-0.028686611696314566,-0.012634224675382473,-0.013093776788265347,-0.009937781295293305,-0.016138457059180312,-0.015049147949760967,-0.015456595710431256,-0.01592250655982209,-0.010148605052125727,-0.013690122946906169,-0.016290189671091422,-0.012593634583537664,-0.01343618619952413,-0.01966660175379006,-0.014724058807915006,-0.010195375936284865,-0.01719532229557066,-0.008608735064794567,-0.09164868454047675,-0.008047742292538842,-0.010236961085006525,-0.013007630636541125,-0.012510911136973508,-0.015460799768046813,-0.015183231109511667,-0.03483793959706432,-0.014133073845923515,-0.013316698378893826,-0.013646638226062553,-0.01229347964672746,-0.011659933668759167,-0.015033957988771503,-0.011826322386016238,-0.015427021909817502,-0.010401104322680656,-0.005538430807838635,-0.014678890557968925,-0.01665318793530565,-0.00823358396470611,-0.012990806567804455,-0.010965814521325466,-0.015078129391127263,-0.01594012104447507,-0.013577780434942142,-0.01853562601870476,-0.012413988835037578,-0.01635066681084831,-0.04879347136052932,-0.016388867880016367,-0.015397736031603089,-0.009727187807103486,-0.01508057243240255,-0.009052827369790977,-0.009640423117043016,-0.00985470591266247,-0.02236692126853186,-0.026372041498652795,-0.011696270537833878,-0.009812464647115292,-0.011135999203834184,-0.013260174910536124,-0.01240820601371228,-0.009510861945068321,-0.009130642449639067,-0.008947650929368911,-0.006967691027446767,-0.023030540568043077,-0.023552607337938465,-0.006793054761288241,-0.013614104607245723,-0.009318073738469523,-0.00919580893599976,-0.008051573169279682,-0.006465526864456979,-0.011573585523048631,-0.0078748163442928,-0.009285709465831625,-0.00909401091983201,-0.011223450280734178,-0.00924428973252522,-0.03206179484430667,-0.009413894873732573,-0.02338609900269604,-0.006964686870996622,-0.023349940622373538,-0.008232191550554288,-0.02478206840730694,-0.011433442901258068,-0.02423288601413783,-0.009105449147314766,-0.0073395182158452876,-0.006985880547813351,-0.02496811875307773,-0.00927560626966663,-0.0069153360863427596,-0.009131757538166035,-0.007834514063107749,-0.008005755988874819,-0.025416616045036776,-0.00969723165457281,-0.013944275907740819,-0.007214150895235565,-0.008929993695779594,-0.009107493423561113,-0.009190644538121224,-0.009632639024665237,-0.014298503096908072,-0.008247416502573775,-0.014696781387499488,-0.021276385087045158,-0.007532161066658774,-0.01049165660132414,-0.00872585835748845,-0.008642936884268329,-0.022755625922364152,-0.008861594361516489,-0.0070942011167943525,-0.010510039103385861,-0.007727990731573327,-0.025777263584569502,-0.01478877558986982,-0.007997995897713155,-0.010111111706720159,-0.009142529178398848,-0.008066773690254882,-0.015290000307055863,-0.014881016504587159,-0.009778794734137782,-0.026942372415481263,-0.010123841612961341,-0.009423270204172022,-0.007956266262469995,-0.013308102249191565,-0.009907241070887298,-0.008805924588955336,-0.023389336544258427,-0.007014818316450649,-0.010341738527304006,-0.00646125694501886,-0.0064196467941679556,-0.015276020247428858,-0.00800102514227115,-0.014856175497990074,-0.009009024636565832,-0.014377744063402585,-0.015530037508988792,-0.016790626187143325,-0.02563650685464901,-0.025411952054232512,-0.02297407686578934,-0.014602144940905979,-0.013718373499505417,-0.015500291229060806,-0.013470180546433752,-0.022325542201701316,-0.022710374918579558,-0.012542734796184531,-0.009504721581446506,-0.0157413336445036,-0.009022503677313146,-0.008204511199972831,-0.011086534405038182,-0.01533540027131077,-0.029569988030897876,-0.014439962766639268,-0.02728813995716098,-0.03055218746096238,-0.008134185006280976,-0.014984698680141495,-0.010886262102387818,-0.010917818034326109,-0.0025944981339825167,-0.010715117765685924,-0.013446961642575786,-0.014305343037934123,-0.02458444779711969,-0.013632265282235172,-0.008937012127633462,-0.005995906179977439,-0.02693354576137638,-0.014617761999632264,-0.0074860506971682166,-0.014939532718797343,-0.014804332451665084,-0.013198510052311128,-0.015013565371167327,-0.009400349165083952,-0.02236004830217244,-0.014243503689207807,-0.009000163298623416,-0.03434525242402126,-0.008183469625881283,-0.014655745271569834,-0.011275656697366647,-0.020998185480470475,-0.009031323158624451,-0.027002765319014868,-0.010916859621375764,-0.025249234500193715,-0.011045708458149584,-0.016801001048291797,-0.01528266252427298,-0.026731469957184548,-0.024217985431433543,-0.014599488400815217,-0.014466079023388922,-0.007677570893925963,-0.03457366155181884,-0.01452250813198609,-0.0240887578995575,-0.01170575281385751,-0.015270010429073232,-0.027164126460106297,-0.008400571726446702,-0.009222417828047107,-0.01859345218579886,-0.012753784869555713,-0.011059231301578331,-0.01103278811172951,-0.014514760837507065,-0.007421365544355173,-0.008496015999966858,-0.01261127190753345,-0.03488660927930707,-0.015989558275894385,-0.010959801990974514,-0.013583732950803713,-0.009309262858405675,-0.013830772756125166,-0.009264249926419891,-0.008445325338338692,-0.009657238826537644,-0.008211335330823551,-0.01814854128814466,-0.013968151743497206,-0.009704074880171974,-0.008444246078748736,-0.007893932524274321,-0.009877210289816843,-0.011384299736304098,-0.010583241525529577,-0.010279682419177804,-0.02552261871828676,-0.014259446741388855,-0.00946658122647815,-0.015245362190646329,-0.01150160380231047
3,-13164169.376182798,-13164169.3761828,-13164169.3761828,-13164169.3761828,-13164169.3761828,-13164169.3761828,-13164169.376182802,-13164169.376182802,-13164169.376182802,-13164169.376182802,-13164169.376182802,-13164169.376182804,-13164169.376182804,-13164169.376182804,-13164169.376182804,-13164169.376182804,-13164169.376182806,-13164169.376182806,-13164169.376182806,-13164169.376182806,-13164169.376182808,-13164169.376182808,-13164169.376182808,-13164169.376182808,-13164169.376182808,-13164169.37618281,-13164169.37618281,-13164169.37618281,-13164169.37618281,-13164169.37618281,-13164169.376182811,-13164169.376182811,-13164169.376182811,-13164169.376182811,-13164169.376182811,-13164169.376182813,-13164169.376182813,-13164169.376182813,-13164169.376182813,-13164169.376182815,-13164169.376182815,-13164169.376182815,-13164169.376182815,-13164169.376182815,-13164169.376182817,-13164169.376182817,-13164169.376182817,-13164169.376182817,-13164169.376182817,-13164169.376182819,-13164169.376182819,-13164169.376182819,-13164169.376182819,-13164169.376182819,-13164169.37618282,-13164169.37618282,-13164169.37618282,-13164169.37618282,-13164169.37618282,-13164169.376182823,-13164169.376182823,-13164169.376182823,-13164169.376182823,-13164169.376182824,-13164169.376182824,-13164169.376182824,-13164169.376182824,-13164169.376182824,-13164169.376182826,-13164169.376182826,-13164169.376182826,-13164169.376182826,-13164169.376182826,-13164169.376182828,-13164169.376182828,-13164169.376182828,-13164169.376182828,-13164169.376182828,-13164169.37618283,-13164169.37618283,-13164169.37618283,-13164169.37618283,-13164169.376182832,-13164169.376182832,-13164169.376182832,-13164169.376182832,-13164169.376182832,-13164169.376182834,-13164169.376182834,-13164169.376182834,-13164169.376182834,-13164169.376182834,-13164169.376182836,-13164169.376182836,-13164169.376182836,-13164169.376182836,-13164169.376182836,-13164169.376182837,-13164169.376182837,-13164169.376182837,-13164169.376182837,-13164169.376182837,-13164169.37618284,-13164169.37618284,-13164169.37618284,-13164169.37618284,-13164169.376182841,-13164169.376182841,-13164169.376182841,-13164169.376182841,-13164169.376182841,-13164169.376182843,-13164169.376182843,-13164169.376182843,-13164169.376182843,-13164169.376182843,-13164169.376182845,-13164169.376182845,-13164169.376182845,-13164169.376182845,-13164169.376182845,-13164169.376182847,-13164169.376182847,-13164169.376182847,-13164169.376182847,-13164169.376182847,-13164169.376182849,-13164169.376182849,-13164169.376182849,-13164169.376182849,-13164169.37618285,-13164169.37618285,-13164169.37618285,-13164169.37618285,-13164169.37618285,-13164169.376182852,-13164169.376182852,-13164169.376182852,-13164169.376182852,-13164169.376182852,-13164169.376182854,-13164169.376182854,-13164169.376182854,-13164169.376182854,-13164169.376182854,-13164169.376182856,-13164169.376182856,-13164169.376182856,-13164169.376182856,-13164169.376182856,-13164169.376182858,-13164169.376182858,-13164169.376182858,-13164169.376182858,-13164169.37618286,-13164169.37618286,-13164169.37618286,-13164169.37618286,-13164169.37618286,-13164169.376182862,-13164169.376182862,-13164169.376182862,-13164169.376182862,-13164169.376182862,-13164169.376182863,-13164169.376182863,-13164169.376182863,-13164169.376182863,-13164169.376182863,-13164169.376182865,-13164169.376182865,-13164169.376182865,-13164169.376182865,-13164169.376182865,-13164169.376182867,-13164169.376182867,-13164169.376182867,-13164169.376182867,-13164169.37618287,-13164169.37618287,-13164169.37618287,-13164169.37618287,-13164169.37618287,-13164169.376182871,-13164169.376182871,-13164169.376182871,-13164169.376182871,-13164169.376182871,-13164169.376182873,-13164169.376182873,-13164169.376182873,-13164169.376182873,-13164169.376182873,-13164169.376182875,-13164169.376182875,-13164169.376182875,-13164169.376182875,-13164169.376182875,-13164169.376182877,-13164169.376182877,-13164169.376182877,-13164169.376182877,-13164169.376182877,-13164169.376182878,-13164169.376182878,-13164169.376182878,-13164169.376182878,-13164169.376182878,-13164169.37618288,-13164169.37618288,-13164169.37618288,-13164169.37618288,-13164169.376182882,-13164169.376182882,-13164169.376182882,-13164169.376182882,-13164169.376182882,-13164169.376182884,-13164169.376182884,-13164169.376182884,-13164169.376182884,-13164169.376182884,-13164169.376182886,-13164169.376182886,-13164169.376182886,-13164169.376182886,-13164169.376182886,-13164169.376182888,-13164169.376182888,-13164169.376182888,-13164169.376182888,-13164169.376182888,-13164169.37618289,-13164169.37618289,-13164169.37618289,-13164169.37618289,-13164169.37618289,-13164169.376182891,-13164169.376182891,-13164169.376182891,-13164169.376182891,-13164169.376182893,-13164169.376182893,-13164169.376182893,-13164169.376182893,-13164169.376182893,-13164169.376182895,-13164169.376182895,-13164169.376182895,-13164169.376182895,-13164169.376182895,-13164169.376182897,-13164169.376182897,-13164169.376182897,-13164169.376182897,-13164169.376182897,-13164169.376182899,-13164169.376182899,-13164169.376182899,-13164169.376182899,-13164169.376182899,-13164169.3761829,-13164169.3761829,-13164169.3761829,-13164169.3761829,-13164169.3761829,-13164169.376182903,-13164169.376182903,-13164169.376182903,-13164169.376182903,-13164169.376182903,-13164169.376182904,-13164169.376182904,-13164169.376182904,-13164169.376182904,-13164169.376182904,-13164169.376182906,-13164169.376182906,-13164169.376182906,-13164169.376182906,-13164169.376182908,-13164169.376182908,-13164169.376182908,-13164169.376182908,-13164169.376182908,-13164169.37618291,-13164169.37618291,-13164169.37618291,-13164169.37618291,-13164169.37618291,-13164169.376182912,-13164169.376182912,-13164169.376182912,-13164169.376182912,-13164169.376182912,-13164169.376182914,-13164169.376182914,-13164169.376182914,-13164169.376182914,-13164169.376182914,-13164169.376182916,-13164169.376182916,-13164169.376182916,-13164169.376182916,-13164169.376182916,-13164169.376182918,-13164169.376182918,-13164169.376182918,-13164169.376182918,-13164169.376182918,-13164169.37618292,-13164169.37618292,-13164169.37618292,-13164169.37618292,-13164169.37618292,-13164169.376182921,-13164169.376182921,-13164169.376182921,-13164169.376182921,-13164169.376182921,-13164169.376182923,-13164169.376182923,-13164169.376182923,-13164169.376182923,-13164169.376182923,-13164169.376182925,-13164169.376182925,-13164169.376182925,-13164169.376182925,-13164169.376182927,-13164169.376182927,-13164169.376182927,-13164169.376182927,-13164169.376182927,-13164169.376182929,-13164169.376182929,-13164169.376182929,-13164169.376182929,-13164169.376182929,-13164169.37618293,-13164169.37618293,-13164169.37618293,-13164169.37618293,-13164169.37618293,-13164169.376182932,-13164169.376182932,-13164169.376182932,-13164169.376182932,-13164169.376182932,-13164169.376182934,-13164169.376182934,-13164169.376182934,-13164169.376182934,-13164169.376182934,-13164169.376182936,-13164169.376182936,-13164169.376182936,-13164169.376182936,-13164169.376182936,-13164169.376182938,-13164169.376182938,-13164169.376182938,-13164169.376182938,-13164169.376182938,-13164169.37618294,-13164169.37618294,-13164169.37618294,-13164169.37618294,-13164169.37618294,-13164169.376182942,-13164169.376182942,-13164169.376182942,-13164169.376182942,-13164169.376182942,-13164169.376182944,-13164169.376182944,-13164169.376182944,-13164169.376182944,-13164169.376182944,-13164169.376182945,-13164169.376182945,-13164169.376182945,-13164169.376182945,-13164169.376182945,-13164169.376182947,-13164169.376182947,-13164169.376182947,-13164169.376182947,-13164169.37618295,-13164169.37618295,-13164169.37618295,-13164169.37618295,-13164169.37618295,-13164169.376182951,-13164169.376182951,-13164169.376182951,-13164169.376182951,-13164169.376182951,-13164169.376182953,-13164169.376182953,-13164169.376182953,-13164169.376182953,-13164169.376182953,-13164169.376182955,-13164169.376182955,-13164169.376182955,-13164169.376182955,-13164169.376182955,-13164169.376182957,-13164169.376182957,-13164169.376182957,-13164169.376182957,-13164169.376182957,-13164169.376182958,-13164169.376182958,-13164169.376182958,-13164169.376182958,-13164169.376182958,-13164169.37618296,-13164169.37618296,-13164169.37618296,-13164169.37618296,-13164169.37618296,-13164169.376182962,-13164169.376182962,-13164169.376182962,-13164169.376182962,-13164169.376182962,-13164169.376182964,-13164169.376182964,-13164169.376182964,-13164169.376182964,-13164169.376182964,-13164169.376182966,-13164169.376182966,-13164169.376182966,-13164169.376182966,-13164169.376182966,-13164169.376182968,-13164169.376182968,-13164169.376182968,-13164169.376182968,-13164169.376182968,-13164169.37618297,-13164169.37618297,-13164169.37618297,-13164169.37618297,-13164169.37618297,-13164169.376182972,-13164169.376182972,-13164169.376182972,-13164169.376182972,-13164169.376182972,-13164169.376182973,-13164169.376182973,-13164169.376182973,-13164169.376182973,-13164169.376182973,-13164169.376182975,-13164169.376182975,-13164169.376182975,-13164169.376182975,-13164169.376182975,-13164169.376182977,-13164169.376182977,-13164169.376182977,-13164169.376182977,-13164169.376182977,-13164169.376182979,-13164169.376182979,-13164169.376182979,-13164169.376182979,-13164169.376182979,-13164169.37618298,-13164169.37618298,-13164169.37618298,-13164169.37618298,-13164169.37618298,-13164169.376182983,-13164169.376182983,-13164169.376182983,-13164169.376182983,-13164169.376182983,-13164169.376182985,-13164169.376182985,-13164169.376182985,-13164169.376182985,-13164169.376182985,-13164169.376182986,-13164169.376182986,-13164169.376182986,-13164169.376182986,-13164169.376182986,-13164169.376182988,-13164169.376182988,-13164169.376182988,-13164169.376182988,-13164169.376182988,-13164169.37618299,-13164169.37618299,-13164169.37618299,-13164169.37618299,-13164169.37618299,-13164169.376182992,-13164169.376182992,-13164169.376182992,-13164169.376182992,-13164169.376182992,-13164169.376182994,-13164169.376182994,-13164169.376182994,-13164169.376182994,-13164169.376182994,-13164169.376182996,-13164169.376182996,-13164169.376182996,-13164169.376182996,-13164169.376182996,-13164169.376182998,-13164169.376182998,-13164169.376182998,-13164169.376182998,-13164169.376182998,-13164169.376183,-13164169.376183,-13164169.376183,-13164169.376183,-13164169.376183,-13164169.376183001,-13164169.376183001,-13164169.376183001,-13164169.376183001,-13164169.376183001,-13164169.376183003,-13164169.376183003,-13164169.376183003,-13164169.376183003,-13164169.376183003,-13164169.376183005,-13164169.376183005,-13164169.376183005,-13164169.376183005,-13164169.376183005,-13164169.376183007,-13164169.376183007,-13164169.376183007,-13164169.376183007,-13164169.376183007,-13164169.376183009,-13164169.376183009,-13164169.376183009,-13164169.376183009,-13164169.376183009,-13164169.37618301,-13164169.37618301,-13164169.37618301,-13164169.37618301,-13164169.37618301,-13164169.376183013,-13164169.376183013,-13164169.376183013,-13164169.376183013,-13164169.376183013,-13164169.376183014,-13164169.376183014,-13164169.376183014,-13164169.376183014,-13164169.376183014,-13164169.376183016,-13164169.376183016,-13164169.376183016,-13164169.376183016,-13164169.376183016,-13164169.376183018,-13164169.376183018,-13164169.376183018,-13164169.376183018,-13164169.376183018,-13164169.37618302,-13164169.37618302,-13164169.37618302,-13164169.37618302,-13164169.37618302,-13164169.376183022,-13164169.376183022,-13164169.376183022,-13164169.376183022,-13164169.376183022,-13164169.376183024,-13164169.376183024,-13164169.376183024,-13164169.376183024,-13164169.376183024,-13164169.376183026,-13164169.376183026,-13164169.376183026,-13164169.376183026,-13164169.376183026,-13164169.376183027,-13164169.376183027,-13164169.376183027,-13164169.376183027,-13164169.376183027,-13164169.37618303,-13164169.37618303,-13164169.37618303,-13164169.37618303,-13164169.37618303,-13164169.376183031,-13164169.376183031,-13164169.376183031,-13164169.376183031,-13164169.376183031,-13164169.376183033,-13164169.376183033,-13164169.376183033,-13164169.376183033,-13164169.376183033,-13164169.376183035,-13164169.376183035,-13164169.376183035,-13164169.376183035,-13164169.376183035,-13164169.376183037,-13164169.376183037,-13164169.376183037,-13164169.376183037,-13164169.376183037,-13164169.376183039,-13164169.376183039,-13164169.376183039,-13164169.376183039,-13164169.376183039,-13164169.376183039,-13164169.37618304,-13164169.37618304,-13164169.37618304,-13164169.37618304,-13164169.37618304,-13164169.376183042,-13164169.376183042,-13164169.376183042,-13164169.376183042,-13164169.376183042,-13164169.376183044,-13164169.376183044,-13164169.376183044,-13164169.376183044,-13164169.376183044,-13164169.376183046,-13164169.376183046,-13164169.376183046,-13164169.376183046,-13164169.376183046,-13164169.376183048,-13164169.376183048,-13164169.376183048,-13164169.376183048,-13164169.376183048,-13164169.37618305,-13164169.37618305,-13164169.37618305,-13164169.37618305,-13164169.37618305,-13164169.376183052,-13164169.376183052,-13164169.376183052,-13164169.376183052,-13164169.376183052,-13164169.376183053,-13164169.376183053,-13164169.376183053,-13164169.376183053,-13164169.376183053,-13164169.376183055,-13164169.376183055,-13164169.376183055,-13164169.376183055,-13164169.376183055,-13164169.376183057,-13164169.376183057,-13164169.376183057,-13164169.376183057,-13164169.376183057,-13164169.376183059,-13164169.376183059,-13164169.376183059,-13164169.376183059,-13164169.376183059,-13164169.37618306,-13164169.37618306,-13164169.37618306,-13164169.37618306,-13164169.37618306,-13164169.37618306,-13164169.376183063,-13164169.376183063,-13164169.376183063,-13164169.376183063,-13164169.376183063,-13164169.376183065,-13164169.376183065,-13164169.376183065,-13164169.376183065,-13164169.376183065,-13164169.376183067,-13164169.376183067,-13164169.376183067,-13164169.376183067,-13164169.376183067,-13164169.376183068,-13164169.376183068,-13164169.376183068,-13164169.376183068,-13164169.376183068,-13164169.37618307,-13164169.37618307,-13164169.37618307,-13164169.37618307,-13164169.37618307,-13164169.376183072,-13164169.376183072,-13164169.376183072,-13164169.376183072,-13164169.376183072,-13164169.376183074,-13164169.376183074,-13164169.376183074,-13164169.376183074,-13164169.376183074,-13164169.376183076,-13164169.376183076,-13164169.376183076,-13164169.376183076,-13164169.376183076,-13164169.376183078,-13164169.376183078,-13164169.376183078,-13164169.376183078,-13164169.376183078,-13164169.37618308,-13164169.37618308,-13164169.37618308,-13164169.37618308,-13164169.37618308,-13164169.37618308,-13164169.376183081,-13164169.376183081,-13164169.376183081,-13164169.376183081,-13164169.376183081,-13164169.376183083,-13164169.376183083,-13164169.376183083,-13164169.376183083,-13164169.376183083,-13164169.376183085,-13164169.376183085,-13164169.376183085,-13164169.376183085,-13164169.376183085,-13164169.376183087,-13164169.376183087,-13164169.376183087,-13164169.376183087,-13164169.376183087,-13164169.376183089,-13164169.376183089,-13164169.376183089,-13164169.376183089,-13164169.376183089,-13164169.37618309,-13164169.37618309,-13164169.37618309,-13164169.37618309,-13164169.37618309,-13164169.376183093,-13164169.376183093,-13164169.376183093,-13164169.376183093,-13164169.376183093,-13164169.376183093,-13164169.376183094,-13164169.376183094,-13164169.376183094,-13164169.376183094,-13164169.376183094,-13164169.376183096,-13164169.376183096,-13164169.376183096,-13164169.376183096,-13164169.376183096,-13164169.376183098,-13164169.376183098,-13164169.376183098,-13164169.376183098,-13164169.376183098,-13164169.3761831,-13164169.3761831,-13164169.3761831,-13164169.3761831,-13164169.3761831,-13164169.376183102,-13164169.376183102,-13164169.376183102,-13164169.376183102,-13164169.376183102,-13164169.376183104,-13164169.376183104,-13164169.376183104,-13164169.376183104,-13164169.376183104,-13164169.376183106,-13164169.376183106,-13164169.376183106,-13164169.376183106,-13164169.376183106,-13164169.376183106,-13164169.376183107,-13164169.376183107,-13164169.376183107,-13164169.376183107,-13164169.376183107,-13164169.37618311,-13164169.37618311,-13164169.37618311,-13164169.37618311,-13164169.37618311,-13164169.376183111,-13164169.376183111,-13164169.376183111,-13164169.376183111,-13164169.376183111,-13164169.376183113,-13164169.376183113,-13164169.376183113,-13164169.376183113,-13164169.376183113,-13164169.376183115,-13164169.376183115,-13164169.376183115,-13164169.376183115,-13164169.376183115,-13164169.376183117,-13164169.376183117,-13164169.376183117,-13164169.376183117,-13164169.376183117,-13164169.376183117,-13164169.376183119,-13164169.376183119,-13164169.376183119,-13164169.376183119,-13164169.376183119,-13164169.37618312,-13164169.37618312,-13164169.37618312,-13164169.37618312,-13164169.37618312,-13164169.376183122,-13164169.376183122,-13164169.376183122,-13164169.376183122,-13164169.376183122,-13164169.376183124,-13164169.376183124,-13164169.376183124,-13164169.376183124,-13164169.376183124,-13164169.376183126,-13164169.376183126,-13164169.376183126,-13164169.376183126,-13164169.376183126,-13164169.376183126,-13164169.376183128,-13164169.376183128,-13164169.376183128,-13164169.376183128,-13164169.376183128,-13164169.37618313,-13164169.37618313,-13164169.37618313,-13164169.37618313,-13164169.37618313,-13164169.376183132,-13164169.376183132,-13164169.376183132,-13164169.376183132,-13164169.376183132
