,0,1,2,3,4,5,6,7,8,9,10,11,12,13,14,15,16,17,18,19,20,21,22,23,24,25,26,27,28,29,30,31,32,33,34,35,36,37,38,39,40,41,42,43,44,45,46,47,48,49,50,51,52,53,54,55,56,57,58,59,60,61,62,63,64,65,66,67,68,69,70,71,72,73,74,75,76,77,78,79,80,81,82,83,84,85,86,87,88,89,90,91,92,93,94,95,96,97,98,99,100,101,102,103,104,105,106,107,108,109,110,111,112,113,114,115,116,117,118,119,120,121,122,123,124,125,126,127,128,129,130,131,132,133,134,135,136,137,138,139,140,141,142,143,144,145,146,147,148,149,150,151,152,153,154,155,156,157,158,159,160,161,162,163,164,165,166,167,168,169,170,171,172,173,174,175,176,177,178,179,180,181,182,183,184,185,186,187,188,189,190,191,192,193,194,195,196,197,198,199,200,201,202,203,204,205,206,207,208,209,210,211,212,213,214,215,216,217,218,219,220,221,222,223,224,225,226,227,228,229,230,231,232,233,234,235,236,237,238,239,240,241,242,243,244,245,246,247,248,249,250,251,252,253,254,255,256,257,258,259,260,261,262,263,264,265,266,267,268,269,270,271,272,273,274,275,276,277,278,279,280,281,282,283,284,285,286,287,288,289,290,291,292,293,294,295,296,297,298,299,300,301,302,303,304,305,306,307,308,309,310,311,312,313,314,315,316,317,318,319,320,321,322,323,324,325,326,327,328,329,330,331,332,333,334,335,336,337,338,339,340,341,342,343,344,345,346,347,348,349,350,351,352,353,354,355,356,357,358,359,360,361,362,363,364,365,366,367,368,369,370,371,372,373,374,375,376,377,378,379,380,381,382,383,384,385,386,387,388,389,390,391,392,393,394,395,396,397,398,399,400,401,402,403,404,405,406,407,408,409,410,411,412,413,414,415,416,417,418,419,420,421,422,423,424,425,426,427,428,429,430,431,432,433,434,435,436,437,438,439,440,441,442,443,444,445,446,447,448,449,450,451,452,453,454,455,456,457,458,459,460,461,462,463,464,465,466,467,468,469,470,471,472,473,474,475,476,477,478,479,480,481,482,483,484,485,486,487,488,489,490,491,492,493,494,495,496,497,498,499,500,501,502,503,504,505,506,507,508,509,510,511,512,513,514,515,516,517,518,519,520,521,522,523,524,525,526,527,528,529,530,531,532,533,534,535,536,537,538,539,540,541,542,543,544,545,546,547,548,549,550,551,552,553,554,555,556,557,558,559,560,561,562,563,564,565,566,567,568,569,570,571,572,573,574,575,576,577,578,579,580,581,582,583,584,585,586,587,588,589,590,591,592,593,594,595,596,597,598,599,600,601,602,603,604,605,606,607,608,609,610,611,612,613,614,615,616,617,618,619,620,621,622,623,624,625,626,627,628,629,630,631,632,633,634,635,636,637,638,639,640,641,642,643,644,645,646,647,648,649,650,651,652,653,654,655,656,657,658,659,660,661,662,663,664,665,666,667,668,669,670,671,672,673,674,675,676,677,678,679,680,681,682,683,684,685,686,687,688,689,690,691,692,693,694,695,696,697,698,699,700,701,702,703,704,705,706,707,708,709,710,711,712,713,714,715,716,717,718,719,720,721,722,723,724,725,726,727,728,729,730,731,732,733,734,735,736,737,738,739,740,741,742,743,744,745,746,747,748,749,750,751,752,753,754,755,756,757,758,759,760,761,762,763,764,765,766,767,768,769,770,771,772,773,774,775,776,777,778,779,780,781,782,783,784,785,786,787,788,789,790,791,792,793,794,795,796,797,798,799,800,801,802,803,804,805,806,807,808,809,810,811,812,813,814,815,816,817,818
0,-1849.2643825440875,-2001.9237879664993,-1805.3705980130765,-1989.8750301924995,-1538.2525802474934,-1789.369029446507,-1712.9764836470333,-1831.065811364624,-1942.7156930774515,-1920.9220415108537,-1941.2777452262108,-1598.8284447686362,-1863.651561632865,-1839.0190673804168,-1856.084382894712,-1693.6777544203983,-2253.7879892205096,-1614.385019804079,-1766.4042958815023,-1856.0135143894431,-1656.540197164449,-1915.2450339918498,-1521.5283153582047,-1760.605875736057,-2069.176966513972,-1919.4113734585912,-1729.6415892226644,-1666.2362945425728,-2018.8846933474395,-1798.2731163236917,-1365.0192448066493,-1781.8916046154645,-2075.490288704625,-1520.9363276502768,-1879.849376488658,-1609.0387077631733,-1742.517668503306,-2068.7916660118,-1776.6798666748991,-1887.8021099510772,-1739.2899731237908,-1890.2157744388787,-1746.1379761667504,-1543.31229872266,-2129.8053465401485,-1720.296948052456,-1970.5721637263207,-2053.7740066415495,-1792.4426028681019,-1747.3005739033217,-1692.9735484197208,-1995.516664726302,-2031.576074331157,-2011.6218930075468,-2022.9933962874366,-1887.9444246484195,-1792.1408061294624,-2059.400592072167,-1845.316487167972,-1852.6443668686534,-1559.4059390508507,-1652.6549677663443,-2031.8401196547609,-1992.069847704882,-1853.7219278138764,-1996.8055313309774,-1753.4181011012943,-1773.7851971852424,-1635.1526253140178,-1926.578320562665,-1830.8716028974402,-1971.1633376016546,-2150.945119115659,-1790.3849730715112,-1690.609857438932,-1814.5672540042951,-1796.331201723948,-1818.532770088761,-1724.2677310672027,-1713.078211734376,-1974.0899978195375,-1768.8381756677136,-1680.334836454812,-1760.3595702912362,-1957.8418802557208,-1887.762712887117,-1997.9396337066205,-1707.6034231920037,-1674.6777527576062,-1995.8927602645829,-1622.25866422715,-2060.8918813880055,-2066.6699386043592,-1834.6327481673363,-1570.050948165121,-1623.6122568354622,-1861.9984232517038,-1850.9228767809886,-2038.7118138427372,-2051.683648091024,-1834.4133677427888,-2108.7253585384874,-1707.7277970009259,-1661.357670625721,-1817.8183560502923,-1858.7863224675073,-1980.905633712579,-1938.553054357246,-1824.1693160666327,-1779.0166723971556,-1973.4311583101096,-1924.2268000632168,-1684.4637887446809,-1926.3092753544431,-1940.3544867935402,-1773.0813605871283,-1812.595868175086,-2103.351958252692,-1813.2603306184542,-1970.288320911358,-1736.6399834888064,-2102.575855050383,-2243.0998221873706,-1859.8559114641275,-1532.5539132972024,-2047.6670446710073,-1880.0419908983881,-2226.6728315717223,-1838.9864621880538,-2023.5127377335152,-1874.8453450863299,-1794.8211190998682,-1832.4167527841694,-1868.9788597536372,-1760.2774261064967,-1931.9939791780193,-1753.1548697817605,-2155.1183906148076,-1623.9043984483005,-1893.033890645515,-1696.420162165486,-1748.2211355528746,-1710.5615570977166,-1970.5885888514708,-1736.7065730154852,-1815.037511117126,-1508.2008241446752,-1847.4086537348746,-1628.1918126763858,-1906.067565923008,-1810.5147530862612,-1879.203710283781,-2035.1412772246028,-2010.0890254666986,-1811.1061673891606,-1671.2304455932706,-2101.4857988498306,-1876.952767316974,-1728.551442851545,-1726.8033582084688,-1838.2602651316201,-1846.1649311455838,-1928.414369946533,-1671.1684622667833,-1825.4762656475818,-1709.6188420834608,-1404.1932485578043,-1769.4485995847617,-1846.8432530630516,-2125.8678144249056,-1920.2349514294083,-1654.1626949154916,-2197.367298117637,-1798.4490493568849,-2054.12642980001,-1677.8603787026975,-2034.903250621748,-1906.5793898202576,-1870.5956010600357,-1965.737641634997,-2198.078469930502,-1935.1675987179958,-1165.1487133430307,-1810.0936802816489,-1980.8365951325156,-1667.1577216414744,-1859.0902709739403,-1856.3888141725095,-1695.8555622698839,-1838.8712531605454,-1702.1569306834592,-1700.4216211922462,-2054.6298089775287,-1798.2229961093865,-2062.3216737189045,-1641.596264169987,-1738.8505437535575,-1857.339596010048,-1826.6966886881235,-1881.2815610137845,-2046.7488547050248,-1711.2913403211637,-1903.9471057696383,-1716.3537321917681,-1814.6846178099447,-1800.961965431332,-1821.0256355865129,-1795.9898207538804,-1885.5157927537055,-1978.1425997099436,-2031.3786845708494,-1895.28880987939,-1646.1396492831016,-2111.2871173615604,-1889.5308581841957,-2020.0619604588592,-1841.0239032619165,-1984.9935766489002,-2141.318970800646,-2092.2373277771494,-1713.4988241782844,-1752.6381676998794,-1829.5706558083925,-1819.6245139693904,-1859.9976959301712,-1789.0481904485966,-1678.1579369007022,-1897.5034092989367,-1746.9960346824164,-1747.9929239521944,-1917.1352624265826,-1764.9588498724354,-1728.949498567798,-1708.9960664884718,-1790.672387994177,-1748.9990465730002,-1748.607099908928,-1887.2816303477202,-1810.5755187331984,-1869.5459555061277,-1774.3294872861622,-1813.7160205825744,-1580.038581598209,-1767.8311070827235,-2086.5432500080706,-1915.7665036150404,-1645.9914110882253,-2002.111471548322,-1729.107819148372,-1913.8718409104292,-1940.430421942504,-1972.1615880575682,-1806.6619151646908,-1906.3146825667714,-1959.5410447071204,-1682.1991113361655,-1916.759448542609,-1787.4231420649153,-1976.7187685796246,-1873.0685735138604,-1758.9930056256646,-1881.9150344796199,-1618.4694020028433,-1699.4978704237196,-1841.6689992261586,-1962.8572003203062,-1748.0512138120555,-1716.989342247415,-1724.6006338106058,-1898.184816064926,-1905.8289846398395,-1778.6976626692435,-1983.3654467747574,-2024.555219288983,-1643.9748278595016,-1939.2117116475147,-2017.8973643394775,-1567.5256896449723,-1894.177254716541,-1677.5263931670117,-1819.6507065335823,-1675.3576716313898,-1896.9877617222858,-1477.77160863434,-1716.1524250020875,-1835.0872834656293,-1791.5198071127857,-1861.3940539305577,-1651.4201401591715,-1857.0651263823238,-1699.2149285162332,-1753.5130718628666,-1704.0229602968745,-1958.880615803896,-1710.3150272599885,-1876.2531542851746,-1717.7681884808344,-1470.6464749122395,-1761.9016440478292,-1913.9416742648812,-1726.9347286041284,-1752.2208377135198,-1774.9297798510158,-1622.2489000927756,-1695.9932004939392,-1699.3835379860523,-1958.0802817255767,-1684.3698076903815,-1505.714865792793,-1872.2313335944534,-1791.0232303410512,-1631.1843801172072,-1900.928053441634,-1917.7192198493854,-1711.7604302335774,-1824.7826648103007,-1850.6757822503137,-2007.916037239233,-1665.6506172606585,-1837.3450415926031,-1825.974454019991,-1480.5577669351583,-1568.9454709419035,-1661.1876163501697,-1859.1068197198135,-1963.316907740961,-1931.9585976795713,-1990.4224854203806,-1278.3586375058615,-2021.6576523973536,-1857.6447933017007,-1977.9730716898307,-1756.0812154217192,-1915.0493268767004,-2093.7980030004837,-1784.0258036202872,-1671.3642040650598,-1473.906362656724,-1825.8711411621284,-1814.115594362679,-1756.430668961291,-1597.0794418909816,-2136.099479724712,-1614.4726301872947,-1822.508317944011,-1877.827493045089,-1806.075334331753,-1768.4814731629372,-1868.713705084142,-1920.3199362874823,-1829.9090187736742,-1953.2591285776914,-1811.0695889183996,-1613.782972084107,-1500.5177731526448,-1939.600206506741,-1861.1312548177593,-1982.7930871057906,-1860.7189264965136,-2212.9576714998484,-1961.2772603215244,-1886.3737105245455,-1742.045302924132,-1852.8649499298701,-1730.1333276489427,-1772.2494773071446,-1859.6766518591485,-1780.1585056829454,-2042.0917584886759,-1813.530898069431,-2052.7064507360687,-1597.344731219731,-2068.7732410182507,-1841.587228482574,-1997.3088680281137,-1919.1707762965416,-1926.8896692915662,-1962.7828114795755,-1797.8819292723122,-1775.4766351270532,-1887.6519900283838,-1992.1764899034342,-1725.7499574393712,-1716.7975889262648,-1980.2775550518952,-1815.6642890336223,-1871.556752414794,-1965.8711559453548,-1763.7412463211049,-1738.1508780309643,-1760.5512532504008,-1831.0146981411074,-1796.834024894929,-2202.1746343542163,-1841.3048926716576,-1860.2886956092232,-1861.512279396155,-1623.3905423037318,-1752.8407832192968,-1633.3196973763443,-1981.1076214536238,-1868.7968496577075,-1867.5347442051984,-1850.8094143960386,-1992.104303847055,-1750.2693665952859,-1609.7789436992384,-2148.4675045289428,-2036.5119796841743,-1592.2885998692232,-2185.995451896029,-1559.2120295120853,-1918.180551205685,-1891.6592348944848,-1964.8459550713453,-1927.2047698892266,-1905.426295689381,-1653.2522189081328,-1658.3008202112276,-1968.388967464853,-1868.9598583894551,-1781.8869629988887,-1826.463299030732,-1876.5389402037556,-1541.3325461783525,-1850.4146890992804,-1943.2414336622721,-1709.505942385524,-2043.2623079484802,-1759.5579175183802,-1751.3529953574698,-1812.8065886111826,-1462.722375101086,-1843.8313125278996,-1782.8752102758178,-1748.3550640295948,-1464.6344629393611,-1731.190773735569,-1994.6745884050013,-1788.4431555839951,-1786.420876321906,-1559.1245857835702,-1924.0236860554887,-1767.450658054981,-1823.772842966311,-1880.7954363696306,-1751.0576701369357,-1827.9162316623426,-1651.601924786939,-2188.0179521224213,-1977.8157034095757,-2159.048003369796,-1866.9434532731932,-1905.4682532688814,-1957.051778725293,-1940.927073600947,-1913.9598171123955,-1876.4045257009814,-1767.6724239194427,-1564.2792992474826,-1599.213754221458,-1552.2781116120652,-1860.8838449898678,-1738.7452420261739,-1795.9138889162627,-1692.02576028821,-1780.8537330640183,-1643.464116971943,-1774.6840329899887,-1850.485003208718,-1936.1255252667886,-1670.7862754331238,-1888.7862370726723,-1762.378038465007,-1923.035820680125,-1817.7437578607971,-1751.697760879124,-1889.9363188173952,-1810.4228257262137,-1677.7102938331616,-1578.5790505081645,-1773.3150055108508,-1507.3163046186014,-1740.574303383274,-1764.8368182050353,-1837.824789410382,-1693.0853011394067,-1644.9454213248264,-1579.288254718185,-1758.3777585827024,-1860.2095713064232,-1638.2581552982897,-1758.2169292055196,-1636.6006102259819,-1711.4400554730685,-1636.4626574260228,-1745.112835724192,-1794.8251135435776,-1920.5785207647693,-1862.6235797555087,-1708.4200205744612,-1941.9018481126884,-1879.0832887555184,-1787.9925146837847,-1774.4312051935817,-1880.348618796083,-1658.2880776006164,-1705.1627535625646,-1569.5175470731344,-1789.8993160834343,-1892.88952791151,-2126.6029214679406,-1967.3057001660945,-1673.3757329222328,-1991.6914330902725,-1800.4200396832032,-2016.9213473976858,-1833.035232359359,-1723.9747545687273,-1665.8762378672259,-1722.5012033810083,-1852.0181655293632,-1968.2285776527997,-1693.7775926526938,-1728.5728320613566,-1438.1183611468764,-1571.7738121966888,-1735.1801872181395,-1936.2869699307616,-1755.0679955477806,-1651.2783011030035,-1631.858227261241,-1557.4070443339617,-1702.988730708714,-1841.0878808360983,-1610.3023647340465,-1790.2927447679212,-1900.162327775198,-1946.3407844284663,-1799.1969898887799,-2064.881832851189,-1714.0338955176444,-1952.6892843121834,-1727.903780294009,-1806.2548991839446,-2029.482105720944,-1748.8375617952609,-1909.6446305797363,-1852.1049827210793,-1780.5725795275125,-1960.074325813719,-1731.4786136796013,-2040.2189340336063,-1716.4824200699013,-2035.7461540102852,-1786.7033773028545,-1749.6669334862743,-1832.208018803641,-1533.6281959393432,-2069.032427979957,-1661.051281827571,-1855.2079262739426,-1930.6742550403194,-1911.8766442866806,-1836.180278843992,-1735.7340767482362,-1807.5019787084434,-1488.4144654395877,-1736.6848779251166,-1639.9091334480822,-1617.8263425853875,-1962.509158723291,-1724.628673614767,-1886.9005847033618,-1976.5276028576955,-1904.6863723203774,-1896.5285648081056,-1954.1852762650633,-2120.207239811766,-2121.1200841932623,-1966.231203473595,-1738.204671930963,-2044.2502098824393,-2004.1346287631836,-1726.3591318681424,-1948.6390220897497,-1779.8112957457151,-1839.0944344936256,-1879.8964811382896,-1772.3072464751363,-1788.1018789212967,-1844.5435793295173,-1756.6573030202062,-1815.227196898551,-1915.5877627075927,-1727.723448041477,-1675.631304921563,-2095.9203104288304,-1476.3592445566367,-1699.433204142922,-1710.991758778929,-1907.4411389630675,-1914.9123328386402,-1762.241459874978,-1897.0814433850255,-1811.9030993274944,-1865.1714058693606,-1889.264250860349,-1611.074488284484,-1699.6520454057975,-1788.6520672339636,-1776.166592556329,-1839.2142992205347,-1809.567347217584,-1841.0608021354722,-1697.1175473769306,-1744.6030517543054,-1755.3989020244921,-1785.7994139516131,-1900.7641551184574,-2017.319350199523,-1959.127964432907,-1463.818603444764,-1858.7115453920592,-2473.437638410775,-1969.4581578899715,-1742.77081056488,-1814.3530975465305,-1864.980727621866,-1978.7712550475053,-1544.7488398059083,-2027.8860240984413,-1838.6294521633054,-1657.7141316292873,-1803.0918569453358,-1722.2391131610498,-1789.2499685899004,-2009.295499404585,-1923.2336995534076,-1677.0225333460673,-1544.7822396850643,-1816.75742014635,-1912.188488410448,-1806.4857892010364,-2018.5738981857635,-1743.3220491292807,-1868.0059061677746,-1979.420318230988,-1875.5795069355743,-1764.1453837302545,-2046.744487630073,-1918.3714353508406,-1968.253731922882,-2038.619389215599,-1905.562871668466,-1945.340222933723,-2091.1894256487244,-1689.4803406823937,-1840.9055516025182,-1830.1400117237085,-2026.2777881417153,-1982.5908101213622,-1880.1444707804758,-2146.836060237019,-1863.4137896738096,-1780.161902610076,-1754.7973200930633,-1881.7883764766448,-1539.3142366035554,-1854.6123079943857,-1907.052400275028,-2139.7246509217516,-1707.7433718359368,-1931.5288279902293,-2089.251239425924,-1455.762805837152,-1881.7617686764293,-1662.4517716389137,-1913.555586106368,-1871.9903807229612,-1853.1409669769052,-1910.2934973183965,-1794.3446380837984,-1872.0461113303202,-1966.2447294887327,-1903.7637321784875,-1861.8697292279217,-1815.0218593098652,-1876.2804929065005,-2049.9126783623674,-1797.4597394834864,-1755.3454426852186,-1881.5160380436278,-1854.0810973447997,-1607.4553817300841,-1829.5564534906964,-1770.7830704998512,-1522.0233297740333,-1687.9331148195815,-1813.3455128283304,-1782.0018302983515,-1740.795185175217,-1703.6720690079487,-1906.4711991939319,-1755.9831536126133,-1945.3932066686086,-1763.0257506152986,-1799.9486544889835,-1755.187817313684,-1854.8104820648211,-1704.9458217852778,-1836.2783352105653,-1687.2135100987666,-1726.1434523727114,-1876.9292539804674,-1900.995879497427,-1785.5577672892186,-1614.026581470939,-1967.4764005920779,-1785.1160106848536,-1842.0074030310543,-1797.2006960245253,-1842.6317028934754,-1776.7409186443388,-1841.8112248245436,-1780.3912858674355,-1847.3924344998857,-1922.7100418045322,-1421.6290197244484,-1820.8173324127752,-1718.9157728172345,-1804.7576803915558,-2053.500892463493,-1910.9617013888285,-1983.9155626786278,-1826.4323578820597,-1834.6406706143712,-1921.3787107019607,-1830.3512100676255,-1962.309001024025,-1754.2415848931741,-1789.0955705937097,-1912.3566762605974,-1919.470698825585,-2025.5958173241365,-1912.2991849399248,-1870.294695119062,-1920.9113040182783,-1926.8445736959434,-1921.0145830316471,-1885.8212263259468,-1730.0332599177443,-1903.1515291817839,-1823.051913873071,-1787.072844900869,-1688.688767115904,-1703.0296571113606,-1743.8954439856193,-1549.8592124341196,-2004.6324952177201,-1894.0743064519438,-1647.5987496600744,-1660.4067126987943,-1827.536245910185,-1698.7573695962326,-1759.9882497722565,-1774.7641873498414,-1875.8549218604362,-1723.8393793669181,-1988.593383529856,-1927.7154114068012,-1871.5389632334025,-1831.9658580421205,-1912.3983135942133,-1948.5039744423566,-1816.17501183978,-1782.1762912538416,-1796.9523233824002,-1866.3902382373597,-2024.5239755130244,-1752.3401794095998,-1883.1719504099112,-1770.3405454372578,-1741.7963538229553,-1724.600719710537,-1963.0323277046944,-1861.1345876230741,-1947.828006791159,-1667.3598955219732,-1857.507915908117,-1841.7355179619572,-1976.8592497686539,-2038.6401342358922,-1949.1065298539488,-1603.9271585996487,-1986.3409790729968,-1907.6879517308475,-1587.0257342536504,-1524.1908463612956,-1853.9901956936058,-1848.9891599956331,-1764.7729360996548,-1846.6523810788883,-1693.7465683843102,-1503.3782941960658,-1734.694034493379,-1820.1739396208848,-1850.0249234294624,-1774.3299189614622,-1934.2162457037412,-1778.5824946459823,-1775.3758323995607,-2028.470223037948,-1600.6525119072055,-1700.1969874692004,-1968.7733685655799,-1774.8308101500038,-1964.0612500771424,-2271.3413262504214
1,359.3993053075906,359.39931420042086,359.3993140991186,359.39932212391847,359.39931520928985,359.39945167093447,359.3993148678425,359.3993150937017,359.399080488574,359.39937164022524,359.3993059813422,359.3993067525244,359.39932382767296,359.3993137722496,359.39930569754966,359.39930755047124,359.3993619118633,359.3993101081966,359.3993102413879,359.39949464797763,359.39931285266556,359.3993164161131,359.3993100491717,359.3993067859223,359.39932122886114,359.39944180719726,359.3993045234824,359.3993876398502,359.3993136045726,359.39941053038746,359.39931392865486,359.3993067349832,359.39931416148,359.3993102059686,359.3993123858128,359.39931830970295,359.3993139215533,359.3993101898537,359.39931068374125,359.39940952486654,359.3993125181204,359.39932355623495,359.39932174966185,359.399313102634,359.39930801107374,359.39930701430944,359.3993190572175,359.3993155196128,359.39931280975003,359.3994124303366,359.39930336241724,359.3993085057172,359.39927663174217,359.3996115505528,359.3994235704042,359.3993227881998,359.39932096603496,359.39931111720057,359.3994066053378,359.39931389052566,359.39932115333977,359.3993057741878,359.39930713534807,359.39942124100133,359.3993088898613,359.3993093051051,359.3994197167499,359.3993032440373,359.3993134804791,359.3994029096442,359.3993143973855,359.3993124176402,359.399310575508,359.3994429146156,359.3993123297294,359.39932415995236,359.39955530944616,359.3993105547415,359.39947335731745,359.39931346367183,359.39938087364726,359.3993236238622,359.39925945122684,359.3996967741957,359.39937821306586,359.39940022846406,359.3993136617267,359.39931176066585,359.3993103277305,359.3993045928478,359.39931676779827,359.3993258309472,359.39931382552254,359.39940058054117,359.39931827672734,359.39930882115203,359.3993094485592,359.3993057398341,359.399314862132,359.39938395622653,359.39930801545563,359.39932371243543,359.3993116596549,359.39931913356247,359.3994334818767,359.3993189845854,359.3993103063684,359.3993085522499,359.3993090474932,359.3993234295199,359.3993098857181,359.3993097845711,359.3994151565486,359.3993086228882,359.399313645828,359.39931001500224,359.3993113057355,359.39931248790185,359.399309455065,359.3994130338897,359.3994102841419,359.3993095726675,359.39931228890254,359.3994662590649,359.39930455786015,359.3993068927489,359.3994090761699,359.3993093942012,359.39930772049865,359.399305225232,359.3994022919842,359.39931088048553,359.39956520733233,359.39931834867633,359.39939373541415,359.3993133382913,359.39941490157753,359.3993114157617,359.3993219818838,359.39940290355145,359.3993080981281,359.399301017736,359.3993201157262,359.3993064216449,359.39927910160793,359.39930975916,359.3992920534561,359.39931978593205,359.39931064511245,359.39931729897404,359.39940252228104,359.39940434449613,359.39931671983186,359.39931146662326,359.3993264783265,359.3993132239236,359.39930820599056,359.39941157505245,359.39930648947023,359.3993117059377,359.3993052014792,359.39931660755065,359.3993141759647,359.39930586378756,359.3993102904999,359.39930363110415,359.399311563972,359.39931329118895,359.39931216645584,359.3993159951624,359.3993068070548,359.39939668564966,359.39940155157353,359.39932477511456,359.3993087090188,359.3993258295582,359.3993116519293,359.39938976572273,359.39930973288904,359.39931492357744,359.3993108197757,359.3994304671178,359.3993319566842,359.3992864165041,359.3994036286737,359.39930918015,359.3993128689001,359.39931240496765,359.39929619741105,359.3993108270036,359.3993160723738,359.3993208375107,359.39950093143165,359.3993157174664,359.39931089300904,359.39931017081904,359.3993094907267,359.3993174929155,359.3993162423499,359.399306898624,359.39930976726276,359.3993123973144,359.3993108473528,359.3993112480569,359.39930997215265,359.3995389207227,359.3993986562542,359.3994192828708,359.3993148202436,359.3994085966413,359.3993120430273,359.39931720663515,359.39946842723776,359.39948316440723,359.3993114855783,359.3993087678909,359.3993065698102,359.3993084811927,359.3993110904876,359.3993132069361,359.39932598188057,359.3993121112234,359.3993091200205,359.39931443425144,359.39931680436956,359.3993178176192,359.3993116255679,359.39954814906974,359.39931246073627,359.3993082763899,359.39930740906766,359.3993224922596,359.3993130286394,359.39932686140673,359.3993180586608,359.3993102392177,359.39931900204965,359.39931419923965,359.39941088345194,359.39931129378556,359.3993278539385,359.39931637353465,359.39930071464954,359.3993095861138,359.3993161900479,359.3993942242766,359.39951176789333,359.3993115932584,359.3993103270081,359.3993153195831,359.39930718496834,359.39932560243886,359.3994055987931,359.3993103510583,359.39932048866245,359.3993141977361,359.399577858499,359.3993098036756,359.3994566389847,359.3993097713074,359.3993101802549,359.3993095394332,359.39932733285985,359.3993078697115,359.3993114569931,359.399399491166,359.3993133312617,359.3993144864997,359.39930526340413,359.3993221625511,359.39947961722675,359.3995253145581,359.39931178379527,359.3993106372715,359.3993071383596,359.3993126441838,359.39948173759024,359.3993092710317,359.3993136051861,359.3993211250962,359.399329644629,359.39930460355185,359.3994060799257,359.39928357498917,359.39931292221286,359.39931858999677,359.39931864786973,359.39931062873205,359.3993216893948,359.3993112488213,359.39931047639914,359.39931370644683,359.3993265002098,359.39932320657897,359.3993167839897,359.399310520379,359.39931370041387,359.3993145660024,359.3993172449173,359.39930691822815,359.39930616949397,359.3994368156888,359.3993247801374,359.399308920325,359.3993131018758,359.39931723460415,359.3993146374767,359.3993018415024,359.39930984947955,359.3993113853349,359.3993159043378,359.399308564123,359.39931848507223,359.3993094702185,359.3993086492222,359.39931305907135,359.399487711206,359.3993230843865,359.3993089471938,359.3993090015649,359.3993069711213,359.3993064554755,359.39930639724525,359.39931420801196,359.39940480070067,359.3993149882741,359.3993112906288,359.39931414044156,359.39932065664084,359.399321634799,359.39930816225564,359.39947788380783,359.39931551220803,359.3992968253031,359.3995096141032,359.3993209113094,359.3993071327764,359.3993113102287,359.3996966767393,359.39931369639453,359.39931155367697,359.3992874112417,359.3993095277402,359.39930958691014,359.3993132874868,359.39931345437236,359.39931074754196,359.39941613388777,359.3993102987298,359.39931562034224,359.3993126424679,359.39931048797513,359.3993093227267,359.3993240132226,359.3993121367712,359.39930992316874,359.39930865073796,359.39941357124826,359.39931569801865,359.39931178181683,359.39931479414315,359.3993073286423,359.3995203371435,359.39931826194345,359.39932196855557,359.39931102761534,359.3995241253404,359.3993263318174,359.39931575878137,359.399316751276,359.3993118476019,359.3993074215453,359.3993103039407,359.39930922798277,359.39931183113794,359.39931210681704,359.3993063585352,359.39931247550413,359.3993254248714,359.39931047036987,359.39931174141253,359.3993217402526,359.39931727151856,359.39932024863657,359.3994567742682,359.3993258746599,359.3993109369701,359.39931167855093,359.39931146467103,359.39931025698803,359.3994591412959,359.3995233762518,359.39932949937355,359.39929500178715,359.3993105740972,359.39944840077015,359.3993079982161,359.3994883865785,359.39951442833797,359.3993182722114,359.39931119252367,359.39931431403056,359.3993248428722,359.39931004142454,359.3993077405281,359.3993115028158,359.39931872001404,359.39930314271675,359.3993123448537,359.3993125281118,359.3993126112451,359.39930958399714,359.399308094718,359.3993263495092,359.3995129265659,359.39929842919366,359.3993170016642,359.3993180172968,359.39931309860924,359.3993111435436,359.39931283217953,359.3993177052847,359.39931285456214,359.3993127210138,359.3993103654125,359.39962679896166,359.399308369684,359.3993058801735,359.39930692976617,359.3993114947473,359.3993216423668,359.39931175621365,359.3993158289608,359.3993100800831,359.3993095319515,359.3993111943859,359.3993272752596,359.39931138309413,359.3993099970052,359.3995305237383,359.3993139201917,359.39931021589217,359.39931100692166,359.39932708547235,359.399311507011,359.3993095475979,359.39931942373727,359.399307686544,359.39930948223963,359.3994742732865,359.3993120454969,359.3994218305484,359.39950722960305,359.39931858758484,359.3993137594153,359.3993228589587,359.39931016776103,359.3993107785042,359.39932681747365,359.3993259714447,359.3993206253531,359.39930740660685,359.39932712530634,359.3993050652896,359.3993005729513,359.39931724223896,359.39956855370184,359.3993271387758,359.39930870125596,359.3995466784694,359.39931246244134,359.39929810711516,359.3993093281603,359.3993194350477,359.39948541079866,359.3995145473883,359.39931580266364,359.39931109182817,359.3993174772413,359.3993122899412,359.39931189496485,359.3993110597258,359.3993123843181,359.39932764602486,359.39930825972016,359.39932062568386,359.3993027085798,359.3993087313999,359.399318923232,359.3993075524699,359.399324887312,359.3993117853336,359.3993216702713,359.39931214636766,359.39930277666315,359.3993264117531,359.39932653564034,359.3993138223902,359.3993124091043,359.39931964166226,359.39931270252913,359.3994766775808,359.3993109804504,359.39940586121827,359.399310419377,359.39932309259655,359.3993121277092,359.3993278152709,359.3993238107006,359.39931308026456,359.3993089304249,359.39931040189134,359.39931582729645,359.399362789856,359.3993088833566,359.3993209305204,359.39940050587893,359.3995077986536,359.39931462561566,359.39931049610624,359.3993058594664,359.3995661642983,359.3993115185814,359.39931121841647,359.39931437322855,359.399324041167,359.3993177944166,359.39932047705463,359.39956823014296,359.3993092408161,359.39931965624754,359.3993119909589,359.39930734298537,359.3993112290901,359.3995056604916,359.3993103054554,359.39951670482003,359.3993096900883,359.3993116754457,359.3993227839864,359.3994915751503,359.3995375603018,359.39932193398204,359.39932151170876,359.39930124548175,359.39931139402324,359.39932878872725,359.3993109390571,359.39931418288364,359.39931105569144,359.399309709296,359.3993141449408,359.39931091437586,359.39930902519677,359.3993107281554,359.3994127481677,359.39955485802915,359.3993114606752,359.39931133040153,359.3993076183099,359.39931820424806,359.3993267781056,359.3995182590997,359.39946031969373,359.3993123131505,359.3993129186555,359.39931389410066,359.3993167192265,359.3995467016662,359.399316108968,359.39932967801997,359.3997318411916,359.39930847438256,359.399362055976,359.39931911139075,359.39950257242543,359.3993152846855,359.3996190615404,359.39931191624095,359.399314339026,359.3993114036959,359.3993135667519,359.39931630998126,359.3995340767168,359.3993104469163,359.39947543155205,359.39931166577446,359.39952521141623,359.39931258621357,359.39931534792674,359.39932196073363,359.3993098329115,359.3993156864436,359.39932223669945,359.39931532802854,359.3993227855998,359.3993113680843,359.39932024154183,359.39928917104044,359.39937425155614,359.39931240659547,359.3993106502308,359.3993262936255,359.3993091765866,359.39931542588874,359.39932485678173,359.39932298125206,359.39931634571803,359.3993097242088,359.3993136412381,359.3993136412793,359.39931383919816,359.3993148924078,359.39931348591836,359.3994999808529,359.39930230363075,359.39931483316764,359.39931016143026,359.3993097432827,359.3993106358653,359.39932085688173,359.3994639438594,359.3993150528915,359.39932742959786,359.39931692205545,359.3993222474252,359.3993189765879,359.39931074255156,359.39931190386494,359.39931545907694,359.3993237675879,359.3995330864865,359.3993132035593,359.3993131330858,359.39931505216094,359.39932564205054,359.39931109383906,359.39944188896123,359.39931389339546,359.39931329049705,359.3993113564769,359.399313528723,359.3993135180733,359.39930922792126,359.39952739553235,359.39935623739365,359.3993112237359,359.3995457188055,359.39931813395884,359.39931028644895,359.39945609758684,359.39931234173565,359.3993142918008,359.39950753184536,359.3993126407042,359.3994047639618,359.3993229274409,359.39931154185075,359.39931249662715,359.399319248987,359.3996229166071,359.39949491127487,359.39956264069303,359.3996936093163,359.3993162352226,359.39931119823507,359.3993195960635,359.3995070268839,359.3993156128027,359.3993098921133,359.3993121691311,359.39930859565754,359.399317855458,359.39931065343404,359.399312558264,359.39931143431033,359.3994475052668,359.3993148754788,359.3993164247236,359.399311300363,359.39931699547014,359.39931042581907,359.39931093417545,359.39951505552403,359.399515313948,359.399312639171,359.39931210993376,359.3995114558124,359.39931427013244,359.39931359645084,359.3992629011591,359.3993114667577,359.39931565079553,359.39931885416667,359.39931026165164,359.399315411211,359.3995266988463,359.3993150127806,359.3995131539323,359.3994394167503,359.39931373957586,359.39932612518885,359.3994993069811,359.399316855629,359.3993126626953,359.3993142041057,359.39931854727024,359.39931460445547,359.39956022920745,359.3995085235221,359.3993126732987,359.3995196726422,359.39930992432136,359.3993125790582,359.3993109361883,359.39931489211165,359.3993268797869,359.39931301657407,359.39932688817015,359.39956384475244,359.3993162509081,359.399321717163,359.3993151634241,359.3993122159051,359.39959425104445,359.39931283974954,359.39932729514175,359.39951590680295,359.3993101186827,359.39931181288165,359.399300832205,359.39948599104764,359.3995181526066,359.3993288541292,359.3993129366855,359.39946470337225,359.39930435600456,359.39941531136316,359.3993196679355,359.3993116968261,359.39932642285515,359.39932689430026,359.3993104714427,359.39949101790216,359.39931519362534,359.39951433010606,359.3993113466917,359.3993178315003,359.3993082057398,359.3993136573761,359.3994586591623,359.39960752811646,359.3993155918082,359.3993125179464,359.39932686997736,359.3993179521887,359.39931179754626,359.3994352731133,359.3993218448609,359.3995598398179,359.39932159725953,359.399313951591,359.3993104771399,359.39948971388486,359.399311541353,359.399305656072,359.3993276254048,359.39931031859544,359.39931430375594,359.39931464834456,359.39931112404395,359.39931545555413,359.399308636547,359.39931700617933,359.3993147382098,359.3993114137362,359.3993183479819,359.399314974136,359.39931042294967,359.3994048082845,359.3995297450889,359.39931190421765,359.399311199669,359.39931093343677,359.39931050716035,359.3994897771393,359.3993147419723,359.39931029339215,359.3993123588804,359.3993116869065,359.39953743762595,359.39960703285533,359.399326575653,359.39931861166724,359.3993211314205,359.3993112370123,359.39951782957246,359.39931856141146,359.3993131558582,359.3995001352052,359.3995420446627,359.3993139722113,359.3993136029306,359.3993122675437,359.3993098515793,359.39931150822264,359.3993146969221,359.39931390611014,359.3993121815282,359.39944246282874,359.39932336381924,359.3993266356253,359.3995330572929,359.3993149752811,359.39932731844044,359.3995458139572,359.3993192174123,359.39952797877453,401.2620079245907
2,-8.816146824913582e-05,-9.13231381241152e-05,-8.639630732168694e-05,-8.630945359265209e-05,-8.034733732599185e-05,-6.937020678884505e-05,-7.250461349860172e-05,-8.152022733572194e-05,-8.279962099030678e-05,-9.547201719295837e-05,-9.316668634529902e-05,-7.811242004669205e-05,-6.636956339485249e-05,-6.821341742443836e-05,-7.174946431923235e-05,-7.811412153336556e-05,-7.441903178806322e-05,-7.936175822501587e-05,-7.877752007549849e-05,-8.618518372634119e-05,-7.450131521814671e-05,-7.78959051049572e-05,-7.238395600893089e-05,-7.563133153823441e-05,-7.853632603145103e-05,-8.395467488624655e-05,-8.07812757847156e-05,-6.379728260642478e-05,-8.141512278941815e-05,-8.60961412795818e-05,-8.547062794811563e-05,-8.245549084931349e-05,-7.771963417356038e-05,-7.9009564613557e-05,-7.842824327724843e-05,-7.479394900335335e-05,-8.341831191327672e-05,-8.085663738514816e-05,-7.621193767376777e-05,-7.881479603565537e-05,-9.006032932826598e-05,-7.228451453803571e-05,-7.280450179954926e-05,-8.764749895722032e-05,-7.202529206848884e-05,-8.458829758017532e-05,-7.849293589843058e-05,-9.076057715654218e-05,-7.125283348999488e-05,-7.740575048839494e-05,-6.703352514245295e-05,-8.211298109851816e-05,-7.920446766932213e-05,-7.602497583424426e-05,-8.088129162695131e-05,-7.218201308170006e-05,-8.872095904901168e-05,-8.600067321961327e-05,-7.61799408931872e-05,-7.764472326171094e-05,-7.232111416476255e-05,-8.025585362947053e-05,-8.645186772665472e-05,-7.18449160890058e-05,-8.1712668381105e-05,-7.086204461642103e-05,-7.691548549350598e-05,-7.765504714119526e-05,-7.658596848413291e-05,-8.51892999245598e-05,-8.616692354255572e-05,-8.065694301997403e-05,-7.797651468895327e-05,-8.633099762055386e-05,-8.708553195266117e-05,-8.851697784190054e-05,-7.879209517034405e-05,-8.71013403956085e-05,-8.48816214905993e-05,-8.004948588623118e-05,-8.182067860766931e-05,-9.253710580693273e-05,-9.945328896360124e-05,-8.543889657251655e-05,-8.186552858236546e-05,-8.160293658146852e-05,-7.580643821225062e-05,-8.442475701598758e-05,-7.61774499399731e-05,-7.931383719545178e-05,-7.171370330211289e-05,-8.162141751521746e-05,-7.533519973849702e-05,-8.807320520104865e-05,-8.647299620235767e-05,-7.302485171563924e-05,-8.043386632015315e-05,-7.815612274280895e-05,-7.870785711812447e-05,-8.572214732840088e-05,-7.907496578004122e-05,-6.57683158277802e-05,-7.527424987460707e-05,-7.752109204152515e-05,-7.719226154878585e-05,-7.469142759197097e-05,-7.989602884263074e-05,-7.395177486800144e-05,-7.674189912861167e-05,-7.483942737842252e-05,-7.638974864995346e-05,-8.177327662280031e-05,-6.845718300556085e-05,-7.299925611313832e-05,-8.502338587971439e-05,-7.63403699496434e-05,-7.530881151053701e-05,-7.679070049805919e-05,-7.48204704593001e-05,-7.659070268753618e-05,-8.208923849333423e-05,-7.699926152078682e-05,-7.562263334018001e-05,-6.644230001148884e-05,-7.81878754932019e-05,-8.47628244449151e-05,-8.632923247172426e-05,-6.612901533719988e-05,-7.628768865481253e-05,-7.696856738435201e-05,-7.376963993047152e-05,-7.445273995307345e-05,-7.7902307269162e-05,-7.92202133375406e-05,-7.277722829316475e-05,-8.415029651846358e-05,-7.95673961614841e-05,-7.005451082644995e-05,-8.431187331868817e-05,-7.45300309760947e-05,-7.561269230871516e-05,-9.280167550567786e-05,-8.412582836200961e-05,-9.298396495939285e-05,-8.387215292698126e-05,-8.72211057185805e-05,-9.658530402282086e-05,-7.431435780828247e-05,-8.02836417962428e-05,-7.416438115957431e-05,-7.976735607545742e-05,-8.521936798012426e-05,-8.850372013096998e-05,-8.308075035296616e-05,-7.42751936605833e-05,-7.648905042310077e-05,-9.111891146674762e-05,-8.310534109629364e-05,-8.784820584129208e-05,-8.134945879283754e-05,-8.50474171567399e-05,-7.456799597651478e-05,-7.10978286671402e-05,-7.79777465105255e-05,-6.944061884432718e-05,-7.522540489228127e-05,-8.955599596759818e-05,-7.360766222205195e-05,-8.542545457254476e-05,-8.042445581531885e-05,-8.620134791817295e-05,-7.850295443845476e-05,-8.539199660671164e-05,-8.777103863658083e-05,-6.600825428029198e-05,-8.347680221668755e-05,-6.962542181892472e-05,-8.083116727786306e-05,-7.483032841144574e-05,-7.402872041606767e-05,-8.114873566148795e-05,-7.932184163221899e-05,-0.00020375899806877428,-9.419614743132011e-05,-8.090805551421468e-05,-7.7561400203144e-05,-7.609079098175243e-05,-7.421559141510978e-05,-7.496772952468588e-05,-8.112921753078241e-05,-7.760158731330521e-05,-6.997503020229738e-05,-6.680987681638248e-05,-7.553227672153346e-05,-6.835472281488114e-05,-8.244993781239867e-05,-7.578028903166654e-05,-8.502239541589893e-05,-7.785108787899097e-05,-8.382078145359596e-05,-7.580666448622815e-05,-7.022103889551088e-05,-8.022243753498736e-05,-7.439960497860969e-05,-8.182689899698814e-05,-6.980260735246977e-05,-7.69452662601116e-05,-7.616079306991825e-05,-7.308644145435675e-05,-7.609151520244097e-05,-7.545219128177388e-05,-7.250018692085797e-05,-6.915935163597132e-05,-8.047688878553622e-05,-7.99293512927188e-05,-8.449636982712617e-05,-8.628303312561854e-05,-7.958609372244924e-05,-8.425937892248441e-05,-7.450818474503279e-05,-8.449889870398326e-05,-7.539639319452245e-05,-8.207971224705398e-05,-7.855697157375183e-05,-7.635773465489357e-05,-7.811586044602649e-05,-8.094038322968999e-05,-7.86838474904592e-05,-7.94614727897762e-05,-7.018022472047662e-05,-8.092190271037441e-05,-7.288325982999351e-05,-7.060815603421349e-05,-8.393492490798278e-05,-7.062423633970229e-05,-8.089810134146594e-05,-8.032138550581906e-05,-6.67590039192248e-05,-8.256484305644278e-05,-8.163882952071e-05,-7.559672428395376e-05,-7.53397703231769e-05,-8.966252100664746e-05,-8.428090671489788e-05,-8.098364807541416e-05,-7.7528199224886e-05,-7.318548402768712e-05,-7.941335950752036e-05,-8.876297017720028e-05,-7.74999938955239e-05,-8.266575813210952e-05,-8.763938242047537e-05,-7.530483225650579e-05,-8.22948869147447e-05,-7.851970834088555e-05,-8.094276812132532e-05,-7.73051840811623e-05,-8.82062882248395e-05,-8.26775855326142e-05,-9.303285052926705e-05,-7.713979680696387e-05,-8.122217574698526e-05,-8.827273864569436e-05,-7.904841190441264e-05,-6.480783815409255e-05,-8.075896431729494e-05,-8.719019399568621e-05,-7.714073027939087e-05,-8.482390225058765e-05,-6.897527638416493e-05,-8.612422994764547e-05,-9.017294800284942e-05,-7.324313883209671e-05,-8.156166923995883e-05,-7.867089674306135e-05,-7.856958981928818e-05,-8.393312701947988e-05,-7.799385846514178e-05,-8.460716602417929e-05,-7.55458617379326e-05,-7.663152805184512e-05,-8.522489439332523e-05,-8.21083588676211e-05,-7.784766635087807e-05,-7.436256387462722e-05,-7.924662752386099e-05,-7.401689566121271e-05,-7.630857718325443e-05,-9.978907616888118e-05,-7.421869357950457e-05,-7.833679138192174e-05,-7.92994262975478e-05,-8.19831593031017e-05,-8.203678178901148e-05,-7.412161879209877e-05,-8.265832682757806e-05,-8.736448223697939e-05,-8.142289705516178e-05,-8.330455561052509e-05,-9.309753545143457e-05,-0.00010372442704459601,-7.082889461746628e-05,-9.13452109764804e-05,-8.484857716051035e-05,-8.084607870422486e-05,-8.339253338026943e-05,-7.063413663718574e-05,-8.242652548506604e-05,-8.252314976341938e-05,-7.541279430729849e-05,-8.082212258349603e-05,-7.444899464612111e-05,-8.438720516610428e-05,-8.618610708435545e-05,-8.294222520574802e-05,-7.508795265689974e-05,-8.634482329352423e-05,-8.300740812977246e-05,-7.495648994856196e-05,-8.817620612229033e-05,-9.673548629602263e-05,-9.263312738158181e-05,-8.202740804421945e-05,-7.690134918256516e-05,-7.751621363091365e-05,-7.757021500492087e-05,-8.928134383901942e-05,-8.241250145086738e-05,-6.549368734015061e-05,-8.016982585914698e-05,-8.16588840124207e-05,-8.469465191254426e-05,-8.772274327249445e-05,-8.39677417849537e-05,-8.149390803634471e-05,-8.389889037827513e-05,-9.336960094558991e-05,-7.947329698467221e-05,-7.142352566206184e-05,-8.294970800875455e-05,-7.445123729675044e-05,-8.627691490509127e-05,-8.571064890687408e-05,-7.941296455224305e-05,-7.970809552608046e-05,-7.792644385715047e-05,-8.075439788930984e-05,-7.557420481115848e-05,-7.857409157605876e-05,-8.248871778912096e-05,-9.16832403396288e-05,-7.197532424153995e-05,-8.48004677299232e-05,-8.506841454210024e-05,-7.749442624760933e-05,-8.591034986389587e-05,-7.473591288208002e-05,-8.367614357858491e-05,-7.41086157660957e-05,-7.555718614234768e-05,-9.355808649031904e-05,-7.948924125660651e-05,-7.610524766101132e-05,-9.209786354164413e-05,-7.844346854256204e-05,-8.612136110592745e-05,-8.82949137172946e-05,-8.001016671972669e-05,-6.915017693030437e-05,-7.468934423164973e-05,-8.27287769597588e-05,-7.948045711031629e-05,-7.804276945490471e-05,-8.314482469800542e-05,-8.931575407945003e-05,-8.416101232339734e-05,-9.024009383001716e-05,-6.916469133106954e-05,-8.323035130658904e-05,-7.809960924199698e-05,-7.819787605530902e-05,-6.897872313033198e-05,-8.260156778112847e-05,-7.885459182110108e-05,-8.326360870935097e-05,-8.761740282189446e-05,-8.124275614871407e-05,-8.44846093501164e-05,-8.893796703438175e-05,-7.558334794488815e-05,-8.389593030220785e-05,-9.05038935023312e-05,-7.96032047339654e-05,-8.315891368509218e-05,-8.18631450590294e-05,-7.161232214154779e-05,-9.049349237017835e-05,-8.278284442055721e-05,-8.475801614366467e-05,-9.101321826433837e-05,-8.238822284849638e-05,-7.693488284920876e-05,-9.008253639295399e-05,-8.683310057213278e-05,-7.034557070729208e-05,-9.898393461049812e-05,-0.00010018586779895843,-8.04394902338379e-05,-7.475895247363866e-05,-7.764820112220465e-05,-8.051282743554542e-05,-8.539582006866722e-05,-7.397926469952596e-05,-7.763051426386873e-05,-7.569706232051526e-05,-8.436307591980966e-05,-8.626238919207139e-05,-8.863189531234809e-05,-8.225819472078172e-05,-8.02039240461458e-05,-7.758264474892849e-05,-7.240723668249184e-05,-7.615362634893986e-05,-7.924060223496649e-05,-8.697709857177023e-05,-8.670950150542225e-05,-7.89221838456553e-05,-8.168443719071745e-05,-8.11263985346118e-05,-7.700488255887925e-05,-7.775377614482963e-05,-7.471476862944182e-05,-8.356083925901212e-05,-8.17804464030399e-05,-7.251483762908196e-05,-7.791360564717993e-05,-6.496288575330789e-05,-7.406222596855185e-05,-8.00220436867693e-05,-7.471639058188218e-05,-7.280078750856791e-05,-8.266135600630104e-05,-8.208249332423096e-05,-7.381069804003379e-05,-7.620236722241482e-05,-8.020850642238282e-05,-7.468375985859513e-05,-8.833100375293342e-05,-8.02087830208129e-05,-7.536076887084459e-05,-8.388487749876282e-05,-7.366816986497819e-05,-7.56989229936448e-05,-8.389489431831474e-05,-8.021276753054579e-05,-8.088665399425905e-05,-8.367240727602963e-05,-8.77647514809501e-05,-8.354857084623094e-05,-7.579307338349616e-05,-8.452727766071923e-05,-9.533501200874694e-05,-7.921844077330367e-05,-8.333340712576192e-05,-8.7962040845062e-05,-6.889173248185455e-05,-8.295064168764059e-05,-8.66726384875871e-05,-8.195843578587976e-05,-9.750425381351148e-05,-7.241674793578195e-05,-7.978646700873547e-05,-8.668151051024907e-05,-9.179754774997132e-05,-8.412491108215733e-05,-9.254772753507703e-05,-8.026219161900183e-05,-7.833000888426808e-05,-8.42297808019517e-05,-8.312438926917958e-05,-7.99476597274087e-05,-8.12832298417826e-05,-8.341662082600528e-05,-8.384697736001483e-05,-8.837535375918839e-05,-7.311381633226561e-05,-8.6653064052998e-05,-8.569039405792465e-05,-0.00010109276477636488,-8.633487703728098e-05,-6.302056893192314e-05,-6.973799273887144e-05,-8.134489273885104e-05,-8.600832359055507e-05,-7.929505393515065e-05,-8.070597682329938e-05,-8.831667340167765e-05,-7.974488148196087e-05,-7.552673715580792e-05,-8.561659810507448e-05,-8.295249387926511e-05,-7.762290697887079e-05,-7.93025168896247e-05,-8.523027146067597e-05,-7.745247719625312e-05,-8.5707191866131e-05,-8.393247638626238e-05,-8.503686289925952e-05,-8.906851794131331e-05,-8.985425455247549e-05,-0.00010117897522075743,-8.11547099495792e-05,-8.605689215130878e-05,-7.590080144719267e-05,-8.766689976478604e-05,-9.473894681609365e-05,-8.100582060103352e-05,-8.715807527155389e-05,-8.630410871535447e-05,-7.569817128091915e-05,-8.494847688570355e-05,-7.759644465090566e-05,-8.452233162741066e-05,-7.833930272814788e-05,-7.600412885185372e-05,-8.313883129612531e-05,-7.171373137182196e-05,-7.095274651446607e-05,-8.443646242669634e-05,-9.334618244544941e-05,-6.924906541315364e-05,-7.73354540295207e-05,-7.745149158830565e-05,-7.189028148234536e-05,-7.912580509381563e-05,-7.61310595075628e-05,-7.12094633221725e-05,-8.70377326106314e-05,-7.423775297947516e-05,-6.59866719548559e-05,-7.816225060243717e-05,-7.645812034806751e-05,-8.82464215468488e-05,-8.561890209483479e-05,-8.09032092446984e-05,-8.046987732641183e-05,-8.29075772904996e-05,-7.522442866839677e-05,-7.423153410220146e-05,-8.122128004773068e-05,-7.168446679320614e-05,-8.210633770911282e-05,-7.580117094870256e-05,-7.448078687579864e-05,-9.085335574685525e-05,-8.67381183041378e-05,-7.222117492431064e-05,-8.702936949090557e-05,-8.556784993752874e-05,-7.543150244359903e-05,-7.996015420247685e-05,-7.767671356462692e-05,-7.936012086928478e-05,-8.737913554533862e-05,-6.949206886147496e-05,-8.0672249477372e-05,-8.043145775332929e-05,-7.662350911758866e-05,-8.212329952189902e-05,-7.446277690437575e-05,-7.228329383414914e-05,-7.561841697751546e-05,-8.772550819799861e-05,-7.739571676740236e-05,-7.522533205117021e-05,-7.255706189373095e-05,-6.45613255411509e-05,-7.968469278025043e-05,-7.422691117650484e-05,-8.425200538641185e-05,-7.826568139887596e-05,-8.86490222954598e-05,-7.516976815902255e-05,-7.801257496744331e-05,-7.16450841868933e-05,-7.585552838155021e-05,-8.056141608648001e-05,-7.137453628468835e-05,-8.676593528364944e-05,-7.219194937656223e-05,-7.618039597394834e-05,-8.101380082800092e-05,-7.398338741855745e-05,-6.721229209898575e-05,-7.554646857400047e-05,-7.79769259385572e-05,-7.032661529186202e-05,-7.671061128756342e-05,-9.371603597020672e-05,-7.7430208839407e-05,-8.194601902710512e-05,-7.76619269735249e-05,-7.49085182756472e-05,-8.059201359135766e-05,-7.995196044763025e-05,-6.999711357641856e-05,-7.617115723621149e-05,-7.265891795959463e-05,-7.556249224795107e-05,-7.4747224303501e-05,-7.697673918936235e-05,-7.279078659987851e-05,-8.099195292157509e-05,-7.714665201459283e-05,-7.299477126083554e-05,-8.366395162934412e-05,-7.42515872740758e-05,-7.214218269624649e-05,-8.392757779362245e-05,-7.654531777561304e-05,-7.794429804023756e-05,-7.308614289705263e-05,-6.82701143942253e-05,-7.73379146538101e-05,-6.847652779342997e-05,-7.57813933710332e-05,-7.772636971371463e-05,-7.686711162091274e-05,-8.42468677970155e-05,-7.946508762558452e-05,-7.173743826141431e-05,-9.091118126267673e-05,-7.817525185832844e-05,-7.85458108220839e-05,-7.092254366732631e-05,-7.407806943786993e-05,-7.232630885888657e-05,-7.969853115731993e-05,-7.943114428863584e-05,-7.950753177793704e-05,-8.909545400451795e-05,-7.154556065526164e-05,-7.08769360467396e-05,-7.048237242647951e-05,-8.016263420150594e-05,-7.257804016467732e-05,-7.373851485261556e-05,-7.999517235267119e-05,-7.560135457982698e-05,-7.37792061793702e-05,-7.203966793508777e-05,-6.85067109919824e-05,-7.414211810718935e-05,-7.409786108861823e-05,-6.531960911895718e-05,-7.205544322497266e-05,-6.63477668095083e-05,-7.060436525202232e-05,-7.195704561857671e-05,-7.442996521828883e-05,-6.943583280124176e-05,-6.968257224273963e-05,-7.98508042387541e-05,-6.677984041910051e-05,-8.611961979761486e-05,-7.278791680181988e-05,-7.138684958208643e-05,-6.972801589131876e-05,-8.342727131789167e-05,-9.305353972551294e-05,-6.166061730936336e-05,-8.214180925422968e-05,-7.215738364381097e-05,-7.350776153213291e-05,-7.485110225812968e-05,-7.946937664150243e-05,-8.21453752937119e-05,-8.05765357806204e-05,-7.477638755894729e-05,-7.98800045154433e-05,-8.197723035194292e-05,-7.585780343035472e-05,-7.542718037299774e-05,-9.48038998116295e-05,-8.757700010351493e-05,-7.262074095341881e-05,-8.08206316777048e-05,-0.00011409909774474035,-8.614042227522958e-05,-6.713090020633305e-05,-7.369312131639394e-05,-7.709204928248516e-05,-7.241781125227634e-05,-6.789821114994094e-05,-7.676665105552139e-05,-7.13052329319158e-05,-7.169335992850885e-05,-7.974193310810484e-05,-7.562295105200057e-05,-7.24778652543217e-05,-7.470452435610545e-05,-8.161996949807739e-05,-8.247241378127197e-05,-7.018373425358976e-05,-8.104649462863344e-05,-7.446580687695235e-05,-7.347241930030905e-05,-7.905860061987466e-05,-7.34322555820653e-05,-7.635016905564672e-05,-8.302871426519176e-05,-8.12195387174205e-05,-7.483679183530853e-05,-8.133683759493392e-05,-8.838951983522619e-05,-7.851873764953145e-05,-8.356330903411835e-05,-8.048500085805657e-05,-7.358554646891467e-05,-8.239243038171404e-05,-8.19956971678941e-05,-6.502633698940883e-05,-7.815203500264737e-05,-8.142158303033792e-05,-6.977126840509324e-05,-9.051486636734888e-05,-8.22289733975599e-05,-7.292610363048012e-05,-7.71454246122818e-05,-8.186438118790966e-05,-7.76174729445398e-05,-7.82622878017509e-05,-8.734798369517733e-05,-8.297497712237057e-05,-7.957442744738353e-05,-8.31674294613947e-05,-7.232181016804305e-05,-8.100801433570269e-05,-8.487292315020554e-05,-7.141061972554415e-05,-7.51063406465333e-05,-8.156965749649058e-05,-7.171196032973127e-05,-7.933587779586408e-05,-7.935935178569542e-05,-7.792659881131482e-05,-7.756083342983202e-05,-8.802143236545979e-05,-8.406111630434847e-05,-8.070794549424016e-05,-9.660058396157398e-05,-9.38777374867652e-05,-6.504612243244374e-05,-7.713918813676395e-05,-7.772523928708717e-05,-6.987360257735387e-05,-7.432857630712185e-05,-7.07897335303281e-05,-7.922138895632412e-05,-8.297546065776654e-05,-8.013819634713785e-05,-8.233778628319843e-05,-8.492184064771761e-05,-7.791278678881414e-05,-8.898129115821467e-05,-7.974227262933367e-05,-6.801103267926478e-05,-7.743423937963708e-05,-7.948576092434014e-05,-7.616655074520595e-05,-8.393402498816197e-05,-9.26468368605525e-05,-8.585818321100819e-05,-7.803277399003195e-05,-8.380157225512045e-05,-8.671164333246487e-05,-8.807266639981488e-05,-8.182793900853944e-05,-7.817780137089528e-05,-8.817706438744101e-05,-8.584387007768623e-05,-7.523075735205468e-05,-8.430701451785653e-05,-9.669408520329215e-05,-7.13563361890497e-05,-8.273522349016526e-05,-8.410346207221764e-05,-8.214832501126715e-05,-8.662574359735323e-05,-9.431927234136154e-05,-7.980446667137828e-05,-8.614811942245256e-05,-7.728751162022173e-05,-7.806157162019951e-05,-7.872464913576893e-05,-8.584097036246141e-05,-8.656480368254259e-05,-8.306773237891501e-05,-9.114456492896004e-05,-8.854409139588188e-05,-6.912685459836624e-05,-8.836466587412978e-05,-8.704314798443955e-05,-8.023953021905775e-05,-8.974673360292495e-05,-9.190107071213328e-05,-7.865061040512613e-05,-9.441569333321095e-05,-9.055127452805091e-05,-7.849484865291026e-05,-8.087578085191224e-05,-7.140411101737377e-05,-8.514911418402078e-05,-9.59268796607458e-05,-9.144816861098032e-05,-8.405933134578898e-05,-8.197547554318113e-05,-7.957660515547196e-05,-0.0004306706707354691
3,54758.624827944564,38873.5256654514,65173.02284991528,144570.77371536032,158214.0204525498,249730.26350914236,67822.94114740223,88130.21198829004,302105.4159191915,745601.6313974016,53433.01878689961,52168.2989423566,90954.53850827954,63936.31540185148,54385.03362579136,50169.15633580731,443818.0949765873,43681.05844805631,43498.86035114499,674060.3587241119,49760.08973022991,60497.11942233412,46275.9733389411,52529.824410238485,69502.01673588394,272582.5534613935,58304.07491529178,273930.65660690924,36756.946339558286,257233.3029635871,72206.15371419274,52759.01021070881,62208.35570975956,45438.301997683724,36812.27454688733,81121.7253374036,72307.34738729555,44011.2052054206,43740.76908559259,250088.81078723856,50126.8689963854,90660.82113765199,79309.43243524958,82022.3682537817,77718.40622757524,57331.60976397587,71558.79300537087,88947.43899192613,40053.86541242631,264942.14209551155,59802.3807771673,45818.89517883944,72186.1848763797,701170.4356278132,247493.63692339655,53111.48353771428,146262.7651179527,43824.12864610636,260538.68778374384,64643.24397455216,144851.14412599066,55239.05916758623,47033.0804525756,859034.5266411015,49223.389887226316,47043.53661420483,301588.5130527937,60106.76772411195,64468.0668034032,256664.5197613042,37114.55348515069,62167.776947961014,45001.09730560569,334357.71481129294,42525.71948016528,128349.85995871163,897981.1471089165,44289.42878459004,703478.2076799411,40965.57028391814,204693.30817044902,115817.53510233037,86022.467063756,607865.9281816779,192744.85039105496,252327.70927208918,36589.135313401006,48994.32674566464,54500.48182824265,40490.34762692615,60344.23457668541,157337.70408323128,37980.33445661582,247717.63860379744,91867.3758437283,49069.12383058731,47191.14456399661,55643.10989386983,52414.51777216008,419046.1013136428,51849.06057639622,89695.16401985755,43513.292077936974,64698.43354381648,230325.59266614544,94469.69007131555,46481.16410492684,50610.99127973214,49038.968739806194,80707.6608359074,47065.854027051384,31970.219120287493,275282.65108127944,50382.471605300045,61623.28743860744,47163.47933567532,42727.897235972014,40817.0220513569,47713.57595946161,270409.4364567781,275967.12831044925,47769.201449644,41968.406392724886,485268.09416900063,91817.31831758024,40831.90745455406,288990.98534710146,55625.21119843514,52922.10144578024,57881.61594017381,268849.0250371061,45998.830144990905,253869.91805590884,75909.02153259853,230809.99089808087,65641.29155189799,305384.55135950306,43151.14618880471,120971.47655432677,266116.8546724203,52174.651593407856,46819.22823250237,105380.15831173726,49602.41438889691,27633.98166165346,47980.083691994536,78632.7000066107,65754.87364465631,47441.67885512443,63062.38763945331,253072.55871129644,278231.4288656284,69698.7304032747,43429.45522686411,205915.82644132306,62645.60139946582,107273.87840398787,335488.0782544607,56036.39329671983,42678.9721292527,58978.20194393126,69479.39697969842,34280.86206412393,57702.85734591145,46650.072555468105,62396.96737212584,45608.40119894089,41756.11499054765,51285.82893149003,65906.88886694293,49297.160202371204,181691.74891949925,337808.74540237524,137376.26198989453,45243.66741085144,185952.2870083962,44462.607806568645,236342.38033565786,48720.66698611224,56276.83636228604,45746.11999786879,758706.283655186,4.149674677286384,88081.91268288717,292103.442620856,45180.05249863711,70807.91321086256,68614.65633499273,115519.11372770248,45583.678114172835,69848.9155530896,83013.70456051291,317659.69231136783,96564.76679749602,39957.453658176266,47674.717238574354,49512.98196153153,103787.36343041399,55836.204444111245,58143.05704479578,49604.87509337216,44442.40237325912,60692.531411712844,46727.15974607086,48353.66704286945,874900.6769399312,239425.3113246818,263689.73825080955,80591.26329132286,264255.0995484628,43631.022241717874,65169.59264049779,677881.5001087288,346241.2778052999,49289.9929964772,52375.667294733306,58075.98736787144,52899.523892398,46398.82106432135,46392.38326354811,148740.84499989325,42651.3931794179,51045.71577412547,57491.954220790445,56411.133439751815,63774.16916387308,46188.18307528448,585198.5095914388,44521.624655259184,54334.632342260506,55406.51437499568,80069.06296105342,43550.25586365026,150271.19651429795,63849.3654915076,46849.800619077745,65017.88601567162,40586.850562523854,304990.1964732096,46800.0225437304,244753.517341004,57181.670468639015,86300.08853271208,50524.89300627814,53309.77099140859,243894.65344956773,621988.9953812165,46027.829811458054,57639.774808005706,51073.34595911788,56122.007948163584,165512.83448711343,279297.31286327774,49592.62429504299,61074.86209811589,77699.81708227328,824715.9672234175,51567.280226075134,619054.5370133778,51383.19658482897,48791.61667977812,51769.86861487768,232843.0181722939,55435.622955318315,47872.092522847845,285428.687133305,62943.97846511289,57872.66306759556,61926.71529527205,76564.82029612442,956190.0667745499,623651.4601604026,45906.16863717135,49127.08317127005,46664.17728623983,43906.61444411716,528138.7797525384,59791.0286670809,43470.337649324276,76032.69402447646,280453.70818373916,72729.03740650692,299776.86009146384,908197.2144096831,42216.9540714492,69521.754937888,58944.81863713957,49465.595680717975,139528.87541424326,47757.41685124447,49487.38071327715,48422.20696897023,223890.54731972824,88318.4139370066,79381.20676559038,50324.85537519689,69140.5131933551,68529.54326123018,39537.369233355275,62126.97123845196,61075.40349758033,378002.8945338513,132668.66804114546,54450.879110784044,45618.744113450804,34038.78759237331,65184.091456074246,52598.35760148226,51149.51725888278,48299.17275567572,64674.741149318885,55040.450132163576,81962.38693198632,53598.268275350754,55084.632449712706,67767.98193721143,530955.5355515395,129937.94648435354,54430.183867320105,54942.44247453946,59361.375904453904,60378.45834139099,59909.132199560074,78951.45405509417,302480.1511032843,66382.67175710338,48803.122387965304,52473.72397480957,28282.907814184597,101329.48350090445,57421.27443043966,729515.192365604,59342.33414919567,77819.48758267544,591994.8629593884,130173.998706194,59998.136525846465,49702.627076984165,737963.1826125846,67395.18135588616,47232.27081160133,46048.82058119662,53785.049804676346,51434.96539668167,44728.56279604724,42600.43563467286,50234.01082318397,294493.405326389,51807.87942443108,58343.48683611295,66162.91041433605,36718.8984206028,59630.92672002516,252202.45224563085,47058.73282819954,53165.224407807,56240.217162882116,700904.2708713213,61032.463987966294,43840.157853097524,60388.8279240947,74615.7643165943,741580.7621600851,97703.37378812973,66402.80644533447,107634.67851812298,490604.3376924575,151593.48051025916,38937.26550639536,75019.13920095425,49589.84619269232,60392.48121160219,40715.96853737579,57838.538930105744,48366.482436599945,47464.63994940161,47054.091372817995,44722.00342565998,107853.6037810129,52612.29073223204,47060.003305225095,61919.33919053462,110146.97999563169,111398.64193648844,811398.3955723074,170130.68498534427,51079.74925063619,57051.446312886736,54617.78878956732,53171.948480607505,798075.9657892181,613775.9162179308,314982.0859863326,71711.35972541198,52103.760256374306,288378.9341630405,59037.95287510766,623782.2114151656,660408.4044837182,85884.14614687226,51230.23983208188,74577.9396795207,117379.68403832088,54233.22795916863,39013.58612842411,94986.04843725485,115310.26450789631,38768.771772561435,47685.93733920001,47812.56602001996,75433.20776761729,55515.706199116656,59323.557392917115,198402.4643873074,492710.5802289465,126209.82339830298,96860.15040709793,72222.12848865785,73338.29787270156,51942.322451304055,48666.46035752249,98271.66212970935,45871.65424486039,44455.11563082772,53675.75740094502,711186.7331123857,58363.582911556485,72466.63996246175,49569.25148184399,52795.05672821638,91414.95561079889,49580.26882300531,65576.49759384694,54979.91817026396,56205.39244834979,51511.61494660641,113621.66890497356,50956.759077334566,51982.57650400846,619831.5247986545,61273.379587455594,56117.14314401016,52448.2296634682,227809.28693724476,52063.587939424986,56220.90402356757,100511.46087496213,61679.22222054039,55597.95296656507,676057.1758205815,63335.92756119177,367425.78461469384,750644.3588709903,98314.32364903479,64168.34055431383,113401.44443013586,58152.788234827334,53884.86775143284,200232.54629084177,145406.8838254942,81395.59899086673,64764.74646766472,219731.12902482488,72439.36655245295,48453.05112605401,63125.634898150194,837832.1000119542,183045.20327706367,58779.56841152166,697595.3891492777,48728.235382380015,34290.55275561557,57488.36992507254,89213.78376069656,784578.5013418599,642923.045951674,80144.59985167366,53050.92474073934,87196.70028250148,48386.57113779045,50426.431212201096,52565.07389220606,50114.1220133385,104376.2458763696,59850.63862267499,103973.79367127072,71782.62175277162,59768.54075720493,68392.30977495169,63345.802190613234,88710.8241661904,51811.87101430115,85788.23341058193,61693.56093317752,48305.71789917186,242339.06927704957,112746.21189719766,72353.21327532842,50037.29290158708,60906.54033321922,47947.929845112536,857916.8964242237,52468.367653972535,392989.4501208549,53384.96157236759,109463.67292287899,63821.45367863167,283698.07567169983,105539.00464220274,47586.577381622374,60072.490764661896,53564.74597632073,71677.21406598524,187116.99260218212,58318.08566167394,123921.0455261698,326697.2425784441,753457.1570522407,63093.30615715039,53564.15443671538,71299.09338169316,697793.9312102445,53166.14147650298,54043.12506136349,45373.73418941469,88396.07006552606,56034.010479993056,77214.48347167611,804328.0446695166,59409.05976259266,72517.87097418186,50826.763096375056,69822.49914588199,52876.31001216374,591442.4139517458,55953.88226555983,818566.7918256995,57609.26687254307,47578.67241030986,89057.88128189369,738434.5955247909,754952.5125135024,110117.90739963115,95715.66828346964,109101.43158196533,51462.60675166427,338664.9293286881,51465.632074433044,51235.0503809976,57204.10432564219,58576.214504011885,65233.75233091341,52410.92909381445,59793.464777001245,49699.41392882622,302735.4040475493,814262.5224262115,54650.664995913896,52800.81114368446,46081.031310297265,88031.1464688007,215543.1407282889,677719.3387033837,855307.9489480022,49050.36543464814,49450.57379706355,60160.26868201274,78552.54123078949,744784.6862453009,79948.67913784523,250957.4228075483,863921.2849143698,61429.88188931917,193223.9662426759,87003.0361109103,789004.5872724869,60166.18735351853,729470.5216524125,52991.62573811185,103983.35782788518,54558.031331891354,155398.63689002045,79815.11199391627,603378.8664775161,57215.690002877425,712151.2152491736,54153.46703204255,771910.9975277515,47997.476493783404,47966.22601156904,85236.7438815099,58820.73555777505,43412.86895545373,75324.20941915564,51814.57132028729,98534.97654946377,54200.98933156339,127905.26223544014,90030.9218971419,192145.78882485436,51556.845905083755,57686.00587101403,151990.5644938988,61183.4885710311,63341.08198941243,112798.18481434241,97436.55809606897,62614.00866070338,60254.992758022294,68533.0901111141,48758.74369012149,51325.77254344002,54164.770932982814,51471.77865815168,681912.0460695555,66332.62818284522,66408.25433551123,58546.83360134316,60299.26611475205,62233.76250674678,88460.49146662813,856734.4900337852,46249.34317856755,115053.79541272414,58396.741891793754,73580.8776728645,68623.18248442399,57012.747740884355,53365.34161442339,63572.19293552945,74684.20569622617,723156.7355941683,47988.55206398967,50028.23284642954,63748.77139817094,104659.00594501052,56258.27441325129,428092.4947846093,48337.890684623504,52515.76311530465,56298.95343016806,49409.21136902323,48921.97805051788,64206.17330571668,736330.3753636199,176291.9639841326,56349.70637079785,695359.8122288331,86800.84329193705,58933.052960702546,557936.1514491921,38023.205686474044,50836.092645743425,782468.3840424033,52127.819459593695,515836.998519365,60705.150833708605,50293.581350670014,53456.340604238154,87461.24391852187,202756.23647811092,818484.8050228709,738707.2413896798,1610565.568241985,78014.99820454129,41750.40411421955,78924.92192420701,825718.8682013983,49606.67740831885,60753.809616398314,54121.93143401548,53522.270417782674,64018.199522177354,55026.98601701391,43977.20730289374,55101.407872073694,679822.5327620128,62700.42252048097,64157.02187695311,56940.59893735046,98978.19735883236,60791.22567357002,55497.60698134382,625755.7899959789,711832.3277766037,49911.93944029891,54095.88604434674,694963.1718885418,43282.22841685217,52235.78714795596,198064.19190742917,54214.250863455476,59590.05961573221,54431.31331155024,103694.03670353684,59018.35971735868,760114.8455020754,88822.89235273593,618248.518518225,718167.8848327223,53281.12264518526,120885.66118035579,950391.6417055957,47109.82876264528,53239.08600181143,47751.94042017801,53343.9228675735,60781.36527481176,661151.4139226032,798010.6788660893,56198.04026206765,766825.4614349665,64330.49400514607,94147.92032800823,61555.84692197589,63398.51288071772,175881.47390377408,51843.79277158766,94100.59531752972,652632.1086740203,61085.492714552056,84735.35775858827,46228.80200314043,53394.29674485799,649686.1902941583,56143.681733645935,258776.79541443835,843549.3674304837,60089.20002745015,55076.54868362982,75507.61195319086,772905.7425302113,801723.8225841318,272316.3037745912,61752.4719224393,978886.6507839821,73673.00747114957,387669.51977947564,89695.7916839539,59245.73357812128,185951.73143567814,229869.9970060872,50736.98106213089,682773.8710907539,44806.36169379668,831902.2697639804,58081.75082349476,72324.10357531384,67451.86495158174,54208.581640369805,762242.5859410706,866089.8129193645,46067.78924237336,54188.75647840926,115738.15540742596,64197.30058739373,55753.51784421902,369903.7462220539,168294.70443263886,768442.1509990733,120141.68717825465,49392.6001285707,60798.78240332743,817103.7810444271,58504.83530419652,65501.82268164896,248732.28147687027,60808.64462245344,49426.879753287736,49996.988302903206,58466.25833838932,70335.64491629452,62479.34626264637,66173.51470645607,70164.62025770659,59047.54671728346,87073.53905004484,52878.85970328876,60903.650927630224,377071.94753382285,670968.1748831491,51221.39114063378,68525.22216706575,56481.38090793861,70230.94906586858,804312.1023308536,50047.755950916646,62510.47576699595,56502.02040714589,57142.533708891795,736025.2482786239,729255.2584358135,134501.22532583965,69030.11481680846,114277.84279199637,55251.80605786056,653789.1841446008,84039.31559012353,54214.35691867149,626412.3639203825,758540.2910195084,94085.42901148382,53242.17552954413,63264.96805292129,61060.26917036478,59055.48400490757,53525.868069255215,70808.97710590447,55540.29967940931,649679.8184532387,120940.55745439068,102732.27655161121,758675.5315505089,88246.06118249863,180685.2725713335,751981.8237646616,96523.59489578428,707578.1393768969,-115205822649.92662
