,0,1,2,3,4,5,6,7,8,9,10,11,12,13,14,15,16,17,18,19,20,21,22,23,24,25,26,27,28,29,30,31,32,33,34,35,36,37,38,39,40,41,42,43,44,45,46,47,48,49,50,51,52,53,54,55,56,57,58,59,60,61,62,63,64,65,66,67,68,69,70,71,72,73,74,75,76,77,78,79,80,81,82,83,84,85,86,87,88,89,90,91,92,93,94,95,96,97,98,99,100,101,102,103,104,105,106,107,108,109,110,111,112,113,114,115,116,117,118,119,120,121,122,123,124,125,126,127,128,129,130,131,132,133,134,135,136,137,138,139,140,141,142,143,144,145,146,147,148,149,150,151,152,153,154,155,156,157,158,159,160,161,162,163,164,165,166,167,168,169,170,171,172,173,174,175,176,177,178,179,180,181,182,183,184,185,186,187,188,189,190,191,192,193,194,195,196,197,198,199,200,201,202,203,204,205,206,207,208,209,210,211,212,213,214,215,216,217,218,219,220,221,222,223,224,225,226,227,228,229,230,231,232,233,234,235,236,237,238,239,240,241,242,243,244,245,246,247,248,249,250,251,252,253,254,255,256,257,258,259,260,261,262,263,264,265,266,267,268,269,270,271,272,273,274,275,276,277,278,279,280,281,282,283,284,285,286,287,288,289,290,291,292,293,294,295,296,297,298,299,300,301,302,303,304,305,306,307,308,309,310,311,312,313,314,315,316,317,318,319,320,321,322,323,324,325,326,327,328,329,330,331,332,333,334,335,336,337,338,339,340,341,342,343,344,345,346,347,348,349,350,351,352,353,354,355,356,357,358,359,360,361,362,363,364,365,366,367,368,369,370,371,372,373,374,375,376,377,378,379,380,381,382,383,384,385,386,387,388,389,390,391,392,393,394,395,396,397,398,399,400,401,402,403,404,405,406,407,408,409,410,411,412,413,414,415,416,417,418,419,420,421,422,423,424,425,426,427,428,429,430,431,432,433,434,435,436,437,438,439,440,441,442,443,444,445,446,447,448,449,450,451,452,453,454,455,456,457,458,459,460,461,462,463,464,465,466,467,468,469,470,471,472,473,474,475,476,477,478,479,480,481,482,483,484,485,486,487,488,489,490,491,492,493,494,495,496,497,498,499,500,501,502,503,504,505,506,507,508,509,510,511,512,513,514,515,516,517,518,519,520,521,522,523,524,525,526,527,528,529,530,531,532,533,534,535,536,537,538,539,540,541,542,543,544,545,546,547,548,549,550,551,552,553,554,555,556,557,558,559,560,561,562,563,564,565,566,567,568,569,570,571,572,573,574,575,576,577,578,579,580,581,582,583,584,585,586,587,588,589,590,591,592,593,594,595,596,597,598,599,600,601,602,603,604,605,606,607,608,609,610,611,612,613,614,615,616,617,618,619,620,621,622,623,624,625,626,627,628,629,630,631,632,633,634,635,636,637,638,639,640,641,642,643,644,645,646,647,648,649,650,651,652,653,654,655,656,657,658,659,660,661,662,663,664,665,666,667,668,669,670,671,672,673,674,675,676,677,678,679,680,681,682,683,684,685,686,687,688,689,690,691,692,693,694,695,696,697,698,699,700,701,702,703,704,705,706,707,708,709,710,711,712,713,714,715,716,717,718,719,720,721,722,723,724,725,726,727,728,729,730,731,732,733,734,735,736,737,738,739,740,741,742,743,744,745,746,747,748,749,750,751,752,753,754,755,756,757,758,759,760,761,762,763,764,765,766,767,768,769,770,771,772,773,774,775,776,777,778,779,780,781,782
0,468.25440462415133,54298.562112987,54298.562112987,54298.562112987005,54298.562112987005,54298.562112987005,54298.562112987005,54298.562112987,54298.562112987,54298.562112987,54298.562112987,54298.562112987,54298.562112987005,54298.562112987005,54298.562112987005,54298.56211298701,54298.56211298701,54298.56211298701,54298.56211298701,54298.56211298702,54298.56211298702,54298.56211298702,54298.56211298702,54298.56211298702,54298.56211298702,54298.56211298702,54298.56211298703,54298.56211298703,54298.56211298703,54298.56211298703,54298.56211298703,54298.56211298703,54298.56211298703,54298.56211298703,54298.56211298703,54298.56211298703,54298.56211298703,54298.56211298703,54298.56211298703,54298.56211298703,54298.56211298703,54298.56211298703,54298.56211298703,54298.562112987034,54298.562112987034,54298.562112987034,54298.562112987034,54298.562112987034,54298.562112987034,54298.562112987034,54298.562112987034,54298.562112987034,54298.562112987034,54298.562112987034,54298.562112987034,54298.562112987034,54298.562112987034,54298.562112987034,54298.562112987034,54298.562112987034,54298.562112987034,54298.562112987034,54298.562112987034,54298.562112987034,54298.562112987034,54298.562112987034,54298.562112987034,54298.562112987034,54298.562112987034,54298.562112987034,54298.562112987034,54298.562112987034,54298.562112987034,54298.562112987034,54298.562112987034,54298.562112987034,54298.562112987034,54298.562112987034,54298.56211298703,54298.56211298703,54298.56211298703,54298.56211298703,54298.56211298703,54298.56211298703,54298.56211298703,54298.56211298703,54298.562112987034,54298.562112987034,54298.562112987034,54298.562112987034,54298.562112987034,54298.562112987034,54298.562112987034,54298.562112987034,54298.562112987034,54298.562112987034,54298.562112987034,54298.562112987034,54298.562112987034,54298.562112987034,54298.562112987034,54298.562112987034,54298.562112987034,54298.562112987034,54298.562112987034,54298.562112987034,54298.562112987034,54298.562112987034,54298.562112987034,54298.562112987034,54298.562112987034,54298.562112987034,54298.562112987034,54298.562112987034,54298.562112987034,54298.562112987034,54298.562112987034,54298.562112987034,54298.562112987034,54298.562112987034,54298.562112987034,54298.562112987034,54298.562112987034,54298.562112987034,54298.562112987034,54298.562112987034,54298.562112987034,54298.562112987034,54298.562112987034,54298.562112987034,54298.562112987034,54298.562112987034,54298.562112987034,54298.562112987034,54298.562112987034,54298.562112987034,54298.562112987034,54298.562112987034,54298.562112987034,54298.562112987034,54298.562112987034,54298.562112987034,54298.562112987034,54298.562112987034,54298.562112987034,54298.562112987034,54298.562112987034,54298.562112987034,54298.562112987034,54298.562112987034,54298.562112987034,54298.562112987034,54298.562112987034,54298.562112987034,54298.562112987034,54298.56211298703,54298.56211298703,54298.56211298703,54298.56211298703,54298.56211298703,54298.56211298703,54298.56211298703,54298.56211298703,54298.56211298703,54298.56211298703,54298.56211298703,54298.56211298703,54298.56211298703,54298.56211298703,54298.56211298703,54298.56211298703,54298.562112987034,54298.562112987034,54298.562112987034,54298.562112987034,54298.562112987034,54298.562112987034,54298.562112987034,54298.562112987034,54298.562112987034,54298.562112987034,54298.562112987034,54298.562112987034,54298.562112987034,54298.562112987034,54298.562112987034,54298.562112987034,54298.562112987034,54298.562112987034,54298.562112987034,54298.562112987034,54298.562112987034,54298.562112987034,54298.562112987034,54298.562112987034,54298.562112987034,54298.562112987034,54298.562112987034,54298.562112987034,54298.562112987034,54298.562112987034,54298.562112987034,54298.562112987034,54298.562112987034,54298.562112987034,54298.562112987034,54298.562112987034,54298.562112987034,54298.562112987034,54298.562112987034,54298.562112987034,54298.562112987034,54298.562112987034,54298.562112987034,54298.562112987034,54298.562112987034,54298.562112987034,54298.562112987034,54298.562112987034,54298.562112987034,54298.562112987034,54298.562112987034,54298.562112987034,54298.562112987034,54298.562112987034,54298.562112987034,54298.562112987034,54298.562112987034,54298.562112987034,54298.562112987034,54298.562112987034,54298.562112987034,54298.562112987034,54298.562112987034,54298.562112987034,54298.562112987034,54298.562112987034,54298.562112987034,54298.562112987034,54298.562112987034,54298.562112987034,54298.562112987034,54298.562112987034,54298.562112987034,54298.562112987034,54298.562112987034,54298.562112987034,54298.562112987034,54298.562112987034,54298.562112987034,54298.562112987034,54298.562112987034,54298.562112987034,54298.562112987034,54298.562112987034,54298.562112987034,54298.562112987034,54298.562112987034,54298.562112987034,54298.562112987034,54298.562112987034,54298.562112987034,54298.562112987034,54298.562112987034,54298.562112987034,54298.562112987034,54298.562112987034,54298.562112987034,54298.562112987034,54298.562112987034,54298.562112987034,54298.562112987034,54298.562112987034,54298.562112987034,54298.562112987034,54298.562112987034,54298.562112987034,54298.562112987034,54298.562112987034,54298.562112987034,54298.562112987034,54298.562112987034,54298.562112987034,54298.562112987034,54298.562112987034,54298.562112987034,54298.562112987034,54298.562112987034,54298.562112987034,54298.562112987034,54298.562112987034,54298.562112987034,54298.562112987034,54298.562112987034,54298.562112987034,54298.562112987034,54298.562112987034,54298.562112987034,54298.562112987034,54298.562112987034,54298.562112987034,54298.562112987034,54298.562112987034,54298.562112987034,54298.562112987034,54298.562112987034,54298.562112987034,54298.562112987034,54298.562112987034,54298.56211298703,54298.56211298703,54298.56211298703,54298.56211298703,54298.56211298703,54298.56211298703,54298.56211298703,54298.56211298703,54298.56211298703,54298.56211298703,54298.56211298703,54298.56211298703,54298.56211298703,54298.56211298703,54298.56211298703,54298.56211298703,54298.56211298703,54298.56211298703,54298.56211298703,54298.56211298703,54298.56211298703,54298.56211298703,54298.56211298703,54298.56211298703,54298.56211298703,54298.56211298703,54298.56211298703,54298.56211298703,54298.56211298703,54298.56211298703,54298.56211298703,54298.56211298703,54298.56211298703,54298.562112987034,54298.562112987034,54298.562112987034,54298.562112987034,54298.562112987034,54298.562112987034,54298.562112987034,54298.562112987034,54298.562112987034,54298.562112987034,54298.562112987034,54298.562112987034,54298.562112987034,54298.562112987034,54298.562112987034,54298.562112987034,54298.562112987034,54298.562112987034,54298.562112987034,54298.562112987034,54298.562112987034,54298.562112987034,54298.562112987034,54298.562112987034,54298.562112987034,54298.562112987034,54298.562112987034,54298.562112987034,54298.562112987034,54298.562112987034,54298.562112987034,54298.562112987034,54298.562112987034,54298.562112987034,54298.562112987034,54298.562112987034,54298.562112987034,54298.562112987034,54298.562112987034,54298.562112987034,54298.562112987034,54298.562112987034,54298.562112987034,54298.562112987034,54298.562112987034,54298.562112987034,54298.562112987034,54298.562112987034,54298.562112987034,54298.562112987034,54298.562112987034,54298.562112987034,54298.562112987034,54298.562112987034,54298.562112987034,54298.562112987034,54298.562112987034,54298.562112987034,54298.562112987034,54298.562112987034,54298.562112987034,54298.562112987034,54298.562112987034,54298.562112987034,54298.562112987034,54298.562112987034,54298.562112987034,54298.562112987034,54298.562112987034,54298.562112987034,54298.562112987034,54298.562112987034,54298.562112987034,54298.562112987034,54298.562112987034,54298.562112987034,54298.562112987034,54298.562112987034,54298.562112987034,54298.562112987034,54298.562112987034,54298.562112987034,54298.562112987034,54298.562112987034,54298.562112987034,54298.562112987034,54298.562112987034,54298.562112987034,54298.562112987034,54298.562112987034,54298.562112987034,54298.562112987034,54298.562112987034,54298.562112987034,54298.562112987034,54298.562112987034,54298.562112987034,54298.562112987034,54298.562112987034,54298.562112987034,54298.562112987034,54298.562112987034,54298.562112987034,54298.562112987034,54298.562112987034,54298.562112987034,54298.562112987034,54298.562112987034,54298.562112987034,54298.562112987034,54298.562112987034,54298.562112987034,54298.562112987034,54298.562112987034,54298.562112987034,54298.562112987034,54298.562112987034,54298.562112987034,54298.562112987034,54298.562112987034,54298.562112987034,54298.562112987034,54298.562112987034,54298.562112987034,54298.562112987034,54298.562112987034,54298.562112987034,54298.562112987034,54298.562112987034,54298.562112987034,54298.562112987034,54298.562112987034,54298.562112987034,54298.562112987034,54298.562112987034,54298.562112987034,54298.562112987034,54298.562112987034,54298.562112987034,54298.562112987034,54298.562112987034,54298.562112987034,54298.562112987034,54298.562112987034,54298.562112987034,54298.562112987034,54298.562112987034,54298.562112987034,54298.562112987034,54298.562112987034,54298.562112987034,54298.562112987034,54298.562112987034,54298.562112987034,54298.562112987034,54298.562112987034,54298.562112987034,54298.562112987034,54298.562112987034,54298.562112987034,54298.562112987034,54298.562112987034,54298.562112987034,54298.562112987034,54298.562112987034,54298.562112987034,54298.562112987034,54298.562112987034,54298.562112987034,54298.562112987034,54298.562112987034,54298.562112987034,54298.562112987034,54298.562112987034,54298.562112987034,54298.562112987034,54298.562112987034,54298.562112987034,54298.562112987034,54298.562112987034,54298.562112987034,54298.562112987034,54298.562112987034,54298.562112987034,54298.562112987034,54298.562112987034,54298.562112987034,54298.562112987034,54298.562112987034,54298.562112987034,54298.562112987034,54298.562112987034,54298.562112987034,54298.562112987034,54298.562112987034,54298.562112987034,54298.562112987034,54298.562112987034,54298.562112987034,54298.562112987034,54298.562112987034,54298.562112987034,54298.562112987034,54298.562112987034,54298.562112987034,54298.562112987034,54298.562112987034,54298.562112987034,54298.562112987034,54298.562112987034,54298.562112987034,54298.562112987034,54298.562112987034,54298.562112987034,54298.562112987034,54298.562112987034,54298.562112987034,54298.562112987034,54298.562112987034,54298.562112987034,54298.562112987034,54298.562112987034,54298.562112987034,54298.562112987034,54298.562112987034,54298.562112987034,54298.562112987034,54298.562112987034,54298.562112987034,54298.562112987034,54298.562112987034,54298.562112987034,54298.562112987034,54298.562112987034,54298.562112987034,54298.562112987034,54298.562112987034,54298.562112987034,54298.562112987034,54298.562112987034,54298.562112987034,54298.562112987034,54298.562112987034,54298.562112987034,54298.562112987034,54298.562112987034,54298.562112987034,54298.562112987034,54298.562112987034,54298.562112987034,54298.562112987034,54298.562112987034,54298.562112987034,54298.562112987034,54298.562112987034,54298.562112987034,54298.562112987034,54298.562112987034,54298.562112987034,54298.562112987034,54298.562112987034,54298.562112987034,54298.562112987034,54298.562112987034,54298.562112987034,54298.562112987034,54298.562112987034,54298.562112987034,54298.562112987034,54298.562112987034,54298.562112987034,54298.562112987034,54298.562112987034,54298.562112987034,54298.562112987034,54298.562112987034,54298.56211298703,54298.56211298703,54298.56211298703,54298.56211298703,54298.56211298703,54298.56211298703,54298.56211298703,54298.56211298703,54298.56211298703,54298.56211298703,54298.56211298703,54298.56211298703,54298.56211298703,54298.56211298703,54298.56211298703,54298.56211298703,54298.56211298703,54298.56211298703,54298.56211298703,54298.56211298703,54298.56211298703,54298.56211298703,54298.56211298703,54298.56211298703,54298.56211298703,54298.56211298703,54298.56211298703,54298.56211298703,54298.56211298703,54298.56211298703,54298.56211298703,54298.56211298703,54298.56211298703,54298.56211298703,54298.56211298703,54298.56211298703,54298.56211298703,54298.56211298703,54298.56211298703,54298.56211298703,54298.56211298703,54298.56211298703,54298.56211298703,54298.56211298703,54298.56211298703,54298.56211298703,54298.56211298703,54298.56211298703,54298.56211298703,54298.56211298703,54298.56211298703,54298.56211298703,54298.56211298703,54298.56211298703,54298.56211298703,54298.56211298703,54298.56211298703,54298.56211298703,54298.56211298703,54298.56211298703,54298.56211298703,54298.56211298703,54298.56211298703,54298.56211298703,54298.56211298703,54298.562112987034,54298.562112987034,54298.562112987034,54298.562112987034,54298.562112987034,54298.562112987034,54298.562112987034,54298.562112987034,54298.562112987034,54298.562112987034,54298.562112987034,54298.562112987034,54298.562112987034,54298.562112987034,54298.562112987034,54298.562112987034,54298.562112987034,54298.562112987034,54298.562112987034,54298.562112987034,54298.562112987034,54298.562112987034,54298.562112987034,54298.562112987034,54298.562112987034,54298.562112987034,54298.562112987034,54298.562112987034,54298.562112987034,54298.562112987034,54298.562112987034,54298.562112987034,54298.562112987034,54298.562112987034,54298.562112987034,54298.562112987034,54298.562112987034,54298.562112987034,54298.562112987034,54298.562112987034,54298.562112987034,54298.562112987034,54298.562112987034,54298.562112987034,54298.562112987034,54298.562112987034,54298.562112987034,54298.562112987034,54298.562112987034,54298.562112987034,54298.562112987034,54298.562112987034,54298.562112987034,54298.562112987034,54298.562112987034,54298.562112987034,54298.562112987034,54298.562112987034,54298.562112987034,54298.562112987034,54298.562112987034,54298.562112987034,54298.562112987034,54298.562112987034,54298.562112987034,54298.562112987034,54298.562112987034,54298.562112987034,54298.562112987034,54298.562112987034,54298.562112987034,54298.562112987034,54298.562112987034,54298.562112987034,54298.562112987034,54298.562112987034,54298.562112987034,54298.562112987034,54298.562112987034,54298.562112987034,54298.562112987034,54298.562112987034,54298.562112987034,54298.562112987034,54298.562112987034,54298.562112987034,54298.562112987034,54298.562112987034,54298.562112987034,54298.562112987034,54298.562112987034,54298.562112987034,54298.562112987034,54298.562112987034,54298.562112987034,54298.562112987034,54298.562112987034,54298.562112987034,54298.562112987034,54298.562112987034
1,147.0437541861901,1589.2458303890692,1589.2458303890692,1589.2458303890692,1589.2458303890692,1589.2458303890692,1589.2458303890692,1589.2458303890692,1589.2458303890692,1589.2458303890692,1589.2458303890692,1589.2458303890692,1589.2458303890692,1589.2458303890694,1589.2458303890694,1589.2458303890696,1589.2458303890696,1589.2458303890696,1589.2458303890699,1589.2458303890699,1589.2458303890699,1589.2458303890699,1589.2458303890699,1589.2458303890696,1589.2458303890696,1589.2458303890694,1589.2458303890694,1589.2458303890692,1589.2458303890692,1589.2458303890692,1589.2458303890692,1589.245830389069,1589.245830389069,1589.245830389069,1589.245830389069,1589.2458303890687,1589.2458303890687,1589.2458303890687,1589.2458303890687,1589.2458303890687,1589.2458303890685,1589.2458303890685,1589.2458303890685,1589.2458303890687,1589.2458303890687,1589.245830389069,1589.245830389069,1589.2458303890692,1589.2458303890692,1589.2458303890694,1589.2458303890694,1589.2458303890696,1589.2458303890696,1589.2458303890696,1589.2458303890699,1589.2458303890699,1589.24583038907,1589.24583038907,1589.24583038907,1589.2458303890703,1589.2458303890703,1589.2458303890703,1589.2458303890703,1589.2458303890705,1589.2458303890705,1589.2458303890705,1589.2458303890708,1589.2458303890708,1589.2458303890708,1589.2458303890708,1589.2458303890708,1589.245830389071,1589.245830389071,1589.245830389071,1589.245830389071,1589.245830389071,1589.2458303890712,1589.2458303890712,1589.2458303890712,1589.2458303890712,1589.2458303890712,1589.2458303890714,1589.2458303890714,1589.2458303890714,1589.2458303890712,1589.2458303890712,1589.245830389071,1589.245830389071,1589.2458303890708,1589.2458303890705,1589.2458303890705,1589.2458303890703,1589.2458303890703,1589.24583038907,1589.24583038907,1589.2458303890699,1589.2458303890699,1589.2458303890699,1589.2458303890696,1589.2458303890696,1589.2458303890694,1589.2458303890694,1589.2458303890692,1589.2458303890692,1589.2458303890692,1589.245830389069,1589.245830389069,1589.2458303890687,1589.2458303890687,1589.2458303890687,1589.2458303890685,1589.2458303890685,1589.2458303890685,1589.2458303890683,1589.2458303890683,1589.2458303890683,1589.245830389068,1589.245830389068,1589.245830389068,1589.2458303890678,1589.2458303890678,1589.2458303890678,1589.2458303890678,1589.2458303890676,1589.2458303890676,1589.2458303890676,1589.2458303890676,1589.2458303890674,1589.2458303890674,1589.2458303890674,1589.2458303890671,1589.2458303890671,1589.2458303890671,1589.2458303890671,1589.2458303890671,1589.245830389067,1589.245830389067,1589.245830389067,1589.245830389067,1589.2458303890667,1589.2458303890667,1589.2458303890667,1589.2458303890667,1589.2458303890667,1589.2458303890664,1589.2458303890664,1589.2458303890664,1589.2458303890664,1589.2458303890664,1589.2458303890662,1589.2458303890662,1589.2458303890662,1589.2458303890662,1589.2458303890662,1589.245830389066,1589.245830389066,1589.245830389066,1589.245830389066,1589.245830389066,1589.245830389066,1589.2458303890658,1589.2458303890658,1589.2458303890658,1589.2458303890658,1589.2458303890658,1589.2458303890658,1589.2458303890658,1589.245830389066,1589.245830389066,1589.2458303890662,1589.2458303890664,1589.2458303890664,1589.2458303890667,1589.2458303890667,1589.245830389067,1589.245830389067,1589.2458303890671,1589.2458303890674,1589.2458303890674,1589.2458303890676,1589.2458303890676,1589.2458303890678,1589.2458303890678,1589.245830389068,1589.245830389068,1589.2458303890683,1589.2458303890683,1589.2458303890685,1589.2458303890685,1589.2458303890687,1589.2458303890687,1589.245830389069,1589.245830389069,1589.245830389069,1589.2458303890692,1589.2458303890692,1589.2458303890694,1589.2458303890694,1589.2458303890696,1589.2458303890696,1589.2458303890699,1589.2458303890699,1589.2458303890699,1589.24583038907,1589.24583038907,1589.2458303890703,1589.2458303890703,1589.2458303890703,1589.2458303890705,1589.2458303890705,1589.2458303890708,1589.2458303890708,1589.2458303890708,1589.245830389071,1589.245830389071,1589.245830389071,1589.2458303890712,1589.2458303890712,1589.2458303890712,1589.2458303890714,1589.2458303890714,1589.2458303890717,1589.2458303890717,1589.2458303890717,1589.245830389072,1589.245830389072,1589.245830389072,1589.2458303890721,1589.2458303890721,1589.2458303890721,1589.2458303890724,1589.2458303890724,1589.2458303890724,1589.2458303890724,1589.2458303890726,1589.2458303890726,1589.2458303890726,1589.2458303890728,1589.2458303890728,1589.2458303890728,1589.245830389073,1589.245830389073,1589.245830389073,1589.245830389073,1589.2458303890733,1589.2458303890733,1589.2458303890733,1589.2458303890735,1589.2458303890735,1589.2458303890735,1589.2458303890735,1589.2458303890737,1589.2458303890737,1589.2458303890737,1589.2458303890737,1589.245830389074,1589.245830389074,1589.245830389074,1589.2458303890742,1589.2458303890742,1589.2458303890742,1589.2458303890742,1589.2458303890744,1589.2458303890744,1589.2458303890744,1589.2458303890744,1589.2458303890744,1589.2458303890746,1589.2458303890746,1589.2458303890746,1589.2458303890746,1589.2458303890749,1589.2458303890749,1589.2458303890749,1589.2458303890749,1589.245830389075,1589.245830389075,1589.245830389075,1589.245830389075,1589.245830389075,1589.2458303890753,1589.2458303890753,1589.2458303890753,1589.2458303890753,1589.2458303890755,1589.2458303890755,1589.2458303890755,1589.2458303890755,1589.2458303890755,1589.2458303890758,1589.2458303890758,1589.2458303890758,1589.2458303890758,1589.2458303890758,1589.245830389076,1589.245830389076,1589.245830389076,1589.245830389076,1589.245830389076,1589.245830389076,1589.2458303890762,1589.2458303890762,1589.2458303890762,1589.2458303890762,1589.2458303890762,1589.2458303890764,1589.2458303890764,1589.2458303890764,1589.2458303890764,1589.2458303890764,1589.2458303890764,1589.2458303890767,1589.2458303890767,1589.2458303890767,1589.2458303890767,1589.2458303890767,1589.245830389077,1589.245830389077,1589.245830389077,1589.245830389077,1589.245830389077,1589.245830389077,1589.2458303890771,1589.2458303890771,1589.2458303890771,1589.2458303890771,1589.2458303890771,1589.2458303890771,1589.2458303890771,1589.2458303890774,1589.2458303890774,1589.2458303890774,1589.2458303890774,1589.2458303890774,1589.2458303890774,1589.2458303890776,1589.2458303890776,1589.2458303890776,1589.2458303890776,1589.2458303890776,1589.2458303890776,1589.2458303890776,1589.2458303890778,1589.2458303890778,1589.2458303890778,1589.2458303890778,1589.2458303890778,1589.2458303890778,1589.2458303890778,1589.245830389078,1589.245830389078,1589.245830389078,1589.245830389078,1589.245830389078,1589.245830389078,1589.245830389078,1589.2458303890783,1589.2458303890783,1589.2458303890783,1589.2458303890783,1589.2458303890783,1589.2458303890783,1589.2458303890783,1589.2458303890783,1589.2458303890785,1589.2458303890785,1589.2458303890785,1589.2458303890785,1589.2458303890785,1589.2458303890785,1589.2458303890785,1589.2458303890785,1589.2458303890787,1589.2458303890787,1589.2458303890787,1589.2458303890787,1589.2458303890787,1589.2458303890787,1589.2458303890787,1589.2458303890787,1589.245830389079,1589.245830389079,1589.245830389079,1589.245830389079,1589.245830389079,1589.245830389079,1589.245830389079,1589.245830389079,1589.245830389079,1589.2458303890792,1589.2458303890792,1589.2458303890792,1589.2458303890792,1589.2458303890792,1589.2458303890792,1589.2458303890792,1589.2458303890792,1589.2458303890792,1589.2458303890794,1589.2458303890794,1589.2458303890794,1589.2458303890794,1589.2458303890794,1589.2458303890794,1589.2458303890794,1589.2458303890794,1589.2458303890794,1589.2458303890794,1589.2458303890796,1589.2458303890796,1589.2458303890796,1589.2458303890796,1589.2458303890796,1589.2458303890796,1589.2458303890796,1589.2458303890796,1589.2458303890796,1589.2458303890796,1589.2458303890799,1589.2458303890799,1589.2458303890799,1589.2458303890799,1589.2458303890799,1589.2458303890799,1589.2458303890799,1589.2458303890799,1589.2458303890799,1589.2458303890799,1589.24583038908,1589.24583038908,1589.24583038908,1589.24583038908,1589.24583038908,1589.24583038908,1589.24583038908,1589.24583038908,1589.24583038908,1589.24583038908,1589.24583038908,1589.2458303890803,1589.2458303890803,1589.2458303890803,1589.2458303890803,1589.2458303890803,1589.2458303890803,1589.2458303890803,1589.2458303890803,1589.2458303890803,1589.2458303890803,1589.2458303890803,1589.2458303890803,1589.2458303890805,1589.2458303890805,1589.2458303890805,1589.2458303890805,1589.2458303890805,1589.2458303890805,1589.2458303890805,1589.2458303890805,1589.2458303890805,1589.2458303890805,1589.2458303890805,1589.2458303890805,1589.2458303890808,1589.2458303890808,1589.2458303890808,1589.2458303890808,1589.2458303890808,1589.2458303890808,1589.2458303890808,1589.2458303890808,1589.2458303890808,1589.2458303890808,1589.2458303890808,1589.2458303890808,1589.2458303890808,1589.245830389081,1589.245830389081,1589.245830389081,1589.245830389081,1589.245830389081,1589.245830389081,1589.245830389081,1589.245830389081,1589.245830389081,1589.245830389081,1589.245830389081,1589.245830389081,1589.245830389081,1589.245830389081,1589.2458303890812,1589.2458303890812,1589.2458303890812,1589.2458303890812,1589.2458303890812,1589.2458303890812,1589.2458303890812,1589.2458303890812,1589.2458303890812,1589.2458303890812,1589.2458303890812,1589.2458303890812,1589.2458303890812,1589.2458303890812,1589.2458303890812,1589.2458303890814,1589.2458303890814,1589.2458303890814,1589.2458303890814,1589.2458303890814,1589.2458303890814,1589.2458303890814,1589.2458303890814,1589.2458303890814,1589.2458303890814,1589.2458303890814,1589.2458303890814,1589.2458303890814,1589.2458303890814,1589.2458303890814,1589.2458303890817,1589.2458303890817,1589.2458303890817,1589.2458303890817,1589.2458303890817,1589.2458303890817,1589.2458303890817,1589.2458303890817,1589.2458303890817,1589.2458303890817,1589.2458303890817,1589.2458303890817,1589.2458303890817,1589.2458303890817,1589.2458303890817,1589.2458303890817,1589.2458303890817,1589.245830389082,1589.245830389082,1589.245830389082,1589.245830389082,1589.245830389082,1589.245830389082,1589.245830389082,1589.245830389082,1589.245830389082,1589.245830389082,1589.245830389082,1589.245830389082,1589.245830389082,1589.245830389082,1589.245830389082,1589.245830389082,1589.245830389082,1589.2458303890821,1589.2458303890821,1589.2458303890821,1589.2458303890821,1589.2458303890821,1589.2458303890821,1589.2458303890821,1589.2458303890821,1589.2458303890821,1589.2458303890821,1589.2458303890821,1589.2458303890821,1589.2458303890821,1589.2458303890821,1589.2458303890821,1589.2458303890821,1589.2458303890821,1589.2458303890821,1589.2458303890821,1589.2458303890824,1589.2458303890824,1589.2458303890824,1589.2458303890824,1589.2458303890824,1589.2458303890824,1589.2458303890824,1589.2458303890824,1589.2458303890824,1589.2458303890824,1589.2458303890824,1589.2458303890824,1589.2458303890824,1589.2458303890824,1589.2458303890824,1589.2458303890824,1589.2458303890824,1589.2458303890824,1589.2458303890824,1589.2458303890824,1589.2458303890826,1589.2458303890826,1589.2458303890826,1589.2458303890826,1589.2458303890826,1589.2458303890826,1589.2458303890826,1589.2458303890826,1589.2458303890826,1589.2458303890826,1589.2458303890826,1589.2458303890826,1589.2458303890826,1589.2458303890826,1589.2458303890826,1589.2458303890826,1589.2458303890826,1589.2458303890826,1589.2458303890826,1589.2458303890826,1589.2458303890826,1589.2458303890826,1589.2458303890828,1589.2458303890828,1589.2458303890828,1589.2458303890828,1589.2458303890828,1589.2458303890828,1589.2458303890828,1589.2458303890828,1589.2458303890828,1589.2458303890828,1589.2458303890828,1589.2458303890828,1589.2458303890828,1589.2458303890828,1589.2458303890828,1589.2458303890828,1589.2458303890828,1589.2458303890828,1589.2458303890828,1589.2458303890828,1589.2458303890828,1589.2458303890828,1589.2458303890828,1589.245830389083,1589.245830389083,1589.245830389083,1589.245830389083,1589.245830389083,1589.245830389083,1589.245830389083,1589.245830389083,1589.245830389083,1589.245830389083,1589.245830389083,1589.245830389083,1589.245830389083,1589.245830389083,1589.245830389083,1589.245830389083,1589.245830389083,1589.245830389083,1589.245830389083,1589.245830389083,1589.245830389083,1589.245830389083,1589.245830389083,1589.2458303890828,1589.2458303890826,1589.2458303890824,1589.2458303890824,1589.2458303890821,1589.245830389082,1589.245830389082,1589.2458303890817,1589.2458303890814,1589.2458303890812,1589.2458303890812,1589.245830389081,1589.2458303890808,1589.2458303890808,1589.2458303890805,1589.2458303890803,1589.24583038908,1589.24583038908,1589.2458303890799,1589.2458303890796,1589.2458303890796,1589.2458303890794,1589.2458303890792,1589.2458303890792,1589.245830389079,1589.2458303890787,1589.2458303890787,1589.2458303890785,1589.2458303890783,1589.2458303890783,1589.245830389078,1589.2458303890778,1589.2458303890776,1589.2458303890776,1589.2458303890774,1589.2458303890774,1589.2458303890771,1589.245830389077,1589.245830389077,1589.2458303890767,1589.2458303890764,1589.2458303890764,1589.2458303890762,1589.245830389076,1589.245830389076,1589.2458303890758,1589.2458303890755,1589.2458303890755,1589.2458303890753,1589.245830389075,1589.245830389075,1589.2458303890749,1589.2458303890749,1589.2458303890746,1589.2458303890744,1589.2458303890744,1589.2458303890742,1589.245830389074,1589.245830389074,1589.2458303890737,1589.2458303890737,1589.2458303890735,1589.2458303890733,1589.2458303890733,1589.245830389073,1589.2458303890728,1589.2458303890728,1589.2458303890726,1589.2458303890726,1589.2458303890724,1589.2458303890721,1589.2458303890721,1589.245830389072,1589.245830389072,1589.2458303890717,1589.2458303890714,1589.2458303890714,1589.2458303890712,1589.2458303890712,1589.245830389071,1589.245830389071,1589.2458303890708,1589.2458303890705,1589.2458303890705,1589.2458303890703,1589.2458303890703,1589.24583038907,1589.2458303890699,1589.2458303890699,1589.2458303890696,1589.2458303890696,1589.2458303890694,1589.2458303890694,1589.2458303890692,1589.2458303890692,1589.245830389069,1589.2458303890687,1589.2458303890687,1589.2458303890685,1589.2458303890685,1589.2458303890683,1589.2458303890683,1589.245830389068,1589.245830389068,1589.2458303890678,1589.2458303890676,1589.2458303890676,1589.2458303890674,1589.2458303890674,1589.2458303890671,1589.2458303890671,1589.245830389067,1589.245830389067,1589.2458303890667,1589.2458303890667,1589.2458303890664,1589.2458303890662,1589.2458303890662,1589.245830389066,1589.245830389066,1589.2458303890658,1589.2458303890658
2,-0.005697751749848878,-0.0317995200258303,-0.0317995200258303,-0.0317995200258303,-0.0317995200258303,-0.0317995200258303,-0.0317995200258303,-0.0317995200258303,-0.0317995200258303,-0.0317995200258303,-0.0317995200258303,-0.0317995200258303,-0.0317995200258303,-0.0317995200258303,-0.0317995200258303,-0.0317995200258303,-0.0317995200258303,-0.0317995200258303,-0.0317995200258303,-0.0317995200258303,-0.0317995200258303,-0.0317995200258303,-0.0317995200258303,-0.0317995200258303,-0.0317995200258303,-0.0317995200258303,-0.0317995200258303,-0.0317995200258303,-0.0317995200258303,-0.0317995200258303,-0.0317995200258303,-0.0317995200258303,-0.0317995200258303,-0.0317995200258303,-0.0317995200258303,-0.0317995200258303,-0.0317995200258303,-0.0317995200258303,-0.0317995200258303,-0.0317995200258303,-0.0317995200258303,-0.0317995200258303,-0.0317995200258303,-0.0317995200258303,-0.0317995200258303,-0.0317995200258303,-0.0317995200258303,-0.0317995200258303,-0.0317995200258303,-0.0317995200258303,-0.0317995200258303,-0.0317995200258303,-0.0317995200258303,-0.0317995200258303,-0.0317995200258303,-0.0317995200258303,-0.0317995200258303,-0.0317995200258303,-0.0317995200258303,-0.0317995200258303,-0.0317995200258303,-0.0317995200258303,-0.0317995200258303,-0.0317995200258303,-0.0317995200258303,-0.0317995200258303,-0.0317995200258303,-0.0317995200258303,-0.0317995200258303,-0.0317995200258303,-0.0317995200258303,-0.0317995200258303,-0.0317995200258303,-0.0317995200258303,-0.0317995200258303,-0.0317995200258303,-0.0317995200258303,-0.0317995200258303,-0.0317995200258303,-0.0317995200258303,-0.0317995200258303,-0.0317995200258303,-0.0317995200258303,-0.0317995200258303,-0.0317995200258303,-0.0317995200258303,-0.0317995200258303,-0.0317995200258303,-0.0317995200258303,-0.0317995200258303,-0.0317995200258303,-0.0317995200258303,-0.0317995200258303,-0.0317995200258303,-0.0317995200258303,-0.0317995200258303,-0.0317995200258303,-0.0317995200258303,-0.0317995200258303,-0.0317995200258303,-0.0317995200258303,-0.0317995200258303,-0.0317995200258303,-0.0317995200258303,-0.0317995200258303,-0.0317995200258303,-0.0317995200258303,-0.0317995200258303,-0.0317995200258303,-0.0317995200258303,-0.0317995200258303,-0.0317995200258303,-0.0317995200258303,-0.0317995200258303,-0.0317995200258303,-0.0317995200258303,-0.0317995200258303,-0.0317995200258303,-0.0317995200258303,-0.0317995200258303,-0.0317995200258303,-0.0317995200258303,-0.0317995200258303,-0.0317995200258303,-0.0317995200258303,-0.0317995200258303,-0.0317995200258303,-0.031799520025830294,-0.031799520025830294,-0.031799520025830294,-0.03179952002583029,-0.03179952002583029,-0.03179952002583028,-0.03179952002583028,-0.03179952002583027,-0.03179952002583027,-0.031799520025830266,-0.031799520025830266,-0.031799520025830266,-0.03179952002583026,-0.03179952002583026,-0.03179952002583025,-0.03179952002583025,-0.031799520025830245,-0.031799520025830245,-0.031799520025830245,-0.03179952002583024,-0.03179952002583024,-0.03179952002583024,-0.03179952002583023,-0.03179952002583023,-0.03179952002583023,-0.031799520025830225,-0.031799520025830225,-0.031799520025830225,-0.03179952002583022,-0.03179952002583022,-0.03179952002583022,-0.03179952002583021,-0.03179952002583021,-0.03179952002583021,-0.031799520025830204,-0.031799520025830204,-0.031799520025830204,-0.0317995200258302,-0.0317995200258302,-0.0317995200258302,-0.0317995200258302,-0.03179952002583019,-0.03179952002583019,-0.03179952002583019,-0.03179952002583018,-0.03179952002583018,-0.03179952002583018,-0.03179952002583018,-0.031799520025830176,-0.031799520025830176,-0.031799520025830176,-0.031799520025830176,-0.03179952002583017,-0.03179952002583017,-0.03179952002583017,-0.03179952002583017,-0.03179952002583016,-0.03179952002583016,-0.03179952002583016,-0.03179952002583016,-0.031799520025830155,-0.031799520025830155,-0.031799520025830155,-0.031799520025830155,-0.031799520025830155,-0.03179952002583015,-0.03179952002583015,-0.03179952002583015,-0.03179952002583015,-0.03179952002583014,-0.03179952002583014,-0.03179952002583014,-0.03179952002583014,-0.03179952002583014,-0.031799520025830134,-0.031799520025830134,-0.031799520025830134,-0.031799520025830134,-0.031799520025830134,-0.031799520025830134,-0.03179952002583013,-0.03179952002583013,-0.03179952002583013,-0.03179952002583013,-0.03179952002583013,-0.03179952002583012,-0.03179952002583012,-0.03179952002583012,-0.03179952002583012,-0.03179952002583012,-0.03179952002583012,-0.031799520025830114,-0.031799520025830114,-0.031799520025830114,-0.031799520025830114,-0.031799520025830114,-0.031799520025830114,-0.03179952002583011,-0.03179952002583011,-0.03179952002583011,-0.03179952002583011,-0.03179952002583011,-0.03179952002583011,-0.03179952002583011,-0.0317995200258301,-0.0317995200258301,-0.0317995200258301,-0.0317995200258301,-0.0317995200258301,-0.0317995200258301,-0.03179952002583009,-0.03179952002583009,-0.03179952002583009,-0.03179952002583009,-0.03179952002583009,-0.03179952002583009,-0.03179952002583009,-0.03179952002583009,-0.031799520025830086,-0.031799520025830086,-0.031799520025830086,-0.031799520025830086,-0.031799520025830086,-0.031799520025830086,-0.031799520025830086,-0.03179952002583008,-0.03179952002583008,-0.03179952002583008,-0.03179952002583008,-0.03179952002583008,-0.03179952002583008,-0.03179952002583008,-0.03179952002583008,-0.03179952002583008,-0.03179952002583007,-0.03179952002583007,-0.03179952002583007,-0.03179952002583007,-0.03179952002583007,-0.03179952002583007,-0.03179952002583007,-0.03179952002583007,-0.03179952002583007,-0.031799520025830065,-0.031799520025830065,-0.031799520025830065,-0.031799520025830065,-0.031799520025830065,-0.031799520025830065,-0.031799520025830065,-0.031799520025830065,-0.031799520025830065,-0.03179952002583006,-0.03179952002583006,-0.03179952002583006,-0.03179952002583006,-0.03179952002583006,-0.03179952002583006,-0.03179952002583006,-0.03179952002583006,-0.03179952002583006,-0.03179952002583006,-0.03179952002583005,-0.03179952002583005,-0.03179952002583005,-0.03179952002583005,-0.03179952002583005,-0.03179952002583005,-0.03179952002583005,-0.03179952002583005,-0.03179952002583005,-0.03179952002583005,-0.03179952002583005,-0.031799520025830044,-0.031799520025830044,-0.031799520025830044,-0.031799520025830044,-0.031799520025830044,-0.031799520025830044,-0.031799520025830044,-0.031799520025830044,-0.031799520025830044,-0.031799520025830044,-0.031799520025830044,-0.031799520025830044,-0.03179952002583004,-0.03179952002583004,-0.03179952002583004,-0.03179952002583004,-0.03179952002583004,-0.03179952002583004,-0.03179952002583004,-0.03179952002583004,-0.03179952002583004,-0.03179952002583004,-0.03179952002583004,-0.03179952002583004,-0.03179952002583003,-0.03179952002583003,-0.03179952002583003,-0.03179952002583003,-0.03179952002583003,-0.03179952002583003,-0.03179952002583003,-0.03179952002583003,-0.03179952002583003,-0.03179952002583003,-0.03179952002583003,-0.03179952002583003,-0.03179952002583003,-0.03179952002583003,-0.03179952002583002,-0.03179952002583002,-0.03179952002583002,-0.03179952002583002,-0.03179952002583002,-0.03179952002583002,-0.03179952002583002,-0.03179952002583002,-0.03179952002583002,-0.03179952002583002,-0.03179952002583002,-0.03179952002583002,-0.03179952002583002,-0.03179952002583002,-0.03179952002583002,-0.031799520025830016,-0.031799520025830016,-0.031799520025830016,-0.031799520025830016,-0.031799520025830016,-0.031799520025830016,-0.031799520025830016,-0.031799520025830016,-0.031799520025830016,-0.031799520025830016,-0.031799520025830016,-0.031799520025830016,-0.031799520025830016,-0.031799520025830016,-0.031799520025830016,-0.031799520025830016,-0.031799520025830016,-0.03179952002583001,-0.03179952002583001,-0.03179952002583001,-0.03179952002583001,-0.03179952002583001,-0.03179952002583001,-0.03179952002583001,-0.03179952002583001,-0.03179952002583001,-0.03179952002583001,-0.03179952002583001,-0.03179952002583001,-0.03179952002583001,-0.03179952002583001,-0.03179952002583001,-0.03179952002583001,-0.03179952002583001,-0.03179952002583001,-0.03179952002583,-0.03179952002583,-0.03179952002583,-0.03179952002583,-0.03179952002583,-0.03179952002583,-0.03179952002583,-0.03179952002583,-0.03179952002583,-0.03179952002583,-0.03179952002583,-0.03179952002583,-0.03179952002583,-0.03179952002583,-0.03179952002583,-0.03179952002583,-0.03179952002583,-0.03179952002583,-0.03179952002583,-0.031799520025829996,-0.031799520025829996,-0.031799520025829996,-0.031799520025829996,-0.031799520025829996,-0.031799520025829996,-0.031799520025829996,-0.031799520025829996,-0.031799520025829996,-0.031799520025829996,-0.031799520025829996,-0.031799520025829996,-0.031799520025829996,-0.031799520025829996,-0.031799520025829996,-0.031799520025829996,-0.031799520025829996,-0.031799520025829996,-0.031799520025829996,-0.031799520025829996,-0.031799520025829996,-0.031799520025829996,-0.03179952002582999,-0.03179952002582999,-0.03179952002582999,-0.03179952002582999,-0.03179952002582999,-0.03179952002582999,-0.03179952002582999,-0.03179952002582999,-0.03179952002582999,-0.03179952002582999,-0.03179952002582999,-0.03179952002582999,-0.03179952002582999,-0.03179952002582999,-0.03179952002582999,-0.03179952002582999,-0.03179952002582999,-0.03179952002582999,-0.03179952002582999,-0.03179952002582999,-0.03179952002582999,-0.03179952002582999,-0.03179952002582999,-0.03179952002582999,-0.03179952002582999,-0.03179952002582998,-0.03179952002582998,-0.03179952002582998,-0.03179952002582998,-0.03179952002582998,-0.03179952002582998,-0.03179952002582998,-0.03179952002582998,-0.03179952002582998,-0.03179952002582998,-0.03179952002582998,-0.03179952002582998,-0.03179952002582998,-0.03179952002582998,-0.03179952002582998,-0.03179952002582998,-0.03179952002582998,-0.03179952002582998,-0.03179952002582998,-0.03179952002582998,-0.03179952002582998,-0.03179952002582998,-0.03179952002582998,-0.03179952002582998,-0.03179952002582998,-0.03179952002582998,-0.03179952002582998,-0.031799520025829975,-0.031799520025829975,-0.031799520025829975,-0.031799520025829975,-0.031799520025829975,-0.031799520025829975,-0.031799520025829975,-0.031799520025829975,-0.031799520025829975,-0.031799520025829975,-0.031799520025829975,-0.031799520025829975,-0.031799520025829975,-0.031799520025829975,-0.031799520025829975,-0.031799520025829975,-0.031799520025829975,-0.031799520025829975,-0.031799520025829975,-0.031799520025829975,-0.031799520025829975,-0.031799520025829975,-0.031799520025829975,-0.031799520025829975,-0.03179952002582998,-0.03179952002582998,-0.03179952002582999,-0.03179952002582999,-0.031799520025829996,-0.031799520025829996,-0.03179952002583,-0.03179952002583,-0.03179952002583,-0.03179952002583001,-0.03179952002583001,-0.031799520025830016,-0.031799520025830016,-0.03179952002583002,-0.03179952002583002,-0.03179952002583003,-0.03179952002583003,-0.03179952002583004,-0.03179952002583004,-0.03179952002583004,-0.031799520025830044,-0.031799520025830044,-0.03179952002583005,-0.03179952002583005,-0.03179952002583006,-0.03179952002583006,-0.03179952002583006,-0.031799520025830065,-0.031799520025830065,-0.03179952002583007,-0.03179952002583007,-0.03179952002583008,-0.03179952002583008,-0.03179952002583008,-0.031799520025830086,-0.031799520025830086,-0.03179952002583009,-0.03179952002583009,-0.03179952002583009,-0.0317995200258301,-0.0317995200258301,-0.03179952002583011,-0.03179952002583011,-0.031799520025830114,-0.031799520025830114,-0.031799520025830114,-0.03179952002583012,-0.03179952002583012,-0.03179952002583012,-0.03179952002583013,-0.03179952002583013,-0.031799520025830134,-0.031799520025830134,-0.031799520025830134,-0.03179952002583014,-0.03179952002583014,-0.03179952002583015,-0.03179952002583015,-0.03179952002583015,-0.031799520025830155,-0.031799520025830155,-0.03179952002583016,-0.03179952002583016,-0.03179952002583016,-0.03179952002583017,-0.03179952002583017,-0.03179952002583017,-0.031799520025830176,-0.031799520025830176,-0.031799520025830176,-0.03179952002583018,-0.03179952002583018,-0.03179952002583019,-0.03179952002583019,-0.03179952002583019,-0.0317995200258302,-0.0317995200258302,-0.0317995200258302,-0.031799520025830204,-0.031799520025830204,-0.031799520025830204,-0.03179952002583021,-0.03179952002583021,-0.03179952002583022,-0.03179952002583022,-0.03179952002583022,-0.031799520025830225,-0.031799520025830225,-0.031799520025830225,-0.03179952002583023,-0.03179952002583023,-0.03179952002583023,-0.03179952002583024,-0.03179952002583024,-0.03179952002583024,-0.031799520025830245,-0.031799520025830245,-0.031799520025830245,-0.03179952002583025,-0.03179952002583025,-0.03179952002583025,-0.03179952002583026,-0.03179952002583026,-0.03179952002583026,-0.031799520025830266,-0.031799520025830266,-0.031799520025830266,-0.03179952002583027,-0.03179952002583027,-0.03179952002583027,-0.03179952002583028,-0.03179952002583028,-0.03179952002583028,-0.03179952002583028,-0.03179952002583029,-0.03179952002583029,-0.03179952002583029,-0.031799520025830294,-0.031799520025830294,-0.031799520025830294,-0.0317995200258303,-0.0317995200258303,-0.0317995200258303,-0.03179952002583031,-0.03179952002583031,-0.03179952002583031,-0.031799520025830315,-0.031799520025830315,-0.031799520025830315,-0.031799520025830315,-0.03179952002583032,-0.03179952002583032,-0.03179952002583032,-0.03179952002583033,-0.03179952002583033,-0.03179952002583033,-0.03179952002583033,-0.031799520025830336,-0.031799520025830336,-0.031799520025830336,-0.03179952002583034,-0.03179952002583034,-0.03179952002583034,-0.03179952002583035,-0.03179952002583035,-0.03179952002583035,-0.03179952002583035,-0.031799520025830356,-0.031799520025830356,-0.031799520025830356,-0.03179952002583036,-0.03179952002583036,-0.03179952002583036,-0.03179952002583036,-0.03179952002583037,-0.03179952002583037,-0.03179952002583037,-0.03179952002583037,-0.03179952002583038,-0.03179952002583038,-0.03179952002583038,-0.031799520025830384,-0.031799520025830384,-0.031799520025830384,-0.031799520025830384,-0.03179952002583039,-0.03179952002583039,-0.03179952002583039,-0.03179952002583039,-0.0317995200258304,-0.0317995200258304,-0.0317995200258304,-0.031799520025830405,-0.031799520025830405,-0.031799520025830405,-0.031799520025830405,-0.03179952002583041,-0.03179952002583041,-0.03179952002583041,-0.03179952002583041,-0.03179952002583042,-0.03179952002583042,-0.03179952002583042,-0.03179952002583042,-0.031799520025830426,-0.031799520025830426,-0.031799520025830426,-0.031799520025830426,-0.03179952002583043,-0.03179952002583043,-0.03179952002583043,-0.03179952002583043,-0.03179952002583044,-0.03179952002583044,-0.03179952002583044,-0.03179952002583044,-0.03179952002583045,-0.03179952002583045,-0.03179952002583045,-0.03179952002583045,-0.031799520025830454,-0.031799520025830454,-0.031799520025830454,-0.031799520025830454,-0.03179952002583046,-0.03179952002583046,-0.03179952002583046,-0.03179952002583046,-0.03179952002583047,-0.03179952002583047,-0.03179952002583047,-0.03179952002583047,-0.03179952002583047,-0.031799520025830474,-0.031799520025830474,-0.031799520025830474,-0.031799520025830474,-0.03179952002583048,-0.03179952002583048,-0.03179952002583048,-0.03179952002583048,-0.03179952002583049,-0.03179952002583049,-0.03179952002583049,-0.03179952002583049,-0.03179952002583049,-0.031799520025830495,-0.031799520025830495,-0.031799520025830495,-0.031799520025830495,-0.0317995200258305,-0.0317995200258305,-0.0317995200258305,-0.0317995200258305,-0.0317995200258305,-0.03179952002583051,-0.03179952002583051,-0.03179952002583051,-0.03179952002583051,-0.031799520025830516,-0.031799520025830516,-0.031799520025830516,-0.031799520025830516,-0.031799520025830516,-0.03179952002583052,-0.03179952002583052,-0.03179952002583052,-0.03179952002583052,-0.03179952002583053,-0.03179952002583053,-0.03179952002583053,-0.03179952002583053,-0.03179952002583053,-0.03179952002583054,-0.03179952002583054,-0.03179952002583054,-0.03179952002583054,-0.03179952002583054,-0.031799520025830544,-0.031799520025830544,-0.031799520025830544,-0.031799520025830544,-0.031799520025830544,-0.03179952002583055,-0.03179952002583055,-0.03179952002583055,-0.03179952002583055,-0.03179952002583055,-0.03179952002583056,-0.03179952002583056,-0.03179952002583056,-0.03179952002583056,-0.03179952002583056,-0.031799520025830565,-0.031799520025830565,-0.031799520025830565,-0.031799520025830565,-0.031799520025830565
3,0.8079861749852045,0.5655956369173849,0.5655956369173849,0.5655956369173849,0.5655956369173849,0.5655956369173849,0.5655956369173848,0.5655956369173848,0.5655956369173848,0.5655956369173848,0.5655956369173848,0.5655956369173848,0.5655956369173848,0.5655956369173848,0.5655956369173848,0.5655956369173848,0.5655956369173848,0.5655956369173848,0.5655956369173848,0.5655956369173848,0.5655956369173848,0.5655956369173848,0.5655956369173848,0.5655956369173848,0.5655956369173848,0.5655956369173848,0.5655956369173848,0.5655956369173848,0.5655956369173848,0.5655956369173848,0.5655956369173848,0.5655956369173849,0.5655956369173849,0.5655956369173849,0.565595636917385,0.565595636917385,0.5655956369173851,0.5655956369173851,0.5655956369173851,0.5655956369173852,0.5655956369173852,0.5655956369173852,0.5655956369173852,0.5655956369173853,0.5655956369173853,0.5655956369173853,0.5655956369173853,0.5655956369173853,0.5655956369173855,0.5655956369173855,0.5655956369173855,0.5655956369173855,0.5655956369173855,0.5655956369173856,0.5655956369173856,0.5655956369173856,0.5655956369173856,0.5655956369173856,0.5655956369173856,0.5655956369173856,0.5655956369173857,0.5655956369173857,0.5655956369173857,0.5655956369173857,0.5655956369173857,0.5655956369173857,0.5655956369173857,0.5655956369173857,0.5655956369173857,0.5655956369173858,0.5655956369173858,0.5655956369173858,0.5655956369173858,0.5655956369173858,0.5655956369173858,0.5655956369173858,0.5655956369173858,0.5655956369173858,0.5655956369173858,0.5655956369173858,0.5655956369173858,0.5655956369173858,0.5655956369173859,0.5655956369173859,0.5655956369173859,0.5655956369173859,0.5655956369173859,0.5655956369173859,0.5655956369173859,0.5655956369173859,0.5655956369173859,0.5655956369173859,0.5655956369173859,0.5655956369173859,0.5655956369173859,0.5655956369173859,0.5655956369173859,0.5655956369173859,0.5655956369173859,0.5655956369173859,0.565595636917386,0.565595636917386,0.565595636917386,0.565595636917386,0.565595636917386,0.565595636917386,0.565595636917386,0.565595636917386,0.565595636917386,0.565595636917386,0.565595636917386,0.565595636917386,0.565595636917386,0.565595636917386,0.565595636917386,0.5655956369173859,0.5655956369173858,0.5655956369173858,0.5655956369173857,0.5655956369173857,0.5655956369173857,0.5655956369173856,0.5655956369173856,0.5655956369173855,0.5655956369173855,0.5655956369173853,0.5655956369173853,0.5655956369173852,0.5655956369173852,0.5655956369173852,0.5655956369173851,0.5655956369173851,0.565595636917385,0.565595636917385,0.565595636917385,0.5655956369173849,0.5655956369173849,0.5655956369173849,0.5655956369173848,0.5655956369173848,0.5655956369173847,0.5655956369173847,0.5655956369173847,0.5655956369173846,0.5655956369173846,0.5655956369173846,0.5655956369173845,0.5655956369173845,0.5655956369173845,0.5655956369173845,0.5655956369173843,0.5655956369173843,0.5655956369173843,0.5655956369173842,0.5655956369173842,0.5655956369173842,0.5655956369173841,0.5655956369173841,0.5655956369173841,0.5655956369173841,0.565595636917384,0.565595636917384,0.565595636917384,0.565595636917384,0.5655956369173839,0.5655956369173839,0.5655956369173839,0.5655956369173839,0.5655956369173838,0.5655956369173838,0.5655956369173838,0.5655956369173838,0.5655956369173837,0.5655956369173837,0.5655956369173837,0.5655956369173837,0.5655956369173837,0.5655956369173836,0.5655956369173836,0.5655956369173836,0.5655956369173836,0.5655956369173835,0.5655956369173835,0.5655956369173835,0.5655956369173835,0.5655956369173835,0.5655956369173833,0.5655956369173833,0.5655956369173833,0.5655956369173833,0.5655956369173833,0.5655956369173833,0.5655956369173832,0.5655956369173832,0.5655956369173832,0.5655956369173832,0.5655956369173832,0.5655956369173831,0.5655956369173831,0.5655956369173831,0.5655956369173831,0.5655956369173831,0.5655956369173831,0.565595636917383,0.565595636917383,0.565595636917383,0.565595636917383,0.565595636917383,0.565595636917383,0.5655956369173829,0.5655956369173829,0.5655956369173829,0.5655956369173829,0.5655956369173829,0.5655956369173829,0.5655956369173829,0.5655956369173828,0.5655956369173828,0.5655956369173828,0.5655956369173828,0.5655956369173828,0.5655956369173828,0.5655956369173828,0.5655956369173827,0.5655956369173827,0.5655956369173827,0.5655956369173827,0.5655956369173827,0.5655956369173827,0.5655956369173827,0.5655956369173827,0.5655956369173827,0.5655956369173827,0.5655956369173827,0.5655956369173827,0.5655956369173826,0.5655956369173826,0.5655956369173826,0.5655956369173826,0.5655956369173826,0.5655956369173826,0.5655956369173826,0.5655956369173826,0.5655956369173825,0.5655956369173825,0.5655956369173825,0.5655956369173825,0.5655956369173825,0.5655956369173825,0.5655956369173825,0.5655956369173825,0.5655956369173825,0.5655956369173823,0.5655956369173823,0.5655956369173823,0.5655956369173823,0.5655956369173823,0.5655956369173823,0.5655956369173823,0.5655956369173823,0.5655956369173823,0.5655956369173822,0.5655956369173822,0.5655956369173822,0.5655956369173822,0.5655956369173822,0.5655956369173822,0.5655956369173822,0.5655956369173822,0.5655956369173822,0.5655956369173822,0.5655956369173822,0.5655956369173821,0.5655956369173821,0.5655956369173821,0.5655956369173821,0.5655956369173821,0.5655956369173821,0.5655956369173821,0.5655956369173821,0.5655956369173821,0.5655956369173821,0.5655956369173821,0.565595636917382,0.565595636917382,0.565595636917382,0.565595636917382,0.565595636917382,0.565595636917382,0.565595636917382,0.565595636917382,0.565595636917382,0.565595636917382,0.565595636917382,0.565595636917382,0.5655956369173819,0.5655956369173819,0.5655956369173819,0.5655956369173819,0.5655956369173819,0.5655956369173819,0.5655956369173819,0.5655956369173819,0.5655956369173819,0.5655956369173819,0.5655956369173819,0.5655956369173819,0.5655956369173819,0.5655956369173818,0.5655956369173818,0.5655956369173818,0.5655956369173818,0.5655956369173818,0.5655956369173818,0.5655956369173818,0.5655956369173818,0.5655956369173818,0.5655956369173818,0.5655956369173818,0.5655956369173818,0.5655956369173818,0.5655956369173818,0.5655956369173817,0.5655956369173817,0.5655956369173817,0.5655956369173817,0.5655956369173817,0.5655956369173817,0.5655956369173817,0.5655956369173817,0.5655956369173817,0.5655956369173817,0.5655956369173817,0.5655956369173817,0.5655956369173817,0.5655956369173817,0.5655956369173817,0.5655956369173817,0.5655956369173816,0.5655956369173816,0.5655956369173816,0.5655956369173816,0.5655956369173816,0.5655956369173816,0.5655956369173816,0.5655956369173816,0.5655956369173816,0.5655956369173816,0.5655956369173816,0.5655956369173816,0.5655956369173816,0.5655956369173816,0.5655956369173816,0.5655956369173816,0.5655956369173816,0.5655956369173815,0.5655956369173815,0.5655956369173815,0.5655956369173815,0.5655956369173815,0.5655956369173815,0.5655956369173815,0.5655956369173815,0.5655956369173815,0.5655956369173815,0.5655956369173815,0.5655956369173815,0.5655956369173815,0.5655956369173815,0.5655956369173815,0.5655956369173815,0.5655956369173815,0.5655956369173815,0.5655956369173815,0.5655956369173814,0.5655956369173814,0.5655956369173814,0.5655956369173814,0.5655956369173814,0.5655956369173814,0.5655956369173814,0.5655956369173814,0.5655956369173814,0.5655956369173814,0.5655956369173814,0.5655956369173814,0.5655956369173814,0.5655956369173814,0.5655956369173814,0.5655956369173814,0.5655956369173814,0.5655956369173814,0.5655956369173814,0.5655956369173814,0.5655956369173814,0.5655956369173812,0.5655956369173812,0.5655956369173812,0.5655956369173812,0.5655956369173812,0.5655956369173812,0.5655956369173812,0.5655956369173812,0.5655956369173812,0.5655956369173812,0.5655956369173812,0.5655956369173812,0.5655956369173812,0.5655956369173812,0.5655956369173812,0.5655956369173812,0.5655956369173812,0.5655956369173812,0.5655956369173812,0.5655956369173812,0.5655956369173812,0.5655956369173812,0.5655956369173812,0.5655956369173812,0.5655956369173811,0.5655956369173811,0.5655956369173811,0.5655956369173811,0.5655956369173811,0.5655956369173811,0.5655956369173811,0.5655956369173811,0.5655956369173811,0.5655956369173811,0.5655956369173811,0.5655956369173811,0.5655956369173811,0.5655956369173811,0.5655956369173811,0.5655956369173811,0.5655956369173811,0.5655956369173811,0.5655956369173811,0.5655956369173811,0.5655956369173811,0.5655956369173811,0.5655956369173811,0.5655956369173811,0.5655956369173811,0.5655956369173811,0.5655956369173811,0.565595636917381,0.565595636917381,0.565595636917381,0.565595636917381,0.565595636917381,0.565595636917381,0.565595636917381,0.565595636917381,0.5655956369173811,0.5655956369173811,0.5655956369173812,0.5655956369173812,0.5655956369173814,0.5655956369173814,0.5655956369173815,0.5655956369173815,0.5655956369173816,0.5655956369173816,0.5655956369173817,0.5655956369173817,0.5655956369173818,0.5655956369173818,0.5655956369173819,0.5655956369173819,0.565595636917382,0.565595636917382,0.5655956369173821,0.5655956369173821,0.5655956369173822,0.5655956369173822,0.5655956369173823,0.5655956369173823,0.5655956369173825,0.5655956369173825,0.5655956369173826,0.5655956369173826,0.5655956369173827,0.5655956369173827,0.5655956369173828,0.5655956369173828,0.5655956369173829,0.5655956369173829,0.565595636917383,0.565595636917383,0.565595636917383,0.5655956369173831,0.5655956369173831,0.5655956369173832,0.5655956369173832,0.5655956369173833,0.5655956369173833,0.5655956369173835,0.5655956369173835,0.5655956369173835,0.5655956369173836,0.5655956369173836,0.5655956369173837,0.5655956369173837,0.5655956369173838,0.5655956369173838,0.5655956369173838,0.5655956369173839,0.5655956369173839,0.565595636917384,0.565595636917384,0.5655956369173841,0.5655956369173841,0.5655956369173841,0.5655956369173842,0.5655956369173842,0.5655956369173843,0.5655956369173843,0.5655956369173843,0.5655956369173845,0.5655956369173845,0.5655956369173846,0.5655956369173846,0.5655956369173846,0.5655956369173847,0.5655956369173847,0.5655956369173848,0.5655956369173848,0.5655956369173848,0.5655956369173849,0.5655956369173849,0.565595636917385,0.565595636917385,0.565595636917385,0.5655956369173851,0.5655956369173851,0.5655956369173852,0.5655956369173852,0.5655956369173852,0.5655956369173853,0.5655956369173853,0.5655956369173853,0.5655956369173855,0.5655956369173855,0.5655956369173856,0.5655956369173856,0.5655956369173856,0.5655956369173857,0.5655956369173857,0.5655956369173857,0.5655956369173858,0.5655956369173858,0.5655956369173858,0.5655956369173859,0.5655956369173859,0.565595636917386,0.565595636917386,0.565595636917386,0.5655956369173861,0.5655956369173861,0.5655956369173861,0.5655956369173862,0.5655956369173862,0.5655956369173862,0.5655956369173863,0.5655956369173863,0.5655956369173863,0.5655956369173865,0.5655956369173865,0.5655956369173865,0.5655956369173866,0.5655956369173866,0.5655956369173866,0.5655956369173867,0.5655956369173867,0.5655956369173867,0.5655956369173868,0.5655956369173868,0.5655956369173868,0.5655956369173869,0.5655956369173869,0.5655956369173869,0.565595636917387,0.565595636917387,0.565595636917387,0.5655956369173871,0.5655956369173871,0.5655956369173871,0.5655956369173872,0.5655956369173872,0.5655956369173872,0.5655956369173872,0.5655956369173873,0.5655956369173873,0.5655956369173873,0.5655956369173875,0.5655956369173875,0.5655956369173875,0.5655956369173876,0.5655956369173876,0.5655956369173876,0.5655956369173877,0.5655956369173877,0.5655956369173877,0.5655956369173877,0.5655956369173878,0.5655956369173878,0.5655956369173878,0.5655956369173879,0.5655956369173879,0.5655956369173879,0.565595636917388,0.565595636917388,0.565595636917388,0.565595636917388,0.5655956369173881,0.5655956369173881,0.5655956369173881,0.5655956369173882,0.5655956369173882,0.5655956369173882,0.5655956369173882,0.5655956369173883,0.5655956369173883,0.5655956369173883,0.5655956369173885,0.5655956369173885,0.5655956369173885,0.5655956369173885,0.5655956369173886,0.5655956369173886,0.5655956369173886,0.5655956369173886,0.5655956369173887,0.5655956369173887,0.5655956369173887,0.5655956369173888,0.5655956369173888,0.5655956369173888,0.5655956369173888,0.5655956369173889,0.5655956369173889,0.5655956369173889,0.5655956369173889,0.565595636917389,0.565595636917389,0.565595636917389,0.565595636917389,0.5655956369173891,0.5655956369173891,0.5655956369173891,0.5655956369173891,0.5655956369173892,0.5655956369173892,0.5655956369173892,0.5655956369173893,0.5655956369173893,0.5655956369173893,0.5655956369173893,0.5655956369173895,0.5655956369173895,0.5655956369173895,0.5655956369173895,0.5655956369173896,0.5655956369173896,0.5655956369173896,0.5655956369173896,0.5655956369173896,0.5655956369173897,0.5655956369173897,0.5655956369173897,0.5655956369173897,0.5655956369173898,0.5655956369173898,0.5655956369173898,0.5655956369173898,0.5655956369173899,0.5655956369173899,0.5655956369173899,0.5655956369173899,0.56559563691739,0.56559563691739,0.56559563691739,0.56559563691739,0.5655956369173901,0.5655956369173901,0.5655956369173901,0.5655956369173901,0.5655956369173901,0.5655956369173902,0.5655956369173902,0.5655956369173902,0.5655956369173902,0.5655956369173903,0.5655956369173903,0.5655956369173903,0.5655956369173903,0.5655956369173905,0.5655956369173905,0.5655956369173905,0.5655956369173905,0.5655956369173905,0.5655956369173906,0.5655956369173906,0.5655956369173906,0.5655956369173906,0.5655956369173907,0.5655956369173907,0.5655956369173907,0.5655956369173907,0.5655956369173907,0.5655956369173908,0.5655956369173908,0.5655956369173908,0.5655956369173908,0.5655956369173908,0.5655956369173909,0.5655956369173909,0.5655956369173909,0.5655956369173909,0.565595636917391,0.565595636917391,0.565595636917391,0.565595636917391,0.565595636917391,0.5655956369173911,0.5655956369173911,0.5655956369173911,0.5655956369173911,0.5655956369173911,0.5655956369173912,0.5655956369173912,0.5655956369173912,0.5655956369173912,0.5655956369173912,0.5655956369173913,0.5655956369173913,0.5655956369173913,0.5655956369173913,0.5655956369173913,0.5655956369173915,0.5655956369173915,0.5655956369173915,0.5655956369173915,0.5655956369173915,0.5655956369173916,0.5655956369173916,0.5655956369173916,0.5655956369173916,0.5655956369173916,0.5655956369173917,0.5655956369173917,0.5655956369173917,0.5655956369173917,0.5655956369173917,0.5655956369173918,0.5655956369173918,0.5655956369173918,0.5655956369173918,0.5655956369173918,0.5655956369173919,0.5655956369173919,0.5655956369173919,0.5655956369173919,0.5655956369173919,0.5655956369173919,0.565595636917392,0.565595636917392,0.565595636917392,0.565595636917392,0.565595636917392,0.5655956369173921,0.5655956369173921,0.5655956369173921,0.5655956369173921,0.5655956369173921,0.5655956369173921,0.5655956369173922,0.5655956369173922,0.5655956369173922,0.5655956369173922,0.5655956369173922,0.5655956369173923
4,16316.05640630738,,,,,,,,,,,,,,,,,,,,,,,,,,,,,,,,,,,,,,,,,,,,,,,,,,,,,,,,,,,,,,,,,,,,,,,,,,,,,,,,,,,,,,,,,,,,,,,,,,,,,,,,,,,,,,,,,,,,,,,,,,,,,,,,,,,,,,,,,,,,,,,,,,,,,,,,,,,,,,,,,,,,,,,,,,,,,,,,,,,,,,,,,,,,,,,,,,,,,,,,,,,,,,,,,,,,,,,,,,,,,,,,,,,,,,,,,,,,,,,,,,,,,,,,,,,,,,,,,,,,,,,,,,,,,,,,,,,,,,,,,,,,,,,,,,,,,,,,,,,,,,,,,,,,,,,,,,,,,,,,,,,,,,,,,,,,,,,,,,,,,,,,,,,,,,,,,,,,,,,,,,,,,,,,,,,,,,,,,,,,,,,,,,,,,,,,,,,,,,,,,,,,,,,,,,,,,,,,,,,,,,,,,,,,,,,,,,,,,,,,,,,,,,,,,,,,,,,,,,,,,,,,,,,,,,,,,,,,,,,,,,,,,,,,,,,,,,,,,,,,,,,,,,,,,,,,,,,,,,,,,,,,,,,,,,,,,,,,,,,,,,,,,,,,,,,,,,,,,,,,,,,,,,,,,,,,,,,,,,,,,,,,,,,,,,,,,,,,,,,,,,,,,,,,,,,,,,,,,,,,,,,,,,,,,,,,,,,,,,,,,,,,,,,,,,,,,,,,,,,,,,,,,,,,,,,,,,,,,,,,,,,,,,,,,,,,,,,,,,,,,,,,,,,,,,,,,,,,,,,,,,,,,,,,,,,,,,,,,,,,,,,,,,,,,,,,,,,,,,,,,,,,,,,,,,,,,,,,,,,,,,
5,286.63468888261286,,,,,,,,,,,,,,,,,,,,,,,,,,,,,,,,,,,,,,,,,,,,,,,,,,,,,,,,,,,,,,,,,,,,,,,,,,,,,,,,,,,,,,,,,,,,,,,,,,,,,,,,,,,,,,,,,,,,,,,,,,,,,,,,,,,,,,,,,,,,,,,,,,,,,,,,,,,,,,,,,,,,,,,,,,,,,,,,,,,,,,,,,,,,,,,,,,,,,,,,,,,,,,,,,,,,,,,,,,,,,,,,,,,,,,,,,,,,,,,,,,,,,,,,,,,,,,,,,,,,,,,,,,,,,,,,,,,,,,,,,,,,,,,,,,,,,,,,,,,,,,,,,,,,,,,,,,,,,,,,,,,,,,,,,,,,,,,,,,,,,,,,,,,,,,,,,,,,,,,,,,,,,,,,,,,,,,,,,,,,,,,,,,,,,,,,,,,,,,,,,,,,,,,,,,,,,,,,,,,,,,,,,,,,,,,,,,,,,,,,,,,,,,,,,,,,,,,,,,,,,,,,,,,,,,,,,,,,,,,,,,,,,,,,,,,,,,,,,,,,,,,,,,,,,,,,,,,,,,,,,,,,,,,,,,,,,,,,,,,,,,,,,,,,,,,,,,,,,,,,,,,,,,,,,,,,,,,,,,,,,,,,,,,,,,,,,,,,,,,,,,,,,,,,,,,,,,,,,,,,,,,,,,,,,,,,,,,,,,,,,,,,,,,,,,,,,,,,,,,,,,,,,,,,,,,,,,,,,,,,,,,,,,,,,,,,,,,,,,,,,,,,,,,,,,,,,,,,,,,,,,,,,,,,,,,,,,,,,,,,,,,,,,,,,,,,,,,,,,,,,,,,,,,,,,,,,,,,,,,,,,
6,-0.006553854638219096,,,,,,,,,,,,,,,,,,,,,,,,,,,,,,,,,,,,,,,,,,,,,,,,,,,,,,,,,,,,,,,,,,,,,,,,,,,,,,,,,,,,,,,,,,,,,,,,,,,,,,,,,,,,,,,,,,,,,,,,,,,,,,,,,,,,,,,,,,,,,,,,,,,,,,,,,,,,,,,,,,,,,,,,,,,,,,,,,,,,,,,,,,,,,,,,,,,,,,,,,,,,,,,,,,,,,,,,,,,,,,,,,,,,,,,,,,,,,,,,,,,,,,,,,,,,,,,,,,,,,,,,,,,,,,,,,,,,,,,,,,,,,,,,,,,,,,,,,,,,,,,,,,,,,,,,,,,,,,,,,,,,,,,,,,,,,,,,,,,,,,,,,,,,,,,,,,,,,,,,,,,,,,,,,,,,,,,,,,,,,,,,,,,,,,,,,,,,,,,,,,,,,,,,,,,,,,,,,,,,,,,,,,,,,,,,,,,,,,,,,,,,,,,,,,,,,,,,,,,,,,,,,,,,,,,,,,,,,,,,,,,,,,,,,,,,,,,,,,,,,,,,,,,,,,,,,,,,,,,,,,,,,,,,,,,,,,,,,,,,,,,,,,,,,,,,,,,,,,,,,,,,,,,,,,,,,,,,,,,,,,,,,,,,,,,,,,,,,,,,,,,,,,,,,,,,,,,,,,,,,,,,,,,,,,,,,,,,,,,,,,,,,,,,,,,,,,,,,,,,,,,,,,,,,,,,,,,,,,,,,,,,,,,,,,,,,,,,,,,,,,,,,,,,,,,,,,,,,,,,,,,,,,,,,,,,,,,,,,,,,,,,,,,,,,,,,,,,,,,,,,,,,,,,,,,,,,,,,,,,,,
7,0.188025353352777,,,,,,,,,,,,,,,,,,,,,,,,,,,,,,,,,,,,,,,,,,,,,,,,,,,,,,,,,,,,,,,,,,,,,,,,,,,,,,,,,,,,,,,,,,,,,,,,,,,,,,,,,,,,,,,,,,,,,,,,,,,,,,,,,,,,,,,,,,,,,,,,,,,,,,,,,,,,,,,,,,,,,,,,,,,,,,,,,,,,,,,,,,,,,,,,,,,,,,,,,,,,,,,,,,,,,,,,,,,,,,,,,,,,,,,,,,,,,,,,,,,,,,,,,,,,,,,,,,,,,,,,,,,,,,,,,,,,,,,,,,,,,,,,,,,,,,,,,,,,,,,,,,,,,,,,,,,,,,,,,,,,,,,,,,,,,,,,,,,,,,,,,,,,,,,,,,,,,,,,,,,,,,,,,,,,,,,,,,,,,,,,,,,,,,,,,,,,,,,,,,,,,,,,,,,,,,,,,,,,,,,,,,,,,,,,,,,,,,,,,,,,,,,,,,,,,,,,,,,,,,,,,,,,,,,,,,,,,,,,,,,,,,,,,,,,,,,,,,,,,,,,,,,,,,,,,,,,,,,,,,,,,,,,,,,,,,,,,,,,,,,,,,,,,,,,,,,,,,,,,,,,,,,,,,,,,,,,,,,,,,,,,,,,,,,,,,,,,,,,,,,,,,,,,,,,,,,,,,,,,,,,,,,,,,,,,,,,,,,,,,,,,,,,,,,,,,,,,,,,,,,,,,,,,,,,,,,,,,,,,,,,,,,,,,,,,,,,,,,,,,,,,,,,,,,,,,,,,,,,,,,,,,,,,,,,,,,,,,,,,,,,,,,,,,,,,,,,,,,,,,,,,,,,,,,,,,,,,,,,,,
8,28488.468023528174,,,,,,,,,,,,,,,,,,,,,,,,,,,,,,,,,,,,,,,,,,,,,,,,,,,,,,,,,,,,,,,,,,,,,,,,,,,,,,,,,,,,,,,,,,,,,,,,,,,,,,,,,,,,,,,,,,,,,,,,,,,,,,,,,,,,,,,,,,,,,,,,,,,,,,,,,,,,,,,,,,,,,,,,,,,,,,,,,,,,,,,,,,,,,,,,,,,,,,,,,,,,,,,,,,,,,,,,,,,,,,,,,,,,,,,,,,,,,,,,,,,,,,,,,,,,,,,,,,,,,,,,,,,,,,,,,,,,,,,,,,,,,,,,,,,,,,,,,,,,,,,,,,,,,,,,,,,,,,,,,,,,,,,,,,,,,,,,,,,,,,,,,,,,,,,,,,,,,,,,,,,,,,,,,,,,,,,,,,,,,,,,,,,,,,,,,,,,,,,,,,,,,,,,,,,,,,,,,,,,,,,,,,,,,,,,,,,,,,,,,,,,,,,,,,,,,,,,,,,,,,,,,,,,,,,,,,,,,,,,,,,,,,,,,,,,,,,,,,,,,,,,,,,,,,,,,,,,,,,,,,,,,,,,,,,,,,,,,,,,,,,,,,,,,,,,,,,,,,,,,,,,,,,,,,,,,,,,,,,,,,,,,,,,,,,,,,,,,,,,,,,,,,,,,,,,,,,,,,,,,,,,,,,,,,,,,,,,,,,,,,,,,,,,,,,,,,,,,,,,,,,,,,,,,,,,,,,,,,,,,,,,,,,,,,,,,,,,,,,,,,,,,,,,,,,,,,,,,,,,,,,,,,,,,,,,,,,,,,,,,,,,,,,,,,,,,,,,,,,,,,,,,,,,,,,,,,,,,,,,,,
9,301.93478177791,,,,,,,,,,,,,,,,,,,,,,,,,,,,,,,,,,,,,,,,,,,,,,,,,,,,,,,,,,,,,,,,,,,,,,,,,,,,,,,,,,,,,,,,,,,,,,,,,,,,,,,,,,,,,,,,,,,,,,,,,,,,,,,,,,,,,,,,,,,,,,,,,,,,,,,,,,,,,,,,,,,,,,,,,,,,,,,,,,,,,,,,,,,,,,,,,,,,,,,,,,,,,,,,,,,,,,,,,,,,,,,,,,,,,,,,,,,,,,,,,,,,,,,,,,,,,,,,,,,,,,,,,,,,,,,,,,,,,,,,,,,,,,,,,,,,,,,,,,,,,,,,,,,,,,,,,,,,,,,,,,,,,,,,,,,,,,,,,,,,,,,,,,,,,,,,,,,,,,,,,,,,,,,,,,,,,,,,,,,,,,,,,,,,,,,,,,,,,,,,,,,,,,,,,,,,,,,,,,,,,,,,,,,,,,,,,,,,,,,,,,,,,,,,,,,,,,,,,,,,,,,,,,,,,,,,,,,,,,,,,,,,,,,,,,,,,,,,,,,,,,,,,,,,,,,,,,,,,,,,,,,,,,,,,,,,,,,,,,,,,,,,,,,,,,,,,,,,,,,,,,,,,,,,,,,,,,,,,,,,,,,,,,,,,,,,,,,,,,,,,,,,,,,,,,,,,,,,,,,,,,,,,,,,,,,,,,,,,,,,,,,,,,,,,,,,,,,,,,,,,,,,,,,,,,,,,,,,,,,,,,,,,,,,,,,,,,,,,,,,,,,,,,,,,,,,,,,,,,,,,,,,,,,,,,,,,,,,,,,,,,,,,,,,,,,,,,,,,,,,,,,,,,,,,,,,,,,,,,,,,,
10,-0.014301058741374209,,,,,,,,,,,,,,,,,,,,,,,,,,,,,,,,,,,,,,,,,,,,,,,,,,,,,,,,,,,,,,,,,,,,,,,,,,,,,,,,,,,,,,,,,,,,,,,,,,,,,,,,,,,,,,,,,,,,,,,,,,,,,,,,,,,,,,,,,,,,,,,,,,,,,,,,,,,,,,,,,,,,,,,,,,,,,,,,,,,,,,,,,,,,,,,,,,,,,,,,,,,,,,,,,,,,,,,,,,,,,,,,,,,,,,,,,,,,,,,,,,,,,,,,,,,,,,,,,,,,,,,,,,,,,,,,,,,,,,,,,,,,,,,,,,,,,,,,,,,,,,,,,,,,,,,,,,,,,,,,,,,,,,,,,,,,,,,,,,,,,,,,,,,,,,,,,,,,,,,,,,,,,,,,,,,,,,,,,,,,,,,,,,,,,,,,,,,,,,,,,,,,,,,,,,,,,,,,,,,,,,,,,,,,,,,,,,,,,,,,,,,,,,,,,,,,,,,,,,,,,,,,,,,,,,,,,,,,,,,,,,,,,,,,,,,,,,,,,,,,,,,,,,,,,,,,,,,,,,,,,,,,,,,,,,,,,,,,,,,,,,,,,,,,,,,,,,,,,,,,,,,,,,,,,,,,,,,,,,,,,,,,,,,,,,,,,,,,,,,,,,,,,,,,,,,,,,,,,,,,,,,,,,,,,,,,,,,,,,,,,,,,,,,,,,,,,,,,,,,,,,,,,,,,,,,,,,,,,,,,,,,,,,,,,,,,,,,,,,,,,,,,,,,,,,,,,,,,,,,,,,,,,,,,,,,,,,,,,,,,,,,,,,,,,,,,,,,,,,,,,,,,,,,,,,,,,,,,,,,,,,
11,0.0014964363900247678,,,,,,,,,,,,,,,,,,,,,,,,,,,,,,,,,,,,,,,,,,,,,,,,,,,,,,,,,,,,,,,,,,,,,,,,,,,,,,,,,,,,,,,,,,,,,,,,,,,,,,,,,,,,,,,,,,,,,,,,,,,,,,,,,,,,,,,,,,,,,,,,,,,,,,,,,,,,,,,,,,,,,,,,,,,,,,,,,,,,,,,,,,,,,,,,,,,,,,,,,,,,,,,,,,,,,,,,,,,,,,,,,,,,,,,,,,,,,,,,,,,,,,,,,,,,,,,,,,,,,,,,,,,,,,,,,,,,,,,,,,,,,,,,,,,,,,,,,,,,,,,,,,,,,,,,,,,,,,,,,,,,,,,,,,,,,,,,,,,,,,,,,,,,,,,,,,,,,,,,,,,,,,,,,,,,,,,,,,,,,,,,,,,,,,,,,,,,,,,,,,,,,,,,,,,,,,,,,,,,,,,,,,,,,,,,,,,,,,,,,,,,,,,,,,,,,,,,,,,,,,,,,,,,,,,,,,,,,,,,,,,,,,,,,,,,,,,,,,,,,,,,,,,,,,,,,,,,,,,,,,,,,,,,,,,,,,,,,,,,,,,,,,,,,,,,,,,,,,,,,,,,,,,,,,,,,,,,,,,,,,,,,,,,,,,,,,,,,,,,,,,,,,,,,,,,,,,,,,,,,,,,,,,,,,,,,,,,,,,,,,,,,,,,,,,,,,,,,,,,,,,,,,,,,,,,,,,,,,,,,,,,,,,,,,,,,,,,,,,,,,,,,,,,,,,,,,,,,,,,,,,,,,,,,,,,,,,,,,,,,,,,,,,,,,,,,,,,,,,,,,,,,,,,,,,,,,,,,,,,,,
12,5088.171453938865,,,,,,,,,,,,,,,,,,,,,,,,,,,,,,,,,,,,,,,,,,,,,,,,,,,,,,,,,,,,,,,,,,,,,,,,,,,,,,,,,,,,,,,,,,,,,,,,,,,,,,,,,,,,,,,,,,,,,,,,,,,,,,,,,,,,,,,,,,,,,,,,,,,,,,,,,,,,,,,,,,,,,,,,,,,,,,,,,,,,,,,,,,,,,,,,,,,,,,,,,,,,,,,,,,,,,,,,,,,,,,,,,,,,,,,,,,,,,,,,,,,,,,,,,,,,,,,,,,,,,,,,,,,,,,,,,,,,,,,,,,,,,,,,,,,,,,,,,,,,,,,,,,,,,,,,,,,,,,,,,,,,,,,,,,,,,,,,,,,,,,,,,,,,,,,,,,,,,,,,,,,,,,,,,,,,,,,,,,,,,,,,,,,,,,,,,,,,,,,,,,,,,,,,,,,,,,,,,,,,,,,,,,,,,,,,,,,,,,,,,,,,,,,,,,,,,,,,,,,,,,,,,,,,,,,,,,,,,,,,,,,,,,,,,,,,,,,,,,,,,,,,,,,,,,,,,,,,,,,,,,,,,,,,,,,,,,,,,,,,,,,,,,,,,,,,,,,,,,,,,,,,,,,,,,,,,,,,,,,,,,,,,,,,,,,,,,,,,,,,,,,,,,,,,,,,,,,,,,,,,,,,,,,,,,,,,,,,,,,,,,,,,,,,,,,,,,,,,,,,,,,,,,,,,,,,,,,,,,,,,,,,,,,,,,,,,,,,,,,,,,,,,,,,,,,,,,,,,,,,,,,,,,,,,,,,,,,,,,,,,,,,,,,,,,,,,,,,,,,,,,,,,,,,,,,,,,,,,,,,,,
13,315.4760835112834,,,,,,,,,,,,,,,,,,,,,,,,,,,,,,,,,,,,,,,,,,,,,,,,,,,,,,,,,,,,,,,,,,,,,,,,,,,,,,,,,,,,,,,,,,,,,,,,,,,,,,,,,,,,,,,,,,,,,,,,,,,,,,,,,,,,,,,,,,,,,,,,,,,,,,,,,,,,,,,,,,,,,,,,,,,,,,,,,,,,,,,,,,,,,,,,,,,,,,,,,,,,,,,,,,,,,,,,,,,,,,,,,,,,,,,,,,,,,,,,,,,,,,,,,,,,,,,,,,,,,,,,,,,,,,,,,,,,,,,,,,,,,,,,,,,,,,,,,,,,,,,,,,,,,,,,,,,,,,,,,,,,,,,,,,,,,,,,,,,,,,,,,,,,,,,,,,,,,,,,,,,,,,,,,,,,,,,,,,,,,,,,,,,,,,,,,,,,,,,,,,,,,,,,,,,,,,,,,,,,,,,,,,,,,,,,,,,,,,,,,,,,,,,,,,,,,,,,,,,,,,,,,,,,,,,,,,,,,,,,,,,,,,,,,,,,,,,,,,,,,,,,,,,,,,,,,,,,,,,,,,,,,,,,,,,,,,,,,,,,,,,,,,,,,,,,,,,,,,,,,,,,,,,,,,,,,,,,,,,,,,,,,,,,,,,,,,,,,,,,,,,,,,,,,,,,,,,,,,,,,,,,,,,,,,,,,,,,,,,,,,,,,,,,,,,,,,,,,,,,,,,,,,,,,,,,,,,,,,,,,,,,,,,,,,,,,,,,,,,,,,,,,,,,,,,,,,,,,,,,,,,,,,,,,,,,,,,,,,,,,,,,,,,,,,,,,,,,,,,,,,,,,,,,,,,,,,,,,,,,,,
14,-0.004856099456986719,,,,,,,,,,,,,,,,,,,,,,,,,,,,,,,,,,,,,,,,,,,,,,,,,,,,,,,,,,,,,,,,,,,,,,,,,,,,,,,,,,,,,,,,,,,,,,,,,,,,,,,,,,,,,,,,,,,,,,,,,,,,,,,,,,,,,,,,,,,,,,,,,,,,,,,,,,,,,,,,,,,,,,,,,,,,,,,,,,,,,,,,,,,,,,,,,,,,,,,,,,,,,,,,,,,,,,,,,,,,,,,,,,,,,,,,,,,,,,,,,,,,,,,,,,,,,,,,,,,,,,,,,,,,,,,,,,,,,,,,,,,,,,,,,,,,,,,,,,,,,,,,,,,,,,,,,,,,,,,,,,,,,,,,,,,,,,,,,,,,,,,,,,,,,,,,,,,,,,,,,,,,,,,,,,,,,,,,,,,,,,,,,,,,,,,,,,,,,,,,,,,,,,,,,,,,,,,,,,,,,,,,,,,,,,,,,,,,,,,,,,,,,,,,,,,,,,,,,,,,,,,,,,,,,,,,,,,,,,,,,,,,,,,,,,,,,,,,,,,,,,,,,,,,,,,,,,,,,,,,,,,,,,,,,,,,,,,,,,,,,,,,,,,,,,,,,,,,,,,,,,,,,,,,,,,,,,,,,,,,,,,,,,,,,,,,,,,,,,,,,,,,,,,,,,,,,,,,,,,,,,,,,,,,,,,,,,,,,,,,,,,,,,,,,,,,,,,,,,,,,,,,,,,,,,,,,,,,,,,,,,,,,,,,,,,,,,,,,,,,,,,,,,,,,,,,,,,,,,,,,,,,,,,,,,,,,,,,,,,,,,,,,,,,,,,,,,,,,,,,,,,,,,,,,,,,,,,,,,,,,,
15,-0.3758511134423303,,,,,,,,,,,,,,,,,,,,,,,,,,,,,,,,,,,,,,,,,,,,,,,,,,,,,,,,,,,,,,,,,,,,,,,,,,,,,,,,,,,,,,,,,,,,,,,,,,,,,,,,,,,,,,,,,,,,,,,,,,,,,,,,,,,,,,,,,,,,,,,,,,,,,,,,,,,,,,,,,,,,,,,,,,,,,,,,,,,,,,,,,,,,,,,,,,,,,,,,,,,,,,,,,,,,,,,,,,,,,,,,,,,,,,,,,,,,,,,,,,,,,,,,,,,,,,,,,,,,,,,,,,,,,,,,,,,,,,,,,,,,,,,,,,,,,,,,,,,,,,,,,,,,,,,,,,,,,,,,,,,,,,,,,,,,,,,,,,,,,,,,,,,,,,,,,,,,,,,,,,,,,,,,,,,,,,,,,,,,,,,,,,,,,,,,,,,,,,,,,,,,,,,,,,,,,,,,,,,,,,,,,,,,,,,,,,,,,,,,,,,,,,,,,,,,,,,,,,,,,,,,,,,,,,,,,,,,,,,,,,,,,,,,,,,,,,,,,,,,,,,,,,,,,,,,,,,,,,,,,,,,,,,,,,,,,,,,,,,,,,,,,,,,,,,,,,,,,,,,,,,,,,,,,,,,,,,,,,,,,,,,,,,,,,,,,,,,,,,,,,,,,,,,,,,,,,,,,,,,,,,,,,,,,,,,,,,,,,,,,,,,,,,,,,,,,,,,,,,,,,,,,,,,,,,,,,,,,,,,,,,,,,,,,,,,,,,,,,,,,,,,,,,,,,,,,,,,,,,,,,,,,,,,,,,,,,,,,,,,,,,,,,,,,,,,,,,,,,,,,,,,,,,,,,,,,,,,,,,,,,
16,3937.611824588428,,,,,,,,,,,,,,,,,,,,,,,,,,,,,,,,,,,,,,,,,,,,,,,,,,,,,,,,,,,,,,,,,,,,,,,,,,,,,,,,,,,,,,,,,,,,,,,,,,,,,,,,,,,,,,,,,,,,,,,,,,,,,,,,,,,,,,,,,,,,,,,,,,,,,,,,,,,,,,,,,,,,,,,,,,,,,,,,,,,,,,,,,,,,,,,,,,,,,,,,,,,,,,,,,,,,,,,,,,,,,,,,,,,,,,,,,,,,,,,,,,,,,,,,,,,,,,,,,,,,,,,,,,,,,,,,,,,,,,,,,,,,,,,,,,,,,,,,,,,,,,,,,,,,,,,,,,,,,,,,,,,,,,,,,,,,,,,,,,,,,,,,,,,,,,,,,,,,,,,,,,,,,,,,,,,,,,,,,,,,,,,,,,,,,,,,,,,,,,,,,,,,,,,,,,,,,,,,,,,,,,,,,,,,,,,,,,,,,,,,,,,,,,,,,,,,,,,,,,,,,,,,,,,,,,,,,,,,,,,,,,,,,,,,,,,,,,,,,,,,,,,,,,,,,,,,,,,,,,,,,,,,,,,,,,,,,,,,,,,,,,,,,,,,,,,,,,,,,,,,,,,,,,,,,,,,,,,,,,,,,,,,,,,,,,,,,,,,,,,,,,,,,,,,,,,,,,,,,,,,,,,,,,,,,,,,,,,,,,,,,,,,,,,,,,,,,,,,,,,,,,,,,,,,,,,,,,,,,,,,,,,,,,,,,,,,,,,,,,,,,,,,,,,,,,,,,,,,,,,,,,,,,,,,,,,,,,,,,,,,,,,,,,,,,,,,,,,,,,,,,,,,,,,,,,,,,,,,,,,,,,
17,538.1565220310729,,,,,,,,,,,,,,,,,,,,,,,,,,,,,,,,,,,,,,,,,,,,,,,,,,,,,,,,,,,,,,,,,,,,,,,,,,,,,,,,,,,,,,,,,,,,,,,,,,,,,,,,,,,,,,,,,,,,,,,,,,,,,,,,,,,,,,,,,,,,,,,,,,,,,,,,,,,,,,,,,,,,,,,,,,,,,,,,,,,,,,,,,,,,,,,,,,,,,,,,,,,,,,,,,,,,,,,,,,,,,,,,,,,,,,,,,,,,,,,,,,,,,,,,,,,,,,,,,,,,,,,,,,,,,,,,,,,,,,,,,,,,,,,,,,,,,,,,,,,,,,,,,,,,,,,,,,,,,,,,,,,,,,,,,,,,,,,,,,,,,,,,,,,,,,,,,,,,,,,,,,,,,,,,,,,,,,,,,,,,,,,,,,,,,,,,,,,,,,,,,,,,,,,,,,,,,,,,,,,,,,,,,,,,,,,,,,,,,,,,,,,,,,,,,,,,,,,,,,,,,,,,,,,,,,,,,,,,,,,,,,,,,,,,,,,,,,,,,,,,,,,,,,,,,,,,,,,,,,,,,,,,,,,,,,,,,,,,,,,,,,,,,,,,,,,,,,,,,,,,,,,,,,,,,,,,,,,,,,,,,,,,,,,,,,,,,,,,,,,,,,,,,,,,,,,,,,,,,,,,,,,,,,,,,,,,,,,,,,,,,,,,,,,,,,,,,,,,,,,,,,,,,,,,,,,,,,,,,,,,,,,,,,,,,,,,,,,,,,,,,,,,,,,,,,,,,,,,,,,,,,,,,,,,,,,,,,,,,,,,,,,,,,,,,,,,,,,,,,,,,,,,,,,,,,,,,,,,,,,,,,
18,-0.00039075543940139624,,,,,,,,,,,,,,,,,,,,,,,,,,,,,,,,,,,,,,,,,,,,,,,,,,,,,,,,,,,,,,,,,,,,,,,,,,,,,,,,,,,,,,,,,,,,,,,,,,,,,,,,,,,,,,,,,,,,,,,,,,,,,,,,,,,,,,,,,,,,,,,,,,,,,,,,,,,,,,,,,,,,,,,,,,,,,,,,,,,,,,,,,,,,,,,,,,,,,,,,,,,,,,,,,,,,,,,,,,,,,,,,,,,,,,,,,,,,,,,,,,,,,,,,,,,,,,,,,,,,,,,,,,,,,,,,,,,,,,,,,,,,,,,,,,,,,,,,,,,,,,,,,,,,,,,,,,,,,,,,,,,,,,,,,,,,,,,,,,,,,,,,,,,,,,,,,,,,,,,,,,,,,,,,,,,,,,,,,,,,,,,,,,,,,,,,,,,,,,,,,,,,,,,,,,,,,,,,,,,,,,,,,,,,,,,,,,,,,,,,,,,,,,,,,,,,,,,,,,,,,,,,,,,,,,,,,,,,,,,,,,,,,,,,,,,,,,,,,,,,,,,,,,,,,,,,,,,,,,,,,,,,,,,,,,,,,,,,,,,,,,,,,,,,,,,,,,,,,,,,,,,,,,,,,,,,,,,,,,,,,,,,,,,,,,,,,,,,,,,,,,,,,,,,,,,,,,,,,,,,,,,,,,,,,,,,,,,,,,,,,,,,,,,,,,,,,,,,,,,,,,,,,,,,,,,,,,,,,,,,,,,,,,,,,,,,,,,,,,,,,,,,,,,,,,,,,,,,,,,,,,,,,,,,,,,,,,,,,,,,,,,,,,,,,,,,,,,,,,,,,,,,,,,,,,,,,,,,,,,,,,
19,-0.05606121436829103,,,,,,,,,,,,,,,,,,,,,,,,,,,,,,,,,,,,,,,,,,,,,,,,,,,,,,,,,,,,,,,,,,,,,,,,,,,,,,,,,,,,,,,,,,,,,,,,,,,,,,,,,,,,,,,,,,,,,,,,,,,,,,,,,,,,,,,,,,,,,,,,,,,,,,,,,,,,,,,,,,,,,,,,,,,,,,,,,,,,,,,,,,,,,,,,,,,,,,,,,,,,,,,,,,,,,,,,,,,,,,,,,,,,,,,,,,,,,,,,,,,,,,,,,,,,,,,,,,,,,,,,,,,,,,,,,,,,,,,,,,,,,,,,,,,,,,,,,,,,,,,,,,,,,,,,,,,,,,,,,,,,,,,,,,,,,,,,,,,,,,,,,,,,,,,,,,,,,,,,,,,,,,,,,,,,,,,,,,,,,,,,,,,,,,,,,,,,,,,,,,,,,,,,,,,,,,,,,,,,,,,,,,,,,,,,,,,,,,,,,,,,,,,,,,,,,,,,,,,,,,,,,,,,,,,,,,,,,,,,,,,,,,,,,,,,,,,,,,,,,,,,,,,,,,,,,,,,,,,,,,,,,,,,,,,,,,,,,,,,,,,,,,,,,,,,,,,,,,,,,,,,,,,,,,,,,,,,,,,,,,,,,,,,,,,,,,,,,,,,,,,,,,,,,,,,,,,,,,,,,,,,,,,,,,,,,,,,,,,,,,,,,,,,,,,,,,,,,,,,,,,,,,,,,,,,,,,,,,,,,,,,,,,,,,,,,,,,,,,,,,,,,,,,,,,,,,,,,,,,,,,,,,,,,,,,,,,,,,,,,,,,,,,,,,,,,,,,,,,,,,,,,,,,,,,,,,,,,,,,,,
