,0,1,2,3
0,0,[ 1.66444677e+04  2.93757386e+02 -4.11650547e-03  1.34478635e-01],1028,2104.47834839601
1,1,[ 1.62625282e+04  2.93478569e+02 -3.80467858e-03  1.37225589e-01],1044,2084.711006157429
2,2,[ 1.65826785e+04  2.93870358e+02 -4.42012379e-03  1.34807397e-01],1053,2104.2065418959783
3,3,[ 1.64571335e+04  2.93249031e+02 -3.95849901e-03  1.35576348e-01],866,2093.927101165025
4,4,[ 1.64707356e+04  2.93592270e+02 -4.19589395e-03  1.35977076e-01],716,2099.3797301903305
5,5,[ 1.23019886e+04  3.07341526e+02 -3.52724733e-03 -1.33232329e+04],1054,2099.426476402981
6,6,[-1.15894860e+03  3.61401615e+02 -1.42953682e-02 -7.66671347e+05],682,2101.513944472961
7,7,[-1.22409770e+03  3.40379918e+02 -2.88052522e-02 -2.30164453e+02],1059,2062.4598051993185
8,8,[-9.07065932e+02  3.48389796e+02 -7.36582114e-03 -1.63097747e+03],557,2073.3468718921113
9,9,[-5.49174332e+02  3.40390745e+02 -1.01541942e-02 -7.31891727e+02],599,2089.4563900972266
10,10,[-1.19933690e+03  3.63407236e+02 -2.17925655e-03 -1.00425906e+03],1350,2095.0532447011437
11,11,[-1.22901590e+03  3.78421700e+02 -1.13843167e-03 -5.01996603e+02],914,2088.8605560311803
12,12,[-1.24208985e+03  3.60401653e+02 -2.17288844e-03 -8.66094300e+02],942,2087.991391126013
13,13,[-1.09366610e+03  3.44383196e+02 -9.51968065e-03 -3.13411272e+03],748,2102.555119411363
14,14,[-1.23774007e+03  3.44383454e+02 -1.37074243e-02 -1.53148278e+03],930,2104.538594578807
15,15,[-1.32092109e+02  3.25348443e+02 -1.42701286e-01 -7.35040364e+02],980,2100.636489560928
16,16,[-1.12495530e+03  3.43382146e+02 -1.30347641e-02 -8.09291100e+03],658,2103.0077818618392
17,17,[-1.20526279e+03  3.46385089e+02 -1.26351590e-02 -2.56126925e+03],874,2099.2210781838185
18,18,[-1.13132161e+03  3.46386833e+02 -7.13374743e-03 -9.42745907e+02],916,2082.7427907122246
19,19,[-9.73881355e+02  3.63159428e+02 -1.14006279e-04  1.91669871e+07],689,2092.8999286557964
20,20,[ 3.28906315e+03  3.12020980e+02 -3.47164024e-02  1.65272038e+04],1071,2099.3401346020805
21,21,[-9.39493706e+02  3.15350712e+02 -5.24846233e-05  1.70700179e+04],275,2090.5596837663174
22,22,[ 2.47518196e+03  3.14500765e+02 -6.28866083e-02  1.70289017e+04],1031,2086.0990970797625
23,23,[ 2.75028601e+03  3.12684232e+02 -4.31003095e-02  1.70368013e+04],799,2077.8178826106832
24,24,[-9.76672269e+02  3.50388766e+02 -1.01441726e-04  1.70366172e+04],865,2100.422615952888
25,25,[-9.86298715e+02  3.55394889e+02 -9.69237724e-05  1.70366050e+04],856,2085.698949738279
26,26,[ 1.07367859e+04  2.98900306e+02 -7.66070692e-03  1.70366172e+04],850,2073.70625409344
27,27,[ 1.14215844e+04  3.01360971e+02 -5.81125886e-03  1.67631738e+04],879,2078.4961559062253
28,28,[-3.06046728e+03  3.15350598e+02 -3.50761382e-03  1.70363654e+04],592,2104.930207092603
29,29,[ 1.11429655e+04  2.98440109e+02 -6.79851094e-03  1.71536432e+04],1022,2091.057143446078
30,30,[ 1.16490193e+04  2.98810800e+02 -5.42770345e-03  1.66781987e+04],1123,2101.9945827547285
31,31,[-9.88600170e+02  3.55393780e+02 -9.52545702e-05  1.70361442e+04],1039,2084.726153251221
32,32,[ 3.93958478e+03  3.10551752e+02 -2.93262961e-02  1.70360282e+04],586,2096.2229624840543
33,33,[ 1.13249479e+04  3.00764434e+02 -5.77319581e-03  1.70361441e+04],917,2077.983909513602
34,34,[ 1.01631943e+04  2.91323607e+02 -1.90678219e-03  1.70349305e+04],1040,2105.0904869956903
35,35,[ 1.12422891e+04  3.01272683e+02 -6.13026369e-03  1.70361430e+04],229,2077.9668967749417
36,36,[ 1.10590284e+04  3.00474150e+02 -5.87911636e-03  1.70361430e+04],1064,2093.295045348214
37,37,[ 1.09446469e+04  2.99316045e+02 -6.54182660e-03  1.68726880e+04],581,2101.214397939144
38,38,[ 2.36411941e+03  3.14402339e+02 -3.05773785e-02  1.70083341e+04],1033,2105.263853820698
39,39,[-9.73233429e+02  3.53391848e+02 -9.46726416e-05  1.70359686e+04],963,2087.9667298138893
40,40,[ 1.10228254e+04  3.01152575e+02 -6.15599707e-03  1.70359686e+04],957,2073.1920969396083
41,41,[ 1.08836633e+04  3.00828091e+02 -5.96905965e-03  1.70499194e+04],661,2078.0704504146324
42,42,[ 1.09300004e+04  3.00527060e+02 -6.38786311e-03  1.70387207e+04],791,2083.3877815250003
43,43,[ 1.16323476e+04  2.99332495e+02 -4.58280599e-03  1.91034139e+04],872,2073.6126677616535
44,44,[-1.69513149e+03  3.35372634e+02 -6.09629520e-05  1.70378609e+04],308,2002.3153114319282
45,45,[ 1.09299284e+04  3.00692452e+02 -6.29716319e-03  1.70378599e+04],469,2086.991721426924
46,46,[-9.70370710e+02  3.59399216e+02 -1.07777871e-04  1.70378273e+04],1333,2065.4650828948047
47,47,[ 1.11761038e+04  2.99104580e+02 -6.14103585e-03  1.70384851e+04],1121,2101.0738924388593
48,48,[ 1.13806011e+04  2.98331162e+02 -5.53414020e-03  1.71609878e+04],693,2090.3518350775535
49,49,[-9.85139522e+02  3.44382392e+02 -2.94368607e-03  1.70379716e+04],1111,2092.7511200941244
50,50,[ 8.71886877e+02  3.24360248e+02 -1.14734486e-02  1.70379706e+04],385,1916.8639366471443
51,51,[ 1.15935498e+04  2.98331297e+02 -5.34255699e-03  8.52432683e+03],1357,2043.0490827741655
52,52,[-1.20598911e+03  3.15350582e+02 -5.07521042e-05  1.72677253e+04],605,1948.4459598897158
53,53,[-1.11258655e+03  3.15350645e+02 -6.85498623e-05  1.72026211e+04],1009,1817.956504017293
54,54,[-8.46527671e+02  3.48386859e+02 -1.08720781e-02  1.70306701e+04],1011,2039.37733023861
55,55,[ 2.75296067e+03  3.12773552e+02 -8.06170735e-02  1.70268833e+04],185,1925.3711149601681
56,56,[ 3.57094270e+03  3.11221681e+02 -3.20939429e-02  1.70307944e+04],538,1996.0927053071446
57,57,[-9.87533403e+02  3.57396744e+02 -9.84694134e-05  1.70306669e+04],773,2072.072096529583
58,58,[-6.41371468e+02  3.51386190e+02 -9.84238765e-05  1.70306669e+04],844,2060.974812217029
59,59,[ 1.14518620e+04  3.07341504e+02 -3.04331545e-03 -2.12654524e+04],750,2084.880693574909
60,60,[-8.25418975e+02  3.47385943e+02 -1.01733064e-04  1.70406941e+04],741,2072.301071470712
61,61,[ 1.15542707e+04  2.93325890e+02 -3.10333898e-03  2.44505099e+04],141,2074.405528454879
62,62,[-8.74792755e+02  3.42380101e+02 -1.10417112e-04  1.70062335e+04],546,2085.5877833190616
63,63,[ 1.12422041e+04  2.98985169e+02 -5.18948814e-03  1.70031105e+04],509,2087.7133915289237
64,64,[ 2.67792710e+03  3.12346493e+02 -5.31229094e-02  1.70032567e+04],797,2078.150366751853
65,65,[ 1.12933428e+04  2.99031024e+02 -5.61419119e-03  1.70057337e+04],589,2092.1002921863715
66,66,[-9.29095863e+02  3.54393469e+02 -9.65617983e-05  1.70031130e+04],1035,2083.059662086199
67,67,[ 1.11758392e+04  2.98331374e+02 -6.01413406e-03  1.55627452e+04],788,2079.579773043127
68,68,[ 1.13882560e+04  2.97330276e+02 -5.29434059e-03  1.70003451e+04],952,2083.0885027816093
69,69,[-8.02979005e+02  3.74414658e+02 -1.76246187e-04  1.70018580e+04],1119,2077.927401156327
70,70,[-7.00294489e+02  3.45382753e+02 -1.15852352e-02  1.70018325e+04],629,2047.7385767210333
71,71,[ 4.53715929e+02  3.21356614e+02 -1.31410628e-02  1.70018325e+04],992,2059.894479713338
72,72,[ 1.13603805e+04  2.98314190e+02 -5.66606672e-03  1.71559638e+04],450,2094.9792849996406
73,73,[-9.49267231e+02  3.46384635e+02 -1.01793069e-02  1.70019688e+04],817,2062.793237728274
74,74,[ 1.12506024e+04  2.93325905e+02 -2.24015679e-03  1.70025026e+04],1075,2084.9874163398467
75,75,[ 1.13032624e+04  3.01334703e+02 -5.68355609e-03  1.82780150e+04],967,2046.450107493536
76,76,[ 1.08741486e+04  2.90322543e+02 -2.30579166e-03  1.70022022e+04],1101,2080.736777997465
77,77,[ 1.16320662e+04  2.98997193e+02 -5.35898542e-03  1.66739109e+04],862,2100.3262633175004
78,78,[ 1.10346824e+04  2.98331361e+02 -6.32403459e-03  1.70028774e+04],1332,2066.5650316678484
79,79,[ 1.17876019e+04  2.98331363e+02 -5.95233209e-03  1.57464162e+04],209,2087.035222288003
80,80,[ 1.17156437e+04  2.98331406e+02 -5.08802522e-03  1.85550621e+04],1095,2089.512816600919
81,81,[ 1.06530410e+04  3.01398227e+02 -7.33725810e-03  1.70030638e+04],1007,2081.422692698095
82,82,[-8.26385257e+02  3.16352308e+02 -5.75133949e-05  1.70067123e+04],885,2080.499394700333
83,83,[ 1.13159466e+04  3.01330534e+02 -6.57062729e-03  1.70030669e+04],512,2071.5873337944195
84,84,[ 9.72205822e+03  2.91323620e+02 -1.62905034e-03  1.70021525e+04],289,2082.6280321445806
85,85,[ 1.11622970e+04  2.98331356e+02 -6.30094688e-03  1.70020199e+04],861,2088.4489713844328
86,86,[ 5.45543187e+03  3.07550973e+02 -2.01036140e-02  1.70220972e+04],1070,2083.6002956761654
87,87,[-9.57214424e+02  3.15350775e+02 -5.60811360e-05  1.78325877e+04],915,2070.351650926792
88,88,[-1.08812667e+03  3.60399838e+02 -8.00789720e-05  1.70038057e+04],316,2067.510115064236
89,89,[ 3.17988377e+03  3.12160695e+02 -4.71389409e-02  3.51139463e+03],596,2089.327537344255
90,90,[ 3.42468885e+03  3.11324875e+02 -3.51929486e-02  1.69508632e+04],1046,2071.38763808559
91,91,[ 1.19657115e+04  2.95328131e+02 -2.70689541e-03  4.88556318e+04],114,2064.8499999038704
92,92,[ 1.18929131e+04  2.99124548e+02 -4.52540377e-03  7.95109098e+03],525,2001.3363946931988
93,93,[ 1.12495038e+04  2.97330280e+02 -5.46732808e-03  1.81907856e+04],994,2089.248920571178
94,94,[ 1.10209132e+04  3.00047766e+02 -5.63160394e-03  1.70622058e+04],638,2099.8566284500675
95,95,[ 1.11552877e+04  3.00101645e+02 -5.69726500e-03  1.70129116e+04],1003,2094.6823085615106
96,96,[ 1.14193868e+04  2.92324783e+02 -2.65588797e-03  1.92435883e+04],112,2089.5582652916773
97,97,[ 1.08380414e+04  2.92324687e+02 -2.25556177e-03  1.70142886e+04],437,2101.417086357757
98,98,[-9.43614651e+02  3.76417863e+02 -1.45981852e-04  1.70168595e+04],138,2094.534317325801
99,99,[ 1.12408024e+04  2.99993201e+02 -6.00829007e-03  1.70148442e+04],451,2103.5024270942936
100,100,[ 1.15204213e+04  2.99725045e+02 -5.45211410e-03  2.52841090e+04],1062,2099.55977874982
101,101,[ 1.08223177e+04  3.01251327e+02 -6.76940515e-03  1.70234437e+04],405,2090.6011201083206
102,102,[ 1.15380468e+04  2.99803272e+02 -5.81950072e-03  1.70219803e+04],989,2101.5554613608883
103,103,[ 1.12912691e+04  2.99406809e+02 -5.85174930e-03  1.70219803e+04],160,2103.6788491227067
104,104,[ 1.09292392e+04  2.97956043e+02 -7.24952594e-03  1.70223487e+04],880,2070.376157770344
105,105,[ 1.12642940e+04  3.00875493e+02 -6.21287140e-03  1.70227031e+04],846,2094.0861212356685
106,106,[ 1.11123263e+04  2.91323692e+02 -2.02894230e-03  1.14339535e+05],824,2104.4781638723694
107,107,[ 1.07654461e+04  3.00990384e+02 -7.08978181e-03  1.71055156e+04],253,2087.2046829896585
108,108,[ 1.11820381e+04  2.98008395e+02 -6.68579094e-03  1.71059796e+04],906,2085.366277592863
109,109,[ 1.11071814e+04  2.98052069e+02 -6.38252203e-03  1.71055160e+04],457,2085.3660622223592
110,110,[ 1.08785263e+04  2.99864846e+02 -6.47808716e-03  1.71055160e+04],667,2097.4218852655026
111,111,[ 1.10767524e+04  3.00459063e+02 -6.35037956e-03  1.71055160e+04],219,2093.088979224046
112,112,[ 1.11967734e+04  2.99234041e+02 -5.91658744e-03  1.71055160e+04],532,2105.8399627247286
113,113,[ 1.07853701e+04  3.00805326e+02 -6.66108140e-03  1.71055160e+04],364,2085.9919655521285
114,114,[ 1.16799005e+04  2.98331400e+02 -5.23762803e-03  1.97308658e+04],182,2105.9423674629297
115,115,[ 1.13927387e+04  2.99070713e+02 -5.66173993e-03  1.71077542e+04],442,2099.4543799739986
116,116,[ 1.08587259e+04  3.00042235e+02 -6.81295338e-03  1.71077542e+04],769,2097.7006946912084
117,117,[ 1.11971117e+04  2.98331306e+02 -6.40186937e-03  1.71076904e+04],1343,2071.9964479856803
118,118,[ 1.13790456e+04  2.98101361e+02 -6.06677900e-03  1.76525486e+04],1002,2091.0212510244824
119,119,[ 1.12934938e+04  2.98924167e+02 -6.17975825e-03  1.71092859e+04],627,2101.7582062949336
120,120,[ 1.12191999e+04  2.98126331e+02 -5.90854498e-03  1.71098031e+04],462,2089.3024565962723
121,121,[ 1.09391506e+04  3.01305843e+02 -7.18732284e-03  1.73653753e+04],664,2090.2270469500395
122,122,[ 1.15290829e+04  2.98443636e+02 -6.09035537e-03  1.71084371e+04],311,2088.0129865731788
123,123,[ 1.15050264e+04  2.98490300e+02 -5.70944760e-03  1.79452269e+04],38,2103.4000164299605
124,124,[ 1.07696244e+04  3.01971377e+02 -7.55719057e-03  1.79179754e+04],1329,2078.084246538343
125,125,[ 1.16241785e+04  2.99042421e+02 -5.80939091e-03  1.71142307e+04],438,2103.524350486819
126,126,[ 1.10965132e+04  2.98298993e+02 -6.24375296e-03  1.71098325e+04],860,2076.2368566688756
127,127,[ 1.09812989e+04  2.98331365e+02 -7.28228500e-03  1.50432163e+04],545,2080.342840139197
128,128,[ 4.07622286e+03  2.98331261e+02 -8.83931571e-03  1.71080900e+04],1319,2083.1057529791597
129,129,[ 1.14518581e+04  2.97330273e+02 -4.33084041e-03  1.71037953e+04],781,2097.975974041721
130,130,[ 1.13426750e+04  2.98213720e+02 -6.07169894e-03  1.71086804e+04],540,2085.3553553929123
131,131,[ 1.13992744e+04  2.98934573e+02 -5.56043889e-03  1.71080869e+04],378,2104.9187494396383
132,132,[ 1.11065239e+04  2.98331398e+02 -6.89750439e-03  1.85584734e+04],976,2074.7283789472167
133,133,[ 1.13038822e+04  3.00333574e+02 -6.16190035e-03  1.69600437e+04],644,2083.9184635018432
134,134,[ 1.12187433e+04  2.98791691e+02 -6.10071312e-03  1.71091795e+04],183,2093.4195927394626
135,135,[ 1.11878415e+04  2.99332452e+02 -6.86586462e-03  1.68875627e+04],34,2101.382589898325
136,136,[ 1.12481859e+04  3.00279657e+02 -6.05100318e-03  1.71089939e+04],269,2079.4341005314627
137,137,[ 1.06690138e+04  3.01091840e+02 -7.53182590e-03  1.71089939e+04],630,2083.621545312136
138,138,[ 1.14996826e+04  2.97330295e+02 -4.51169314e-03  1.71094831e+04],292,2105.7852678191075
139,139,[ 1.11325733e+04  2.99177009e+02 -5.91659745e-03  1.71089943e+04],427,2101.403259580355
140,140,[ 1.08506028e+04  3.01332805e+02 -7.46476583e-03  1.71202008e+04],1017,2081.6122908798748
141,141,[ 1.14379827e+04  2.98971082e+02 -5.98143970e-03  2.43060112e+04],28,2106.7675189715073
142,142,[ 1.13155789e+04  2.99260024e+02 -5.61862987e-03  1.71150011e+04],131,2100.2839406552025
143,143,[ 2.69093379e+03  3.12210448e+02 -5.49255194e-02  1.71150368e+04],552,2079.4218274759833
144,144,[ 1.14392413e+04  2.98331378e+02 -5.16546804e-03  1.71146742e+04],242,2101.30041333024
145,145,[ 1.08602725e+04  3.00513212e+02 -6.61043351e-03  1.71150009e+04],762,2100.745489223501
146,146,[ 1.10194011e+04  2.99127167e+02 -7.06841994e-03  1.71150009e+04],282,2093.955875499098
147,147,[ 1.11747029e+04  2.98509527e+02 -6.02372708e-03  1.81229013e+04],415,2093.4854984226818
148,148,[ 1.07948895e+04  3.00834646e+02 -7.03898487e-03  1.71158366e+04],1351,2091.2661456993123
149,149,[ 3.59484046e+03  2.99332374e+02 -9.89408961e-03  1.71158366e+04],903,2091.5381515934137
150,150,[ 5.28600519e+03  3.08414054e+02 -1.61623317e-02  1.69144624e+04],288,2101.9413454964715
151,151,[ 4.08619661e+03  3.09581882e+02 -2.73718977e-02  1.71156999e+04],573,2089.7267952640045
152,152,[ 1.13333132e+04  3.08342620e+02 -2.51020015e-03 -9.34586661e+03],632,2090.444938518952
153,153,[ 1.10865072e+04  2.97778115e+02 -6.06840131e-03  2.95885197e+04],516,2090.0646334510784
154,154,[ 1.11426346e+04  2.99702463e+02 -6.07583340e-03  1.71043550e+04],873,2101.8756810361783
155,155,[ 1.11512970e+04  2.98331328e+02 -5.54742001e-03  1.71037404e+04],191,2092.6287013401543
156,156,[ 1.09095141e+04  2.98054848e+02 -6.45359601e-03  1.71048046e+04],617,2080.462828991765
157,157,[ 1.11065113e+04  3.01531003e+02 -6.00500336e-03  2.12845933e+04],230,2076.2251235816957
158,158,[ 1.10669764e+04  2.97852476e+02 -5.72975851e-03  1.70958626e+04],821,2079.091654591362
159,159,[ 1.08258579e+04  3.01768460e+02 -6.64860058e-03  1.71075569e+04],14,2066.259114679966
160,160,[ 1.13932164e+04  2.99443282e+02 -5.49061291e-03  1.71075569e+04],1067,2105.722878586673
161,161,[ 1.13576536e+04  2.99551170e+02 -5.46392709e-03  1.71075569e+04],776,2101.2676155570457
162,162,[ 1.09049769e+04  2.98331376e+02 -6.85634078e-03  1.64381460e+04],1346,2072.1106053989784
163,163,[ 1.12824847e+04  2.98330559e+02 -5.65757856e-03  1.71070087e+04],1113,2085.8810212657067
164,164,[ 1.09199614e+04  3.00956594e+02 -6.15806606e-03  1.71070087e+04],436,2085.1819173873905
165,165,[ 1.12272787e+04  2.98213996e+02 -6.06990665e-03  1.70957160e+04],954,2099.9760164019804
166,166,[ 1.09803331e+04  3.01190946e+02 -6.13860345e-03  1.71069995e+04],402,2081.29881604733
167,167,[ 2.63326900e+03  3.12474858e+02 -6.75414121e-02  1.71131079e+04],0,2083.987318576873
168,168,[ 1.14383095e+04  2.98331396e+02 -5.80144574e-03  1.85877356e+04],106,2091.62967933844
169,169,[ 1.13043032e+04  2.99332464e+02 -5.57301736e-03  1.72779568e+04],541,2103.18885165824
170,170,[ 1.06908921e+04  3.01254469e+02 -7.44731433e-03  1.71083495e+04],767,2090.496647780931
171,171,[ 1.13215090e+04  3.00680686e+02 -6.00619647e-03  1.71083495e+04],932,2081.142069765186
172,172,[ 1.12470771e+04  2.98065243e+02 -5.68431582e-03  1.70991326e+04],686,2096.0534026793325
173,173,[ 1.09060949e+04  3.00333607e+02 -6.83021603e-03  1.91638089e+04],598,2082.585743015601
174,174,[ 1.15261452e+04  2.99342658e+02 -5.67096732e-03  1.71100104e+04],440,2099.4659921536268
175,175,[ 1.12321433e+04  2.98331372e+02 -5.83107363e-03  1.60350954e+04],972,2092.288634287509
176,176,[ 2.44821873e+03  3.13047054e+02 -6.52118468e-02  1.71091781e+04],853,2088.6977769680934
177,177,[ 3.56015399e+03  3.11610724e+02 -2.84032290e-02  1.68911928e+04],703,2096.688924107791
178,178,[ 1.10325684e+04  2.99815926e+02 -6.10328907e-03  1.71089630e+04],511,2102.892226687212
179,179,[ 2.08234623e+03  3.14347075e+02 -7.27409298e-02  1.71032165e+04],607,2077.134216904892
180,180,[ 1.12150272e+04  2.98447456e+02 -5.47873651e-03  1.71265030e+04],2,2095.906907034603
181,181,[ 1.90930263e+03  3.14345204e+02 -1.61588107e-01  1.71065996e+04],549,2064.739555153425
182,182,[ 1.13899610e+04  2.99345485e+02 -5.96663656e-03  1.71017833e+04],1322,2105.4703707894605
183,183,[ 1.12666614e+04  2.98330489e+02 -5.47523233e-03  1.71093245e+04],666,2105.1134906945413
184,184,[ 1.07262542e+04  2.98328909e+02 -7.18253918e-03  1.78374040e+04],979,2084.902712717427
185,185,[ 1.14305265e+04  2.98331369e+02 -5.53459998e-03  1.71082427e+04],636,2106.992905617788
186,186,[ 1.09018150e+04  3.01305901e+02 -6.40461981e-03  1.71107415e+04],1056,2083.2314147681445
187,187,[ 1.08349317e+04  2.99212564e+02 -6.78846861e-03  1.71132731e+04],298,2082.625298911333
188,188,[ 1.09924612e+04  3.00189412e+02 -6.06124222e-03  1.72553845e+04],711,2082.7016715997597
189,189,[ 1.10564551e+04  2.99338637e+02 -6.34265541e-03  1.96721285e+04],889,2103.37080675484
190,190,[ 1.11477094e+04  2.97830802e+02 -6.31227481e-03  1.82120668e+04],816,2070.9805854622564
191,191,[ 1.12233958e+04  2.99273522e+02 -5.50707575e-03  1.72635154e+04],612,2104.5842041919195
192,192,[ 1.11089522e+04  2.95328043e+02 -4.11500364e-03  1.71115610e+04],346,2084.0554131890513
193,193,[ 1.10192497e+04  2.98331321e+02 -6.13713349e-03  1.71126462e+04],833,2094.576320257463
194,194,[ 1.10965187e+04  2.98970664e+02 -5.81699691e-03  1.71129828e+04],1032,2097.4703972550733
195,195,[ 1.12623189e+04  2.96329223e+02 -5.34876535e-03  3.86142516e+04],870,2085.7360726390084
196,196,[ 1.10892183e+04  2.98273231e+02 -6.00812291e-03  1.71298715e+04],939,2101.7631497926777
197,197,[ 1.04920390e+04  3.00947769e+02 -7.77721383e-03  1.78965009e+04],530,2091.052735502226
198,198,[ 1.09890784e+04  2.99956200e+02 -6.31282216e-03  1.67897159e+04],1318,2099.9304933507847
199,199,[ 1.11214725e+04  2.99780068e+02 -5.69221777e-03  8.12446224e+03],495,2102.1054343485257
200,200,[ 1.07832020e+04  2.98331002e+02 -7.09394343e-03  1.71301740e+04],728,2086.018760812445
201,201,[ 1.13516636e+04  2.98331287e+02 -5.64126115e-03  1.71230508e+04],515,2101.0064921106077
202,202,[ 1.12564475e+04  3.00280054e+02 -5.43785638e-03  1.71237975e+04],459,2091.7314475087765
203,203,[ 1.06996551e+04  3.00504167e+02 -7.08966331e-03  1.71244865e+04],103,2097.3142598318686
204,204,[ 1.12173636e+04  2.98676096e+02 -5.85130960e-03  1.71287516e+04],705,2087.4295713586935
205,205,[ 1.11661112e+04  2.98516923e+02 -5.74825928e-03  1.09315057e+04],717,2083.6094141147832
206,206,[ 1.08494122e+04  3.00622270e+02 -6.98394698e-03  1.71196609e+04],996,2092.2195842364404
207,207,[ 1.13625411e+04  2.98390716e+02 -5.53220782e-03  1.71181667e+04],303,2102.2901238636246
208,208,[ 1.09871944e+04  2.98986868e+02 -6.69311449e-03  1.71181667e+04],983,2101.6672606143616
209,209,[ 1.12821581e+04  2.99521648e+02 -5.92792916e-03  1.73307582e+04],361,2106.1999716098
210,210,[ 1.13187194e+04  3.00052617e+02 -5.39448038e-03  1.72400744e+04],1331,2085.9747878352787
211,211,[ 1.10759254e+04  2.98026783e+02 -5.52478983e-03  1.71294393e+04],690,2084.04408453763
212,212,[ 1.11411684e+04  2.98895325e+02 -5.73872994e-03  1.71184389e+04],1099,2098.1107771420247
213,213,[ 1.09359716e+04  2.97330280e+02 -5.30978151e-03  1.85973669e+04],125,2080.851404054543
214,214,[ 1.09659106e+04  2.99069529e+02 -5.35917612e-03  1.71206232e+04],890,2101.0507571146272
215,215,[ 1.05951950e+04  2.99847251e+02 -7.42781915e-03  1.71211680e+04],236,2102.414051292936
216,216,[ 1.11228248e+04  2.99327167e+02 -5.80343651e-03  1.75525962e+04],99,2099.0062689623037
217,217,[ 1.10179718e+04  2.91323686e+02 -2.89026135e-03  4.52992136e+04],887,2073.5444209927905
218,218,[ 1.12671660e+04  2.98331388e+02 -6.13780538e-03  1.85044449e+04],663,2097.767441034618
219,219,[ 1.09699242e+04  2.99362877e+02 -5.69933418e-03  1.85154373e+04],123,2105.5477961383804
220,220,[ 1.08935896e+04  2.99172542e+02 -6.86331212e-03  1.71743176e+04],1026,2099.7007417430336
221,221,[ 1.11931803e+04  2.98330705e+02 -6.21819492e-03  1.71465500e+04],923,2099.913169054854
222,222,[ 1.12381858e+04  2.98726946e+02 -5.41151721e-03  1.71473386e+04],189,2090.7058998170646
223,223,[ 1.09389243e+04  3.00809437e+02 -7.33154277e-03  1.71459090e+04],754,2097.605248581796
224,224,[ 1.15130603e+04  2.98331369e+02 -6.15859179e-03  1.62833333e+04],363,2099.152083956681
225,225,[ 1.11921255e+04  3.00441929e+02 -6.29981674e-03  3.85821719e+04],635,2091.089115698091
226,226,[ 1.09891844e+04  3.00620766e+02 -7.27837555e-03  2.06716980e+04],565,2101.2488095883136
227,227,[ 4.00249277e+03  3.10760391e+02 -2.89836461e-02  1.69900277e+04],424,2093.7218593144144
228,228,[ 1.10764763e+04  2.98135925e+02 -6.81542523e-03  1.71628212e+04],951,2090.5703674398655
229,229,[ 1.14856354e+04  2.99416400e+02 -6.07580500e-03  1.71628212e+04],1019,2107.6287920245995
230,230,[ 1.13945740e+04  2.99361567e+02 -5.45634214e-03  2.66948073e+04],1021,2104.5405411742
231,231,[ 1.09056261e+04  3.00837190e+02 -7.19213398e-03  1.71776411e+04],710,2101.6592312325224
232,232,[ 1.13119998e+04  2.98330793e+02 -5.71979043e-03  1.71705856e+04],1083,2086.3110205218068
233,233,[ 1.11845178e+04  2.98156928e+02 -5.68652377e-03  1.72318566e+04],252,2088.147103000833
234,234,[ 1.11497203e+04  2.98331390e+02 -6.50137050e-03  1.75854322e+04],981,2090.3604912388896
235,235,[ 1.15164979e+04  2.99488912e+02 -5.90287414e-03  1.83761316e+04],169,2101.773203971196
236,236,[ 1.14186043e+04  2.98331337e+02 -5.50322277e-03  1.71712874e+04],648,2103.5193253170396
237,237,[ 1.04128458e+04  2.93325886e+02 -3.08226291e-03  1.71718018e+04],624,2092.543012317061
238,238,[ 1.16940542e+04  2.97330284e+02 -5.69408878e-03  1.87662288e+04],1005,2089.7687177990647
239,239,[ 1.19982639e+04  2.95328131e+02 -3.76039419e-03  7.43143178e+04],1116,2088.656349877302
240,240,[ 1.10926569e+04  2.98331384e+02 -6.49720434e-03  1.72201161e+04],572,2096.599510682279
241,241,[ 1.14189934e+04  3.00668820e+02 -5.78974410e-03  1.72167775e+04],897,2086.576094147185
242,242,[ 1.08362248e+04  2.99907784e+02 -6.36532086e-03  1.72167775e+04],250,2104.7892657238094
243,243,[ 1.10578700e+04  2.97935596e+02 -6.37199908e-03  1.72167775e+04],988,2087.8543189822162
244,244,[ 1.10554721e+04  3.00720087e+02 -5.79471958e-03  1.72167775e+04],1349,2090.7248431472876
245,245,[ 1.09441136e+04  2.98769251e+02 -6.20937558e-03  1.82750342e+04],16,2102.1217609308146
246,246,[ 1.13817183e+04  2.99332546e+02 -5.09929276e-03  3.08177554e+04],745,2086.40116105803
247,247,[ 1.09018714e+04  2.98331299e+02 -5.58776627e-03  1.72279811e+04],1107,2088.1090487826114
248,248,[ 3.00300539e+03  3.11427055e+02 -3.86703158e-02  1.72307978e+04],1096,2084.639874062023
249,249,[ 1.10038921e+04  2.98272866e+02 -5.79613551e-03  1.72280127e+04],1100,2101.6163999197684
250,250,[ 1.08980995e+04  2.98288250e+02 -5.72248942e-03  1.72280127e+04],884,2103.0588921990275
251,251,[ 1.07372865e+04  3.00333576e+02 -6.27475881e-03  1.81904196e+04],1356,2095.641493405871
252,252,[ 1.10264495e+04  2.98331360e+02 -5.42300021e-03  1.65662592e+04],375,2103.209931953441
253,253,[ 1.07576326e+04  2.99933015e+02 -6.59932402e-03  1.72295678e+04],178,2105.644520567372
254,254,[ 1.10589606e+04  2.98327144e+02 -5.93133261e-03  1.72282430e+04],1104,2102.42151415525
255,255,[ 1.11185111e+04  2.97973294e+02 -5.60362903e-03  1.72282430e+04],639,2097.272026291767
256,256,[ 1.08227620e+04  2.98868383e+02 -6.39235461e-03  1.72283242e+04],506,2082.541483656224
257,257,[ 1.14749782e+04  2.98331423e+02 -5.20209964e-03  2.92534449e+04],749,2098.1187164821154
258,258,[ 1.10417910e+04  2.98331385e+02 -5.69345684e-03  1.72379400e+04],1102,2087.3841402120684
259,259,[ 3.28910237e+03  3.10652446e+02 -4.58411106e-02  1.72375546e+04],790,2074.601107419386
260,260,[ 1.01396739e+04  2.95328013e+02 -4.02402640e-03  1.72373762e+04],731,2099.6037107703823
261,261,[ 1.08483765e+04  3.00708123e+02 -6.10718926e-03  1.73115704e+04],422,2090.2296162256953
262,262,[ 1.10995987e+04  2.98533688e+02 -6.47677345e-03  1.72374376e+04],414,2102.175999684718
263,263,[ 1.09143710e+04  2.97995203e+02 -5.92400636e-03  1.72374376e+04],13,2076.7716598766406
264,264,[ 1.09300825e+04  2.99332468e+02 -6.70068771e-03  1.68909526e+04],1339,2099.931529088676
265,265,[ 1.11279462e+04  2.98330933e+02 -6.16584668e-03  1.88208718e+04],829,2078.157101477402
266,266,[ 1.09813297e+04  3.00138894e+02 -5.63042596e-03  1.72384447e+04],254,2084.262703172193
267,267,[ 1.07270310e+04  2.98732806e+02 -7.25682581e-03  1.79532851e+04],215,2075.472058352428
268,268,[ 1.14606300e+04  2.98331374e+02 -5.91492472e-03  1.64313591e+04],702,2096.158536010058
269,269,[ 1.09938522e+04  2.99801343e+02 -6.55010189e-03  1.72383025e+04],207,2105.05849442262
270,270,[ 1.10951977e+04  2.98331383e+02 -6.21640927e-03  1.97714223e+04],948,2076.244204399331
271,271,[ 1.10426784e+04  2.98331363e+02 -5.79037591e-03  1.64723425e+04],987,2090.016291091658
272,272,[ 1.07924099e+04  3.00089042e+02 -7.05360852e-03  1.72403133e+04],588,2098.536616926681
273,273,[ 1.11123653e+04  3.00544512e+02 -5.84643232e-03  2.60419670e+04],262,2095.0475364123918
274,274,[ 1.10075932e+04  3.00181223e+02 -6.11885854e-03  1.72462400e+04],818,2100.9871217774466
275,275,[ 1.12695217e+04  2.99331387e+02 -6.08015345e-03  1.72860938e+04],947,2108.3969397253895
276,276,[ 1.11681351e+04  2.98330518e+02 -5.46824575e-03  1.72462699e+04],902,2084.091746996962
277,277,[ 1.12066352e+04  3.06340380e+02 -3.00140330e-03 -9.78108046e+04],1358,2067.6312132769913
278,278,[ 1.10700277e+04  2.98313864e+02 -6.03351724e-03  1.71605910e+04],245,2078.2616251702593
279,279,[ 1.08266508e+04  3.01058504e+02 -6.72691424e-03  1.71601497e+04],382,2088.2337404594996
280,280,[ 1.09216175e+04  3.01952620e+02 -6.81263891e-03  1.71601497e+04],199,2077.3234392591303
281,281,[ 1.17451115e+04  2.98331425e+02 -4.43440155e-03  2.29988601e+04],479,2075.4488915532506
282,282,[ 1.08803709e+04  3.00042654e+02 -7.04409070e-03  1.71645069e+04],593,2104.7446253276053
283,283,[ 1.11725424e+04  2.98330974e+02 -6.56721069e-03  1.71645069e+04],1327,2078.858373047129
284,284,[ 1.14052270e+04  2.98331369e+02 -5.69813554e-03  1.61729097e+04],1012,2100.7904459979354
285,285,[ 1.11784131e+04  2.98331363e+02 -5.81777712e-03  1.63761218e+04],913,2085.572616693435
286,286,[ 1.11362474e+04  2.99332478e+02 -5.54434956e-03  1.62584473e+04],764,2095.4310769844988
287,287,[ 1.09324302e+04  2.98331406e+02 -6.72251443e-03  2.09240481e+04],1055,2090.9037263452224
288,288,[ 1.10132422e+04  2.99520174e+02 -6.70469408e-03  1.71653045e+04],30,2104.6552132262445
289,289,[ 1.09212758e+04  2.99331615e+02 -5.61824093e-03  1.71653045e+04],1336,2106.085435357997
290,290,[ 1.03582588e+04  3.01798475e+02 -7.97408886e-03  1.71653045e+04],150,2087.810396105547
291,291,[ 1.09252799e+04  2.98329322e+02 -6.18311747e-03  1.77075935e+04],785,2078.2357626468975
292,292,[ 1.10420531e+04  2.99537566e+02 -5.72139171e-03  1.71657086e+04],895,2105.039202754786
293,293,[-8.55903324e+02  3.40377929e+02 -1.05248170e-04  1.71657062e+04],803,2079.187762720247
294,294,[ 1.10125111e+04  3.00490415e+02 -6.01056822e-03  1.71657062e+04],483,2099.385169578343
295,295,[ 1.08816888e+04  3.00968537e+02 -6.01290728e-03  1.71842675e+04],297,2086.0798257395736
296,296,[ 1.06678171e+04  3.01733422e+02 -7.10630461e-03  1.71657199e+04],730,2081.1150236938956
297,297,[ 1.12290223e+04  2.98331078e+02 -5.68310404e-03  1.71657708e+04],366,2101.908410394256
298,298,[ 1.10406962e+04  2.98924219e+02 -6.41537108e-03  1.71657199e+04],154,2104.0540241118197
299,299,[ 1.09309464e+04  2.98331185e+02 -6.80042941e-03  1.71667215e+04],537,2086.8373593110755
300,300,[ 1.13575100e+04  2.99747031e+02 -5.50716493e-03  1.71657206e+04],823,2099.007479650103
301,301,[ 1.10798166e+04  3.00159525e+02 -6.43158955e-03  1.71657206e+04],1328,2095.406143850845
302,302,[ 1.12129141e+04  2.98331366e+02 -6.33425672e-03  1.60360997e+04],675,2080.397230882616
303,303,[ 1.12300917e+04  2.98956628e+02 -5.72902091e-03  1.71649117e+04],704,2103.567623361097
304,304,[ 1.07915422e+04  2.98597547e+02 -7.62212442e-03  1.71783499e+04],235,2085.077159452619
305,305,[ 1.11408914e+04  2.99307173e+02 -6.14198026e-03  1.71651838e+04],196,2088.3005569343763
306,306,[ 1.09569101e+04  3.00333600e+02 -6.50840767e-03  1.89924147e+04],119,2083.1822429563285
307,307,[ 1.08011990e+04  3.01334693e+02 -6.98713969e-03  1.65818458e+04],991,2087.2044606681247
308,308,[ 1.11971965e+04  2.99234167e+02 -5.74853828e-03  1.71658118e+04],713,2107.3805324127043
309,309,[ 1.08664454e+04  2.98331373e+02 -7.44476764e-03  1.58374226e+04],310,2067.8535660420694
310,310,[ 1.11711531e+04  2.98858304e+02 -6.49435787e-03  1.71648407e+04],351,2101.6846611972915
311,311,[ 1.13698458e+04  2.98865482e+02 -5.70890041e-03  1.71652677e+04],208,2105.304755451726
312,312,[-8.95260892e+02  3.37374754e+02 -9.39416528e-05  1.72772310e+04],231,2048.0916242685958
313,313,[ 1.10797043e+04  3.00277477e+02 -6.48367892e-03  1.71534450e+04],418,2089.3795117669715
314,314,[ 1.15069957e+04  2.96329176e+02 -4.93952562e-03  1.87678478e+04],249,2076.004043775038
315,315,[ 1.06745089e+04  3.00100396e+02 -7.20008933e-03  1.71660415e+04],566,2101.4777267406002
316,316,[ 1.12368119e+04  2.98842573e+02 -5.81859448e-03  1.71660821e+04],600,2106.0001468985383
317,317,[ 1.11455133e+04  2.98115275e+02 -5.78797762e-03  1.71660821e+04],102,2099.800004672723
318,318,[ 2.44014282e+03  3.13339124e+02 -7.72549289e-02  1.71669022e+04],871,2075.059504117526
319,319,[ 1.12048751e+04  2.98331390e+02 -5.67789016e-03  1.92820175e+04],6,2084.6064271983164
320,320,[ 1.11023795e+04  2.97875691e+02 -5.92872680e-03  1.71675802e+04],985,2082.6970825154563
321,321,[ 1.10346424e+04  2.99587574e+02 -6.26115922e-03  1.71676345e+04],315,2099.6525246996516
322,322,[ 1.11119516e+04  2.98940797e+02 -5.55119420e-03  1.70461531e+04],97,2086.082417832118
323,323,[ 1.07364492e+04  3.00182136e+02 -6.45495305e-03  1.70519592e+04],579,2093.447286728835
324,324,[ 1.10171343e+04  2.99332265e+02 -6.18375858e-03  1.71674580e+04],139,2100.3752060644315
325,325,[ 1.12640833e+04  2.99728836e+02 -5.40565079e-03  1.71674520e+04],135,2094.2037742999655
326,326,[ 1.07852498e+04  2.97752737e+02 -6.46662102e-03  1.80879222e+04],1326,2073.4394935423525
327,327,[ 1.09218711e+04  2.99933002e+02 -6.15512530e-03  1.72573505e+04],144,2096.01420414503
328,328,[ 1.11574313e+04  2.98775784e+02 -5.40241920e-03  1.71684917e+04],411,2100.2373510449565
329,329,[ 1.07755516e+04  2.99785787e+02 -6.43872320e-03  1.71681782e+04],727,2091.1744243590188
330,330,[ 3.83578463e+03  3.10421453e+02 -2.36794785e-02  1.71681797e+04],161,2094.4011819455063
331,331,[ 1.09455339e+04  2.98298648e+02 -5.47628659e-03  1.71681825e+04],575,2090.0260444630303
332,332,[ 4.58899143e+03  3.08684620e+02 -2.45688321e-02  1.71674440e+04],226,2081.7894989468673
333,333,[ 1.08791922e+04  3.00240654e+02 -6.02666117e-03  1.71681987e+04],447,2078.8708181131387
334,334,[ 1.11637255e+04  2.97330305e+02 -4.97200648e-03  2.03814924e+04],970,2093.2104892175907
335,335,[ 1.04078196e+04  2.99915641e+02 -7.11314217e-03  1.71704934e+04],37,2085.5544106439743
336,336,[ 2.88980237e+03  3.11921682e+02 -4.07440499e-02  1.71704821e+04],1063,2083.6245497029904
337,337,[ 1.10116419e+04  2.99332473e+02 -5.38568216e-03  1.76022863e+04],1079,2083.3659038575825
338,338,[ 1.07516593e+04  2.98630088e+02 -6.30200299e-03  1.71707938e+04],349,2092.950926226672
339,339,[ 1.07455945e+04  3.00946138e+02 -6.49265716e-03  1.71802790e+04],673,2084.2950219957434
340,340,[ 1.08897106e+04  2.97574398e+02 -5.64634711e-03  1.71707982e+04],665,2070.237204036074
341,341,[ 1.04479768e+04  3.00998645e+02 -7.23387471e-03  1.71711803e+04],47,2077.883171496502
342,342,[ 1.11936818e+04  2.97330279e+02 -5.81135913e-03  1.82600557e+04],905,2081.277334797685
343,343,[ 1.10019160e+04  3.00077507e+02 -5.65994116e-03  1.71726785e+04],214,2093.3033242443503
344,344,[ 1.08446168e+04  2.99479193e+02 -6.50337558e-03  1.71716048e+04],1132,2089.5246080035636
345,345,[ 1.09176298e+04  3.01014095e+02 -6.40396918e-03  1.71715841e+04],642,2080.2359628221566
346,346,[ 1.10496871e+04  2.99068715e+02 -5.53819120e-03  1.71715768e+04],628,2103.9142061106068
347,347,[ 1.09100838e+04  2.99150608e+02 -6.71313184e-03  1.71715920e+04],201,2099.095822944586
348,348,[ 1.14402521e+04  2.96329190e+02 -5.00027529e-03  1.96288933e+04],274,2088.531787569184
349,349,[ 1.11161446e+04  2.98331331e+02 -5.53250809e-03  1.34340240e+04],735,2101.1704298753234
350,350,[ 3.06388207e+03  3.12039283e+02 -3.81200217e-02  1.71706675e+04],863,2099.994583259141
351,351,[ 1.11501539e+04  2.99739551e+02 -5.75399509e-03  1.71706692e+04],622,2101.683656696551
352,352,[ 1.12058180e+04  2.99623416e+02 -5.44466223e-03  1.81390863e+04],474,2099.1141862437885
353,353,[-1.60081811e+02  3.12347438e+02 -4.66758721e-03  1.71713539e+04],653,2091.990602763639
354,354,[ 1.11236946e+04  2.99417606e+02 -5.88797684e-03  1.71826969e+04],961,2100.541629023408
355,355,[-1.51816850e+02  3.12347357e+02 -4.61653361e-03  1.71713619e+04],1152,2082.5629176645284
356,356,[ 1.05786127e+04  3.00629515e+02 -7.26261605e-03  1.71719280e+04],284,2095.991736699537
357,357,[ 1.12746760e+04  2.98331382e+02 -5.99353613e-03  1.62317444e+04],460,2090.6989237421353
358,358,[ 1.13213630e+04  2.98794790e+02 -5.36823353e-03  1.71707020e+04],699,2100.450078321775
359,359,[ 1.05765579e+04  3.00841710e+02 -7.24368880e-03  1.71713094e+04],1092,2096.623178057957
360,360,[ 1.09977535e+04  3.00333219e+02 -6.18740314e-03  1.70166455e+04],145,2087.45752978587
361,361,[ 1.10484980e+04  2.99031625e+02 -5.53486422e-03  1.71705909e+04],563,2103.553246405315
362,362,[ 1.06514542e+04  3.00569948e+02 -6.84417744e-03  1.71706973e+04],679,2098.6436519047934
363,363,[ 1.09988809e+04  2.98331329e+02 -5.79341279e-03  1.71704992e+04],725,2103.3661257361264
364,364,[ 1.10207394e+04  2.99054780e+02 -6.06473562e-03  1.71711984e+04],724,2105.470974071211
365,365,[ 1.36269177e+03  5.93659056e+02 -2.21402483e-03  1.71705910e+04],975,2073.1247881515797
366,366,[ 1.14547422e+04  2.97330332e+02 -4.69758706e-03  3.41300547e+04],808,2101.8904170146143
367,367,[ 1.09828258e+04  2.99993616e+02 -6.28961342e-03  1.71825192e+04],441,2093.9704974155793
368,368,[ 1.10951329e+04  2.99409691e+02 -6.32506898e-03  1.71826192e+04],517,2100.6102647262323
369,369,[ 1.10606343e+04  2.98034121e+02 -5.85899908e-03  1.71830101e+04],15,2086.8730428257218
370,370,[ 1.09641426e+04  2.99712705e+02 -6.82885286e-03  1.71824922e+04],1036,2098.3435655703142
371,371,[ 4.22513334e+03  1.08108905e+03 -5.11769925e-02  1.71824929e+04],368,2093.522831621632
372,372,[ 3.45429409e+03  1.08534679e+03 -5.39429283e-02  1.71824929e+04],535,2085.846788786962
373,373,[-9.56181247e+02  3.75417052e+02 -1.45052555e-04  1.71822967e+04],893,2082.963593523981
374,374,[ 1.08792965e+04  3.00387670e+02 -6.10608084e-03  1.72144716e+04],1545,2093.6800922652264
375,375,[ 1.07224052e+04  3.00376224e+02 -6.94431134e-03  1.71826688e+04],354,2102.8964838731813
376,376,[ 8.10296124e+01  3.10344551e+02 -4.15653200e-03  1.71825151e+04],428,2095.412573921032
377,377,[ 3.08505703e+03  1.52101799e+03 -2.02266221e-01  1.71825151e+04],1316,2094.121288985586
378,378,[ 2.31650668e+01  3.10344528e+02 -4.38182024e-03  1.71825151e+04],1337,2105.1935950515763
379,379,[ 1.11031333e+04  2.99070247e+02 -5.94016780e-03  1.71820428e+04],358,2098.291746346353
380,380,[ 2.71276682e+03  1.73459560e+03 -1.70560060e-01  1.71825148e+04],24,2091.9297467572374
381,381,[-1.27469841e+02  3.93436602e+02 -8.55264574e-05  1.71825148e+04],806,2085.5400610374913
382,382,[-2.87705994e+01  3.15350671e+02  2.82930440e-06  1.71825148e+04],1014,2102.1061503786577
383,383,[ 4.87483906e+01  3.11345548e+02 -1.01528591e-02  1.71825148e+04],1061,2084.6534827115966
384,384,[-1.14965513e+02  3.90433507e+02 -9.06534980e-05  1.71825148e+04],324,2080.2555347197963
385,385,[-8.16523542e+01  3.74414959e+02 -6.49969101e-05  1.71825148e+04],463,2107.2729701973085
386,386,[-1.41040820e+02  4.04449125e+02 -1.11672606e-04  1.71825148e+04],534,2085.1589667938215
387,387,[-8.51701860e+02  3.69432866e+02 -1.48026571e-04  2.48952476e+04],567,2098.8995382642133
388,388,[-1.20913181e+01  3.07343217e+02  4.70684835e-06  1.71878487e+04],77,2081.1757093777546
389,389,[-1.37038777e+02  3.97440768e+02 -9.79266740e-05  1.71878487e+04],793,2095.4513960570844
390,390,[-9.36903561e+02  3.68337548e+02 -1.40476278e-04  1.71986813e+04],807,2096.680900380174
391,391,[ 9.36524913e+01  3.16351106e+02 -5.18429894e-03  1.71878561e+04],487,2083.429397019473
392,392,[-1.04367163e+02  3.79421292e+02 -8.21578061e-05  1.71878561e+04],142,2089.6141824225133
393,393,[ 1.11510135e+04  2.99655093e+02 -5.72351382e-03  1.71878615e+04],845,2094.6821009813143
394,394,[-8.43418063e+01  3.89432322e+02 -1.13427647e-04  1.71878561e+04],328,2091.4978684979224
395,395,[-6.77491090e+01  3.86428692e+02 -1.05922879e-04  1.71878561e+04],1108,2083.0795024961562
396,396,[ 3.42796884e+01  3.14348818e+02 -7.37008886e-03  1.71878561e+04],1344,2084.945815508912
397,397,[-9.09039525e+01  3.92435702e+02 -8.23539719e-05  1.71878561e+04],847,2079.9739564099145
398,398,[-7.00055882e+01  3.82424382e+02 -8.47959491e-05  1.71878561e+04],560,2077.6520958006918
399,399,[ 4.04948115e+01  3.03336699e+02 -4.20241979e-03  1.71878561e+04],1562,2083.4366603420267
400,400,[-8.56241579e+01  3.90433549e+02 -9.89645343e-05  1.71878561e+04],912,2099.9257219129927
401,401,[-6.78792334e+01  3.75415605e+02 -8.93049321e-05  1.71878561e+04],350,2091.0223013071877
402,402,[-2.61958225e+01  3.00336010e+02  4.10376170e-06  1.71878561e+04],165,2104.487550042654
403,403,[-5.66041058e+01  3.69410181e+02 -7.74510391e-05  1.71878561e+04],1696,2098.844490950282
404,404,[-7.19903420e+01  3.75416460e+02 -8.92077205e-05  1.71878561e+04],707,2095.8909503393493
405,405,[-8.60326928e+01  3.90433233e+02 -7.32934016e-05  1.71878561e+04],940,2105.743055219675
406,406,[-7.71298721e+01  3.85427770e+02 -8.45153976e-05  1.71878561e+04],429,2050.019942182646
407,407,[ 6.88421495e+01  3.16350949e+02 -4.44579601e-03  1.71878561e+04],943,2083.809715072885
408,408,[-8.33906550e+01  3.92435622e+02 -8.48259593e-05  1.71878561e+04],264,2081.703221590796
409,409,[-1.00043126e+02  3.98442410e+02 -9.46009947e-05  1.71878561e+04],198,2098.786926148495
410,410,[-9.69656126e+01  3.96439367e+02 -8.60225721e-05  1.71878561e+04],400,2095.517906037898
411,411,[-9.28734809e+02  3.95438730e+02 -2.06856763e-04  1.71878579e+04],221,2101.2984498748187
412,412,[ 3.85688558e+01  3.14348993e+02 -6.52114638e-03  1.71878561e+04],876,2094.9973841397373
413,413,[-9.11149504e+01  3.92435469e+02 -9.09532030e-05  1.71878561e+04],1073,2081.900711288512
414,414,[-8.51141387e+01  3.88431353e+02 -8.98982149e-05  1.71878561e+04],484,2102.5593508893758
415,415,[-8.92750589e+01  3.88430698e+02 -8.46130432e-05  1.71878561e+04],94,2104.7036003421526
416,416,[-9.73565817e+01  3.91434365e+02 -7.73153634e-05  1.71878561e+04],859,2081.178574541504
417,417,[-6.81673633e+01  3.73414279e+02 -7.10804705e-05  1.71878561e+04],1084,2079.0544704527224
418,418,[-8.56447936e+02  4.02424476e+02 -2.11653355e-04  1.72677588e+04],700,2101.6491394026184
419,419,[-1.06613494e+02  3.96439894e+02 -9.30399671e-05  1.71879102e+04],317,2095.2575154042643
420,420,[-1.04881145e+02  3.97441266e+02 -1.19823858e-04  1.71879102e+04],747,2082.6999430026744
421,421,[-7.29825989e+01  3.79420890e+02 -8.04452482e-05  1.71879102e+04],1018,2092.07694962847
422,422,[-1.16156718e+02  3.96439875e+02 -8.48439070e-05  1.71879102e+04],1027,2102.614952896201
423,423,[-8.35787874e+01  3.86428248e+02 -8.32219646e-05  1.71879102e+04],746,2066.130447288219
424,424,[-1.03540224e+02  3.90433205e+02 -8.58631587e-05  1.71879102e+04],481,2103.324949966332
425,425,[-7.98011456e+02  4.05449871e+02 -2.61241475e-04  1.71884753e+04],907,2070.5262216081455
426,426,[-9.30365576e+01  3.89432319e+02 -9.48527284e-05  1.71879106e+04],687,2093.7836149574005
427,427,[-9.96201096e+01  3.94437155e+02 -8.27992430e-05  1.71879106e+04],220,2105.0269685925755
428,428,[-1.11866652e+02  4.01445379e+02 -1.10702581e-04  1.71879106e+04],938,2100.4777567169835
429,429,[-1.00189950e+02  3.92435730e+02 -9.16692567e-05  1.71879106e+04],502,2099.9525092294743
430,430,[-8.59706573e+01  3.86428295e+02 -6.45969310e-05  1.71879106e+04],684,2091.7793346142075
431,431,[-1.01924837e+02  3.92435657e+02 -1.09351229e-04  1.71879106e+04],321,2090.2868438379496
432,432,[-1.24798957e+02  4.00444639e+02 -9.28170756e-05  1.71879106e+04],445,2090.821656158441
433,433,[-9.65724011e+01  3.89432361e+02 -7.77418282e-05  1.71879106e+04],260,2094.2914919974787
434,434,[-8.07296155e+02  4.02353920e+02 -2.14799519e-04  2.01524536e+04],100,2089.361913886209
435,435,[-1.05792280e+02  3.96439766e+02 -8.66979077e-05  1.71898962e+04],1772,2094.8944965570113
436,436,[-9.65946300e+01  3.88431317e+02 -8.51440152e-05  1.71898962e+04],1034,2104.4988204843803
437,437,[-9.31756602e+01  3.81423407e+02 -8.63078719e-05  1.71898962e+04],795,2105.7884333081847
438,438,[-1.09704130e+02  3.96439960e+02 -8.95477203e-05  1.71898962e+04],918,2105.2519043404727
439,439,[-9.81891180e+01  3.89432168e+02 -9.25976677e-05  1.71898962e+04],1499,2095.35059753553
440,440,[-1.15192310e+02  3.94437872e+02 -8.40682382e-05  1.71898962e+04],174,2104.329923493205
441,441,[-1.04840713e+02  3.90433207e+02 -7.75510226e-05  1.71898962e+04],115,2100.6546001464176
442,442,[-8.26067008e+02  4.02447066e+02 -2.18315352e-04  1.72539069e+04],1015,2105.4683260398474
443,443,[-9.97996196e+01  3.87429862e+02 -7.67726156e-05  1.71899389e+04],1038,2094.3553335086963
444,444,[-1.04118084e+02  3.91434456e+02 -9.46831152e-05  1.71899389e+04],5,2099.4139432061065
445,445,[-1.07673861e+02  3.91434573e+02 -1.02951886e-04  1.71899389e+04],1340,2099.6299099838516
446,446,[-8.70778376e+02  3.96440189e+02 -1.62606601e-04  2.38438322e+04],444,2098.252793205827
447,447,[-1.03228655e+02  3.88430426e+02 -9.59381095e-05  1.71943601e+04],1341,2101.239814693225
448,448,[-8.15763735e+02  4.03660994e+02 -2.11982230e-04  1.71949017e+04],294,2096.9889957186374
449,449,[-1.21060991e+02  3.96440230e+02 -8.46498556e-05  1.71943604e+04],4,2096.1213115737987
450,450,[-1.12254798e+02  3.90433532e+02 -9.37628039e-05  1.71943604e+04],608,2106.3548874860126
451,451,[-1.14505187e+02  3.89431499e+02 -8.23450275e-05  1.71943604e+04],20,2105.773481258219
452,452,[-1.11123633e+02  3.91434272e+02 -9.31365091e-05  1.71943604e+04],721,2082.0391522471054
453,453,[-7.61381539e+02  3.81423521e+02 -1.64225265e-04  1.71944258e+04],1374,2089.6344996904627
454,454,[-8.31705205e+02  3.99441069e+02 -1.88893927e-04  1.71943605e+04],1618,2084.2391224751104
455,455,[-9.76826019e+01  3.79421191e+02 -9.12839683e-05  1.71943605e+04],1008,2083.064206847683
456,456,[-1.05783900e+02  3.85427879e+02 -9.39382476e-05  1.71943605e+04],17,2075.622585159377
457,457,[-1.07639053e+02  3.83425472e+02 -8.52702490e-05  1.71943605e+04],641,2105.5946857424233
458,458,[-1.04711607e+02  3.83425768e+02 -9.57400044e-05  1.71943605e+04],1280,2094.908775509273
459,459,[-8.83209835e+02  3.83425179e+02 -1.60349646e-04  1.71943608e+04],637,2103.684004287347
460,460,[-1.24050503e+02  3.92435455e+02 -8.67096114e-05  1.71943605e+04],1004,2100.7883593950314
461,461,[-7.70903474e+02  3.86931294e+02 -1.93837305e-04  1.71942866e+04],1065,2091.5251383441237
462,462,[-1.25876758e+02  3.90433459e+02 -8.82858635e-05  1.71943604e+04],601,2105.3591511694385
463,463,[-1.25958126e+02  3.86429103e+02 -9.15094367e-05  1.71943604e+04],751,2100.369769218123
464,464,[-1.32574241e+02  3.93436719e+02 -1.01929952e-04  1.71943604e+04],519,2085.003926717426
465,465,[-8.37736424e+02  3.78420141e+02 -1.68269006e-04  1.71948680e+04],1810,2072.6206877591067
466,466,[-1.34958480e+02  3.91434512e+02 -1.00708339e-04  1.71943608e+04],224,2087.4074068506866
467,467,[-1.22567692e+02  3.85427543e+02 -7.92280717e-05  1.71943608e+04],352,2089.6617381222813
468,468,[-1.33345253e+02  3.91434734e+02 -9.64445355e-05  1.71943608e+04],347,2093.071758673573
469,469,[-1.30472240e+02  3.90433534e+02 -8.81081566e-05  1.71943608e+04],1072,2107.363908708111
470,470,[-1.37906871e+02  3.92435704e+02 -8.80227784e-05  1.71943608e+04],300,2091.3795153897595
471,471,[-1.06263675e+02  3.78420032e+02 -9.00581709e-05  1.71943608e+04],216,2093.264795606025
472,472,[-1.47050993e+02  3.91433966e+02 -1.03486383e-04  1.71943608e+04],657,2097.0573808386753
473,473,[-1.16406072e+02  3.83425735e+02 -7.90111454e-05  1.71943608e+04],896,2087.982956670533
474,474,[-1.49927485e+02  3.97440877e+02 -1.13745552e-04  1.71943608e+04],683,2100.8392825195147
475,475,[-1.47240618e+02  3.98442180e+02 -9.91179763e-05  1.71943608e+04],488,2092.4020068819523
476,476,[-1.31876564e+02  3.91434634e+02 -8.69888485e-05  1.71943608e+04],688,2095.2672011671284
477,477,[-8.36783651e+02  3.85436665e+02 -1.88066589e-04  1.71951091e+04],1058,2067.026420746398
478,478,[-1.09593804e+02  3.78419835e+02 -7.93666447e-05  1.71943613e+04],1094,2096.0958352833304
479,479,[-1.35748172e+02  3.89432271e+02 -9.28977691e-05  1.71943613e+04],387,2102.1041776872917
480,480,[-8.60885759e+02  3.86427254e+02 -1.74104996e-04  1.71943614e+04],403,2078.928923039287
481,481,[-1.79234683e+02  4.03447885e+02 -1.19497011e-04  1.71943613e+04],1235,2099.736296481629
482,482,[-1.57298403e+02  3.97441184e+02 -1.01678470e-04  1.71943613e+04],409,2093.1956605326513
483,483,[-9.22960311e+02  3.90432188e+02 -1.87665418e-04  1.71943637e+04],1652,2101.919303248336
484,484,[-1.38612944e+02  3.88431094e+02 -8.83536148e-05  1.71943613e+04],1167,2099.8591270919414
485,485,[-1.45379032e+02  3.89432073e+02 -9.52083682e-05  1.71943613e+04],584,2093.0664103377594
486,486,[-1.27979494e+02  3.81422947e+02 -8.91946212e-05  1.71943613e+04],1149,2086.5888765850686
487,487,[-1.27692689e+02  3.83425762e+02 -8.56454309e-05  1.71943613e+04],591,2100.293231279342
488,488,[-1.20134540e+02  3.82424550e+02 -8.89400255e-05  1.71943613e+04],362,2098.960350080779
489,489,[-1.40195267e+02  3.87430104e+02 -9.27571424e-05  1.71943613e+04],559,2082.1018724779433
490,490,[-1.36557376e+02  3.88431229e+02 -9.43401268e-05  1.71943613e+04],1417,2093.6286763811054
491,491,[-1.50916078e+02  3.92435769e+02 -9.86673165e-05  1.71943613e+04],1081,2094.3495764612594
492,492,[-1.42452135e+02  3.90433492e+02 -7.97867289e-05  1.71943613e+04],272,2088.109372903307
493,493,[-1.42703613e+02  3.90432965e+02 -1.03048726e-04  1.71943613e+04],812,2083.1205566255107
494,494,[-1.49393830e+02  3.94437929e+02 -8.46035760e-05  1.71943613e+04],1010,2076.7786864927807
495,495,[-1.70374072e+02  3.96440191e+02 -1.04046024e-04  1.71943613e+04],610,2103.7560233285926
496,496,[-1.19342986e+02  3.79421308e+02 -7.22729281e-05  1.71943613e+04],1090,2096.856979647673
497,497,[-9.52313445e+02  3.98442395e+02 -1.79101640e-04  1.71943679e+04],1637,2093.5813881817858
498,498,[-1.49598388e+02  3.92435438e+02 -9.74155190e-05  1.71943613e+04],1297,2090.73193121624
499,499,[-1.55654635e+02  3.92435738e+02 -8.96282825e-05  1.71943613e+04],1239,2091.0994748921917
500,500,[-9.04114668e+02  3.92435706e+02 -2.01294638e-04  1.72100665e+04],966,2082.0978101057644
501,501,[-1.44990375e+02  3.89432381e+02 -9.34001225e-05  1.71943713e+04],958,2095.766454216918
502,502,[-1.70948258e+02  3.96440156e+02 -9.62212835e-05  1.71943713e+04],820,2099.6578029955654
503,503,[-1.67279707e+02  3.94437474e+02 -9.68707344e-05  1.71943713e+04],370,2079.487828227834
504,504,[-1.73025173e+02  3.99443564e+02 -9.65035598e-05  1.71943713e+04],1460,2087.5347048779563
505,505,[-8.94600116e+02  4.01445322e+02 -2.15044560e-04  1.71944016e+04],722,2091.8125004806443
506,506,[-1.78157924e+02  3.95438883e+02 -8.74414590e-05  1.71943714e+04],934,2102.8671839369495
507,507,[-1.51341630e+02  3.88431062e+02 -8.04865239e-05  1.71943714e+04],1089,2081.6828905661173
508,508,[-9.78154318e+02  3.83425032e+02 -1.74189595e-04  1.71943779e+04],379,2090.4061618244737
509,509,[-1.62610477e+02  3.91434554e+02 -8.46955998e-05  1.71943714e+04],740,2106.668226343822
510,510,[-1.63820140e+02  3.91434419e+02 -1.06695987e-04  1.71943714e+04],1564,2096.536542880123
511,511,[-1.72200427e+02  3.94437487e+02 -1.02170367e-04  1.71943714e+04],446,2104.230166017154
512,512,[-1.54197141e+02  3.87430112e+02 -8.65796244e-05  1.71943714e+04],698,2106.1201470531464
513,513,[-1.67946458e+02  3.92435640e+02 -9.52671652e-05  1.71943714e+04],1698,2071.713749256642
514,514,[-1.54892859e+02  3.88431322e+02 -7.95403937e-05  1.71943714e+04],1453,2096.846057154978
515,515,[-1.89979010e+02  3.94437478e+02 -8.75541150e-05  1.71943714e+04],609,2103.7213757810964
516,516,[-1.66612640e+02  3.92435317e+02 -1.08469682e-04  1.71943714e+04],621,2104.610435419549
517,517,[-1.84719270e+02  3.92435653e+02 -8.97506053e-05  1.71943714e+04],257,2100.6469152270915
518,518,[-1.76832813e+02  3.93436885e+02 -9.60844685e-05  1.71943714e+04],899,2082.0848639566607
519,519,[-1.73592350e+02  3.94437986e+02 -9.52370278e-05  1.71943714e+04],212,2099.1599553826486
520,520,[-1.64104340e+02  3.90433467e+02 -9.67080114e-05  1.71943714e+04],1539,2095.956511428109
521,521,[-1.68435005e+02  3.91434481e+02 -9.67264360e-05  1.71943714e+04],643,2091.4193842245118
522,522,[-1.69912647e+02  3.92435673e+02 -9.27400985e-05  1.71943714e+04],1816,2085.2436924454055
523,523,[-1.78200936e+02  3.96439943e+02 -8.73948991e-05  1.71943714e+04],842,2094.378236702772
524,524,[-9.28049719e+02  3.95558160e+02 -1.96260413e-04  1.71946380e+04],1197,2088.571738281268
525,525,[-8.23483957e+02  3.91434456e+02 -1.95229649e-04  1.71944170e+04],645,2105.9190162464283
526,526,[-1.47778072e+02  3.80421922e+02 -7.88488302e-05  1.71943716e+04],881,2084.2667691950787
527,527,[-1.74914341e+02  3.89432370e+02 -1.15236556e-04  1.71943716e+04],129,2073.1266327806024
528,528,[-1.61148116e+02  3.83425578e+02 -9.61647640e-05  1.71943716e+04],1222,2085.7061842792637
529,529,[-1.73742289e+02  3.93436359e+02 -1.02220061e-04  1.71943716e+04],986,2088.2165533844422
530,530,[-1.72439103e+02  3.89432426e+02 -8.75635913e-05  1.71943716e+04],611,2103.834639632823
531,531,[-8.80493383e+02  3.86429272e+02 -1.83344300e-04  1.24663481e+04],1117,2085.78268550062
532,532,[-1.96820572e+02  3.95439088e+02 -1.01354095e-04  1.71913980e+04],708,2105.5060937578346
533,533,[-1.72755866e+02  3.91434395e+02 -9.04822263e-05  1.71913980e+04],1425,2085.357157142374
534,534,[-1.83532497e+02  3.92435694e+02 -9.97841507e-05  1.71913980e+04],606,2100.3514734735954
535,535,[-1.68028021e+02  3.90433583e+02 -9.93829514e-05  1.71913980e+04],1105,2100.597685457559
536,536,[-7.99255101e+02  3.95438143e+02 -1.92456637e-04  2.25733541e+04],578,2097.090057781669
537,537,[-2.05437772e+02  3.95438948e+02 -1.12418255e-04  1.71947722e+04],218,2101.8689711440666
538,538,[-8.54871940e+02  3.89475443e+02 -1.71132963e-04  1.71951628e+04],1641,2106.9159285682304
539,539,[-1.70837021e+02  3.86428970e+02 -8.53422330e-05  1.71947725e+04],1681,2078.7044267642746
540,540,[-2.18223976e+02  3.92435659e+02 -1.03658968e-04  1.71947725e+04],1457,2105.1993199226504
541,541,[-1.21985449e+02  3.68408912e+02 -6.28052468e-05  1.71947725e+04],786,2104.463352079356
542,542,[-8.50697908e+02  3.91435665e+02 -1.77396026e-04  2.53654437e+04],116,2084.9481403329705
543,543,[-1.91073363e+02  3.92435717e+02 -9.71903893e-05  1.71998760e+04],755,2092.3308422979853
544,544,[-9.04357137e+02  3.90433785e+02 -1.52317427e-04  1.71910543e+04],662,2090.112881039808
545,545,[-1.90493261e+02  3.89432017e+02 -9.96125731e-05  1.71998704e+04],1367,2105.2298162766424
546,546,[-1.99282665e+02  3.92435708e+02 -9.17069877e-05  1.71998704e+04],1085,2106.718257707771
547,547,[-2.14397261e+02  3.99443248e+02 -9.49636202e-05  1.71998704e+04],582,2095.704720202332
548,548,[-1.94535492e+02  3.91434411e+02 -9.76155899e-05  1.71998704e+04],223,2096.317198004329
549,549,[-2.27356466e+02  4.03448048e+02 -1.05824647e-04  1.71998704e+04],1315,2104.1738999287113
550,550,[-8.70743765e+02  3.93411038e+02 -1.90096396e-04  1.72390505e+04],944,2089.0013890086407
551,551,[-9.06045019e+02  3.67469966e+02 -1.27019283e-04  1.71999130e+04],809,2096.556094384182
552,552,[-1.85486869e+02  3.90433261e+02 -8.72177011e-05  1.71998948e+04],1459,2104.877471559178
553,553,[-1.42449889e+02  3.76417961e+02 -7.59050931e-05  1.71998948e+04],194,2089.236583490842
554,554,[-2.06522401e+02  3.96440041e+02 -9.56845439e-05  1.71998948e+04],659,2089.1548820992007
555,555,[-2.17811176e+02  3.97441321e+02 -1.00239763e-04  1.71998948e+04],838,2093.402792510373
556,556,[-2.14651198e+02  3.95438994e+02 -1.27520682e-04  1.71998948e+04],869,2080.5226387400207
557,557,[-2.03561966e+02  3.95439108e+02 -1.01090576e-04  1.71998948e+04],110,2108.758149282225
558,558,[-2.22090548e+02  4.00444226e+02 -9.84885687e-05  1.71998948e+04],1029,2095.315766598164
559,559,[-1.83563244e+02  3.90433585e+02 -9.18320941e-05  1.71998948e+04],960,2098.6320195843905
560,560,[-1.95909936e+02  3.90433447e+02 -8.81861361e-05  1.71998948e+04],587,2100.0438758640203
561,561,[-1.32805884e+02  3.70410493e+02 -7.98397623e-05  1.71998948e+04],203,2084.1097710112153
562,562,[-1.99961299e+02  3.89432184e+02 -1.09581727e-04  1.71998948e+04],255,2090.4634079564235
563,563,[-1.94805828e+02  3.90433259e+02 -9.53403715e-05  1.71998948e+04],618,2100.7318905084358
564,564,[-1.31598958e+02  3.66406849e+02 -7.72322408e-05  1.71998948e+04],984,2087.3348713243154
565,565,[-2.00323133e+02  3.94437826e+02 -9.57391332e-05  1.71998948e+04],2001,2103.354049648674
566,566,[-1.01980556e+03  4.00444353e+02 -1.74563026e-04  1.71998986e+04],1076,2101.6062998484435
567,567,[-1.42237970e+02  3.73414645e+02 -6.55808948e-05  1.71998948e+04],1450,2100.346828415885
568,568,[-2.26115810e+02  3.97441273e+02 -8.92185913e-05  1.71998948e+04],1582,2091.965222395845
569,569,[-9.01243509e+02  3.91434496e+02 -1.70844038e-04  1.72197051e+04],536,2088.087726330795
570,570,[-2.28888237e+02  3.97441291e+02 -9.92130434e-05  1.71999070e+04],623,2078.288929047664
571,571,[-8.84954704e+02  4.02446094e+02 -1.89251422e-04  1.71999070e+04],1175,2079.7174750573063
572,572,[-2.23584614e+02  3.97441332e+02 -1.10947749e-04  1.71999070e+04],472,2103.0716836311367
573,573,[-2.23124160e+02  3.95439105e+02 -9.42897289e-05  1.71999070e+04],1885,2104.644706317171
574,574,[-2.16289311e+02  3.94437980e+02 -8.79108437e-05  1.71999070e+04],1692,2091.444192190523
575,575,[-2.07530701e+02  3.93436651e+02 -9.60444314e-05  1.71999070e+04],1129,2101.25084664314
576,576,[-9.45842319e+02  3.95438836e+02 -1.55090607e-04  1.71999081e+04],1323,2086.419192436197
577,577,[-1.47375123e+02  3.69410068e+02 -6.94897066e-05  1.71999070e+04],1148,2094.4810489439146
578,578,[-1.60128436e+02  3.75416824e+02 -7.28196793e-05  1.71999070e+04],448,2097.7792352465285
579,579,[-2.30880316e+02  3.96440043e+02 -9.22373132e-05  1.71999070e+04],1679,2101.406558201036
580,580,[-1.48544592e+02  3.69410169e+02 -7.39518832e-05  1.71999070e+04],1391,2069.60024365508
581,581,[-9.00632502e+02  3.88431904e+02 -1.59371850e-04  2.06083692e+04],771,2107.530046149063
582,582,[-9.15111567e+02  3.89432425e+02 -1.67393449e-04  1.72020269e+04],765,2097.6288611119794
583,583,[-2.23225677e+02  3.90433432e+02 -1.00463711e-04  1.72019853e+04],1753,2092.4142864929686
584,584,[-8.97040956e+02  3.90434046e+02 -1.72499103e-04  2.29139515e+04],1242,2098.68266834097
585,585,[-2.65184560e+02  3.86429086e+02 -9.20472482e-05  1.72054619e+04],680,2096.104331910523
586,586,[-2.27835334e+02  3.91434418e+02 -1.04237733e-04  1.72054619e+04],496,2107.739805392529
587,587,[-2.42014952e+02  3.97441181e+02 -9.73673407e-05  1.72054619e+04],1068,2097.335300394692
588,588,[-1.44658422e+02  3.65405691e+02 -8.14057652e-05  1.72054619e+04],514,2102.2013478837566
589,589,[-9.09017223e+02  3.90433369e+02 -1.71381030e-04  2.21852181e+04],1020,2106.548539701994
590,590,[-2.68480790e+02  4.01445668e+02 -1.00867422e-04  1.72084836e+04],1422,2095.540172576547
591,591,[-1.00230896e+03  3.96436400e+02 -1.70993883e-04  1.74359203e+04],1904,2098.662440913121
592,592,[-7.71195279e+02  3.96439345e+02 -1.72641880e-04  1.72088914e+04],736,2108.121446697472
593,593,[-2.42655271e+02  3.90433450e+02 -9.81853608e-05  1.72086216e+04],701,2102.0992467859905
594,594,[-8.91196224e+02  3.92471344e+02 -1.68434662e-04  1.72155055e+04],1655,2090.5588146389637
595,595,[-2.87007760e+02  3.97441239e+02 -9.71658438e-05  1.72086258e+04],1288,2096.67937039051
596,596,[-8.32766749e+02  3.95474492e+02 -1.85899660e-04  1.74361316e+04],1464,2105.995449619797
597,597,[-8.94416588e+02  3.94438014e+02 -1.71502997e-04  1.72087301e+04],855,2089.7309125002485
598,598,[-8.80972209e+02  3.94578685e+02 -1.80330672e-04  1.72075627e+04],718,2104.331865399226
599,599,[-8.91716693e+02  3.89536048e+02 -1.59308329e-04  1.72087986e+04],1514,2108.6814585459056
600,600,[-3.13612028e+02  4.01445490e+02 -1.09883986e-04  1.72087625e+04],177,2101.600876493362
601,601,[-3.04705415e+02  3.89432390e+02 -9.60662236e-05  1.72087625e+04],390,2099.1874856856484
602,602,[-2.57202738e+02  3.86429128e+02 -8.28481067e-05  1.72087625e+04],595,2082.016991624609
603,603,[-2.55487607e+02  3.84426835e+02 -8.85212560e-05  1.72087625e+04],1619,2093.161011478769
604,604,[-2.79174830e+02  3.92435693e+02 -9.83596029e-05  1.72087625e+04],359,2077.79947538099
605,605,[-9.51118309e+02  3.82424691e+02 -1.39746559e-04  1.72222759e+04],1368,2107.178982780886
606,606,[-9.75243441e+02  3.98442586e+02 -2.00833143e-04  1.72186527e+04],1961,2097.8487151431123
607,607,[-3.82281155e+02  4.07452317e+02 -1.22664378e-04  1.72087766e+04],240,2104.22342782421
608,608,[-9.83319911e+02  3.96290937e+02 -1.81539287e-04  1.72088644e+04],2010,2099.362863367182
609,609,[-8.99034202e+02  3.97441386e+02 -1.76295618e-04  1.72089808e+04],1547,2098.1707815195623
610,610,[-2.89512371e+02  3.97441296e+02 -1.01088739e-04  1.72087767e+04],551,2098.5077970859425
611,611,[-2.54689532e+02  3.89432389e+02 -8.74423548e-05  1.72087767e+04],674,2097.8917448112356
612,612,[-9.09976666e+02  3.94436306e+02 -1.67606559e-04  1.72087773e+04],510,2103.92667944717
613,613,[-2.70915562e+02  3.94438006e+02 -8.87859309e-05  1.72087767e+04],681,2084.122593578367
614,614,[-2.58806831e+02  3.84426880e+02 -1.10327068e-04  1.72087767e+04],1872,2073.9239125926188
615,615,[-9.33593503e+02  3.95437768e+02 -1.72590970e-04  1.72087777e+04],1525,2094.0733151274408
616,616,[-1.05694401e+03  3.94433175e+02 -1.71255516e-04  1.72747506e+04],1480,2095.3144343462795
617,617,[-2.83641731e+02  3.89432306e+02 -1.01557903e-04  1.72088161e+04],1989,2104.583662547531
618,618,[-2.81326553e+02  3.90433337e+02 -8.51490262e-05  1.72088161e+04],652,2097.2664416308985
619,619,[-9.64167605e+02  3.90432734e+02 -1.95753289e-04  1.72088178e+04],548,2094.189092590761
620,620,[-4.18207868e+02  3.96440211e+02 -1.11747266e-04  1.72088161e+04],1873,2092.784350035617
621,621,[-2.72189605e+02  3.89432276e+02 -8.79455992e-05  1.72088161e+04],1743,2098.1472360359735
622,622,[-3.08555838e+02  3.93436905e+02 -1.11516795e-04  1.72088161e+04],32,2100.8517283409633
623,623,[-2.55965955e+02  3.75416855e+02 -6.84283128e-05  1.72088161e+04],919,2097.0826243876704
624,624,[-3.03254758e+02  3.94437978e+02 -9.10643743e-05  1.72088161e+04],268,2103.1505619893815
625,625,[-9.15494334e+02  3.89431776e+02 -1.91332972e-04  1.72089326e+04],1372,2064.409673201713
626,626,[-2.42530975e+02  3.82424555e+02 -8.70489795e-05  1.72088162e+04],1712,2083.331120576465
627,627,[-9.60737910e+02  3.78420428e+02 -1.29595793e-04  1.73348042e+04],1037,2105.3803395412556
628,628,[-2.45893715e+02  3.83425655e+02 -8.60701065e-05  1.72088909e+04],449,2101.0135766569533
629,629,[-2.85960855e+02  3.90433315e+02 -9.57887402e-05  1.72088909e+04],585,2106.372801689341
630,630,[-2.72514124e+02  3.88431293e+02 -8.13219215e-05  1.72088909e+04],796,2105.0559232278374
631,631,[-9.16112650e+02  4.00477142e+02 -1.98139507e-04  1.71944964e+04],478,2080.1796499403467
632,632,[-9.27074567e+02  3.89450746e+02 -1.65106821e-04  1.72088842e+04],794,2104.627007968431
633,633,[-2.46311579e+02  3.82424577e+02 -7.58654973e-05  1.72088824e+04],1178,2094.576494253286
634,634,[-9.11401147e+02  3.62457049e+02 -1.14710745e-04  1.72061666e+04],172,2084.697665199336
635,635,[-2.70508635e+02  3.85427902e+02 -8.47169485e-05  1.72088808e+04],1406,2103.354466633497
636,636,[-9.51778160e+02  3.88430464e+02 -1.65412857e-04  1.72088816e+04],882,2104.127743399541
637,637,[-3.52309137e+02  3.96440229e+02 -1.10602179e-04  1.72088808e+04],327,2099.196338606068
638,638,[-1.01619658e+03  3.28417313e+02 -6.18550460e-05  1.72082590e+04],1408,2105.8809638520856
639,639,[-3.23944982e+02  3.91434655e+02 -9.67315581e-05  1.72088804e+04],356,2102.875349574542
640,640,[-8.90539324e+02  3.88431169e+02 -1.59330921e-04  1.72089258e+04],931,2087.5331648963447
641,641,[-3.03091929e+02  3.91434451e+02 -8.15946375e-05  1.72088804e+04],1041,2099.2117544877783
642,642,[-2.79205585e+02  3.84426784e+02 -9.35386265e-05  1.72088804e+04],520,2101.0433257564473
643,643,[-9.17595543e+02  3.94437616e+02 -1.76973332e-04  1.72019204e+04],1140,2098.0538294315124
644,644,[-3.06004238e+02  3.89431971e+02 -9.75638416e-05  1.72088764e+04],1551,2105.1179599008333
645,645,[-2.02743366e+02  3.70411245e+02 -7.66146088e-05  1.72088764e+04],1740,2098.0046076305284
646,646,[-3.18191711e+02  3.90433415e+02 -9.86100281e-05  1.72088764e+04],1663,2084.595899163368
647,647,[-1.90181284e+02  3.64404291e+02 -6.11175853e-05  1.72088764e+04],180,2086.4525299538464
648,648,[-8.73499452e+02  3.88596007e+02 -1.85378901e-04  1.72152800e+04],404,2103.1579236586795
649,649,[-3.04296180e+02  3.91434289e+02 -1.08747507e-04  1.72088801e+04],1103,2086.774476426609
650,650,[-2.93799450e+02  3.88431300e+02 -8.33381979e-05  1.72088801e+04],1491,2090.1411265686666
651,651,[-2.22122491e+02  3.73414575e+02 -7.29641315e-05  1.72088801e+04],1870,2086.795753572656
652,652,[-3.12434934e+02  3.91434607e+02 -1.05061280e-04  1.72088801e+04],778,2096.3187732957076
653,653,[-9.10691662e+02  3.91433740e+02 -1.69860204e-04  1.72088880e+04],1924,2100.826057643396
654,654,[-2.95917012e+02  3.87430029e+02 -9.65983561e-05  1.72088801e+04],1734,2095.035077813321
655,655,[-8.93361114e+02  3.70411086e+02 -1.34066532e-04  1.72088857e+04],1414,2071.2740655266603
656,656,[-9.24393412e+02  3.97440958e+02 -1.58002187e-04  1.72088811e+04],501,2094.9162598638595
657,657,[-3.27688992e+02  3.92435575e+02 -1.04506450e-04  1.72088801e+04],1466,2099.002607940649
658,658,[-3.03853726e+02  3.90433585e+02 -1.02515904e-04  1.72088801e+04],1621,2108.54188520997
659,659,[-3.38361446e+02  3.96440067e+02 -1.03691879e-04  1.72088801e+04],1577,2097.4609251869038
660,660,[-9.21738585e+02  3.92435057e+02 -1.81058272e-04  1.72088348e+04],547,2088.3676750036866
661,661,[-9.44133046e+02  3.89432445e+02 -1.61334155e-04  2.02876445e+04],1446,2107.485967995634
662,662,[-3.09023449e+02  3.88430957e+02 -8.19013545e-05  1.72106701e+04],672,2097.672028533281
663,663,[-1.02183600e+03  3.84497717e+02 -1.57179157e-04  1.72110471e+04],2058,2103.4404750479134
664,664,[-3.17305811e+02  3.91434587e+02 -9.41930291e-05  1.72106703e+04],780,2105.3240806855474
665,665,[-9.52921636e+02  3.91434690e+02 -1.63932798e-04  1.72107497e+04],251,2101.0914898329474
666,666,[-3.09056249e+02  3.86429121e+02 -8.53631770e-05  1.72106703e+04],1651,2104.1480499484637
667,667,[-9.69362316e+02  3.90501872e+02 -1.49016820e-04  1.72107166e+04],2016,2105.5589622722423
668,668,[-3.15314418e+02  3.90433470e+02 -9.79331540e-05  1.72106704e+04],841,2084.6379201337063
669,669,[-3.33427711e+02  3.91434473e+02 -8.17531384e-05  1.72106704e+04],1631,2086.0758630577593
670,670,[-3.06860086e+02  3.89432419e+02 -9.70673167e-05  1.72106704e+04],1823,2088.412504611405
671,671,[-3.14828451e+02  3.90433512e+02 -9.89864726e-05  1.72106704e+04],1203,2091.716785699672
672,672,[-3.20129317e+02  3.88431239e+02 -8.15562782e-05  1.72106704e+04],744,2095.692574673803
673,673,[-9.00711588e+02  3.91434835e+02 -1.74714009e-04  1.72664099e+04],590,2101.1040334520994
674,674,[-9.55031723e+02  3.90430921e+02 -1.64676223e-04  1.72106509e+04],1580,2096.5517928922213
675,675,[-9.40091161e+02  3.91434435e+02 -1.57155429e-04  1.72106701e+04],410,2101.829089283868
676,676,[-3.95343329e+02  3.94437902e+02 -9.25226741e-05  1.72107025e+04],1013,2094.5250302442732
677,677,[-3.38190490e+02  3.91434614e+02 -8.08555373e-05  1.72107025e+04],1086,2083.3212848301478
678,678,[-9.43294170e+02  3.60400260e+02 -1.09213792e-04  1.72208940e+04],1876,2077.6260739033055
679,679,[-3.33561875e+02  3.90433317e+02 -8.87546591e-05  1.72107084e+04],928,2100.7231496720087
680,680,[-8.93521674e+02  3.88431432e+02 -1.69997570e-04  1.72234191e+04],389,2096.8929322680747
681,681,[-8.36428900e+02  3.81554712e+02 -1.49530333e-04  1.72147745e+04],286,2096.5198932451794
682,682,[-8.89760273e+02  3.89432627e+02 -1.60711334e-04  1.72090794e+04],1456,2108.884383906099
683,683,[-3.31687507e+02  3.91434632e+02 -1.15044159e-04  1.72107171e+04],768,2098.9641997510726
684,684,[-2.95226788e+02  3.83425624e+02 -7.96851608e-05  1.72107171e+04],376,2099.6545123854703
685,685,[-8.98442749e+02  3.91430967e+02 -1.79113722e-04  1.72107171e+04],301,2077.9237435920927
686,686,[-2.19331667e+02  3.63403458e+02 -6.28784641e-05  1.72107171e+04],1638,2104.346096853988
687,687,[-1.05655166e+03  3.91432155e+02 -1.51073692e-04  2.47794119e+04],439,2099.7131015105824
688,688,[-8.79215135e+02  3.91448467e+02 -1.77966223e-04  1.72140328e+04],1030,2098.9565195286664
689,689,[-3.44182641e+02  3.90433463e+02 -9.12002047e-05  1.72150514e+04],2002,2108.493882230303
690,690,[-3.36017870e+02  3.90433531e+02 -8.33372026e-05  1.72150514e+04],558,2103.5435521640547
691,691,[-2.15773531e+02  3.58397926e+02 -7.60528679e-05  1.72150514e+04],616,2086.8511403639827
692,692,[-3.57094274e+02  3.91434546e+02 -9.10680014e-05  1.72150514e+04],1191,2094.639887205898
693,693,[-3.35921377e+02  3.89432430e+02 -1.01474159e-04  1.72150514e+04],476,2107.291006187964
694,694,[-2.22400007e+02  3.62402334e+02 -6.87347712e-05  1.72150514e+04],900,2093.132224342949
695,695,[-3.57972770e+02  3.91434470e+02 -9.81969447e-05  1.72150514e+04],924,2089.0410768518273
696,696,[-2.37829345e+02  3.64404546e+02 -7.28735714e-05  1.72150514e+04],419,2083.102606339596
697,697,[-9.98727851e+02  3.95423678e+02 -1.64038024e-04  1.73040783e+04],1785,2087.9930985969618
698,698,[-1.02171521e+03  3.97442312e+02 -1.65654645e-04  1.94704191e+04],1314,2098.2408239864285
699,699,[-2.38841447e+02  3.67408013e+02 -6.57093945e-05  1.72163857e+04],815,2100.77442142597
700,700,[-9.09958421e+02  3.86428679e+02 -1.40473817e-04  1.72163858e+04],886,2099.802713644582
701,701,[-2.49924906e+02  3.67407610e+02 -7.24148065e-05  1.72163857e+04],836,2096.81988010976
702,702,[-2.68250577e+02  3.68408893e+02 -6.93783571e-05  1.72163857e+04],2014,2102.3689151394083
703,703,[-8.17575218e+02  3.89405224e+02 -1.63044496e-04  1.73737028e+04],783,2104.2514311715163
704,704,[-7.78490668e+02  3.84424895e+02 -1.70790131e-04  1.72164751e+04],1051,2101.8083451928383
705,705,[-9.38392790e+02  3.83425928e+02 -1.45652121e-04  1.72164064e+04],1248,2103.677432357389
706,706,[-3.44861082e+02  3.87430192e+02 -8.17266232e-05  1.72164749e+04],901,2070.195624564637
707,707,[-3.43435302e+02  3.88431028e+02 -8.78031725e-05  1.72164749e+04],1442,2099.9605137126855
708,708,[-9.02608396e+02  3.73539791e+02 -1.13208863e-04  1.72169279e+04],1563,2097.867895381324
709,709,[-2.62596677e+02  3.73414622e+02 -7.60306238e-05  1.72164752e+04],10,2088.1281679829663
710,710,[-3.73725215e+02  3.90433534e+02 -9.64819437e-05  1.72164752e+04],273,2103.2702084423736
711,711,[-9.00591495e+02  3.95439095e+02 -1.53548243e-04  1.72201777e+04],1483,2104.0457671711447
712,712,[-9.25276019e+02  3.90430976e+02 -1.78043501e-04  1.74179683e+04],1974,2072.974641854037
713,713,[-2.42188390e+02  3.63403549e+02 -7.54188754e-05  1.72165910e+04],654,2101.730881815963
714,714,[-3.95829071e+02  3.96440272e+02 -1.14116083e-04  1.72165910e+04],1078,2091.277028805586
715,715,[-3.62369123e+02  3.86428972e+02 -1.09523075e-04  1.72165910e+04],2132,2073.6226805798983
716,716,[-4.50588254e+02  3.90433251e+02 -1.06168675e-04  1.72165910e+04],1139,2109.043199934685
717,717,[-9.23959171e+02  3.97416290e+02 -1.76480144e-04  2.34287487e+04],1666,2103.625264999949
718,718,[-4.15073028e+02  3.88431341e+02 -1.09684867e-04  1.72200889e+04],412,2096.742205328626
719,719,[-9.21376400e+02  3.79421516e+02 -1.35161517e-04  1.75659234e+04],72,2091.4243013257665
720,720,[-9.70935624e+02  3.97440665e+02 -1.73520169e-04  1.72913316e+04],1359,2085.7081772439014
721,721,[-8.63981039e+02  3.84441633e+02 -1.65641591e-04  1.72188225e+04],1263,2099.322243557811
722,722,[-2.45646937e+02  3.62402428e+02 -7.42194433e-05  1.72203225e+04],1693,2098.3259019413467
723,723,[-2.60622053e+02  3.64404492e+02 -6.93008171e-05  1.72203225e+04],1534,2093.4851124700062
724,724,[-8.11807931e+02  3.83579418e+02 -1.66293998e-04  1.72129948e+04],656,2100.7025368069812
725,725,[-9.44412697e+02  3.85427812e+02 -1.51981105e-04  1.72203115e+04],1509,2100.719272692626
726,726,[-2.70449657e+02  3.71412273e+02 -8.18981269e-05  1.72203184e+04],458,2089.602364931513
727,727,[-2.47431682e+02  3.65405238e+02 -8.33794620e-05  1.72203184e+04],435,2101.286090968966
728,728,[-8.56504917e+02  3.89432569e+02 -1.59062777e-04  1.72300397e+04],1632,2103.7299054384175
729,729,[-3.37280739e+02  3.85427606e+02 -1.09677556e-04  1.72203238e+04],962,2081.9358542630357
730,730,[-9.05146403e+02  3.83425453e+02 -1.61385453e-04  1.72200699e+04],2117,2101.89415238662
731,731,[-2.60839085e+02  3.63403567e+02 -5.81405329e-05  1.72203237e+04],1502,2102.6537628376195
732,732,[-8.24723830e+02  3.86424601e+02 -1.70089067e-04  1.72203239e+04],1274,2092.567547890074
733,733,[-8.97873145e+02  3.65405821e+02 -1.21062181e-04  1.72279089e+04],1165,2084.0221740501233
734,734,[-2.76132785e+02  3.68409080e+02 -7.43301135e-05  1.72203279e+04],1398,2089.9393257374795
735,735,[-8.65795387e+02  3.66406802e+02 -1.16350591e-04  1.72203336e+04],1410,2100.9236172492024
736,736,[-2.54729726e+02  3.66406726e+02 -8.89116091e-05  1.72203279e+04],839,2096.8269410094767
737,737,[-2.30238259e+02  3.68409069e+02 -9.33555718e-05  1.72203279e+04],95,2080.883113388027
738,738,[-2.47181403e+02  3.62402317e+02 -8.11092538e-05  1.72203279e+04],393,2092.5068944250734
739,739,[-4.75984205e+02  3.93436807e+02 -8.99123950e-05  1.72203279e+04],1654,2088.3651172193613
740,740,[-2.57303268e+02  3.62402253e+02 -8.24698231e-05  1.72203279e+04],1241,2098.2838956411642
741,741,[-2.50962504e+02  3.62401899e+02 -7.41891356e-05  1.72203279e+04],832,2106.769374856328
742,742,[-2.47018571e+02  3.62402291e+02 -6.54070917e-05  1.72203279e+04],692,2092.0278692234515
743,743,[-2.53659165e+02  3.62402384e+02 -8.11991478e-05  1.72203279e+04],1511,2079.1123921858257
744,744,[-8.37607607e+02  3.62574616e+02 -1.21497026e-04  1.72202197e+04],633,2095.5437490913323
745,745,[-4.25436016e+02  3.89432351e+02 -1.16893037e-04  1.72203278e+04],193,2103.002520445702
746,746,[-3.24629755e+02  3.70411130e+02 -7.43960600e-05  1.72203278e+04],1047,2099.7715123980784
747,747,[-4.52932530e+02  3.89432382e+02 -1.03273843e-04  1.72203278e+04],98,2099.785946049154
748,748,[-4.26718495e+02  3.82424638e+02 -8.65866743e-05  1.72203278e+04],676,2108.58490390921
749,749,[-4.43694787e+02  3.88431301e+02 -1.10874093e-04  1.72203278e+04],1420,2102.842015139796
750,750,[-8.82304092e+02  3.81423770e+02 -1.52635199e-04  1.84432345e+04],1424,2106.783435198458
751,751,[-2.65251667e+02  3.63403268e+02 -6.35574948e-05  1.72210039e+04],1049,2099.185606998887
752,752,[-2.65505764e+02  3.63403542e+02 -8.99439425e-05  1.72210039e+04],577,2089.45191886768
753,753,[-2.70065733e+02  3.66406467e+02 -6.60672609e-05  1.72210039e+04],2042,2091.211659002916
754,754,[-2.67020181e+02  3.63403520e+02 -6.46800480e-05  1.72210039e+04],1207,2103.3677533981404
755,755,[-4.87289211e+02  3.91434343e+02 -1.06909945e-04  1.72210039e+04],1478,2097.674551412357
756,756,[-4.59844650e+02  3.93436850e+02 -9.85075603e-05  1.72210039e+04],330,2080.5539236424142
757,757,[-2.68916678e+02  3.64404572e+02 -7.95257158e-05  1.72210039e+04],523,2093.0683611328805
758,758,[-3.91074501e+02  3.85427889e+02 -1.01751144e-04  1.72210039e+04],802,2088.9385400189894
759,759,[-4.80369594e+02  3.94437928e+02 -1.04938666e-04  1.72210039e+04],443,2086.587416076113
760,760,[-2.63467966e+02  3.64404624e+02 -8.12812319e-05  1.72210039e+04],491,2093.4118599142075
761,761,[-4.57014248e+02  3.84426829e+02 -9.42186685e-05  1.72210039e+04],1960,2078.1452973656847
762,762,[-2.63940210e+02  3.60400140e+02 -7.12869187e-05  1.72210039e+04],830,2104.764088790929
763,763,[-4.32056911e+02  3.83425491e+02 -1.02831189e-04  1.72210039e+04],1492,2086.222850992693
764,764,[-3.49103705e+02  3.82424519e+02 -8.21302493e-05  1.72210039e+04],1864,2102.054686473835
765,765,[-2.73417708e+02  3.63403468e+02 -6.76279206e-05  1.72210039e+04],1245,2096.953736233394
766,766,[-2.83068032e+02  3.76417901e+02 -9.01145247e-05  1.72210039e+04],1628,2081.131338816119
767,767,[-9.40453958e+02  3.83425372e+02 -1.36195469e-04  1.72210283e+04],433,2104.435779074156
768,768,[-9.19141087e+02  3.93435817e+02 -1.58512382e-04  1.72210056e+04],1596,2095.425331343181
769,769,[-9.14957979e+02  3.69409890e+02 -1.33055606e-04  1.72210041e+04],2123,2105.4446302227548
770,770,[-4.79681040e+02  3.82424441e+02 -8.94295871e-05  1.72210039e+04],1995,2091.8580506464446
771,771,[-9.23234388e+02  3.88430952e+02 -1.49258314e-04  1.72210276e+04],1763,2096.9577553882004
772,772,[-8.89378930e+02  3.94436598e+02 -2.03009944e-04  1.72210060e+04],325,2074.759492917288
773,773,[-9.80392471e+02  3.71412320e+02 -1.12248736e-04  2.19019189e+04],619,2106.9017849233223
774,774,[-1.08476952e+03  3.69410160e+02 -1.15098918e-04  1.73288244e+04],1189,2088.6336977648766
775,775,[-4.55536986e+02  3.89432091e+02 -1.06920055e-04  1.72236164e+04],1496,2086.354911321256
776,776,[-3.97919520e+02  3.89432266e+02 -9.18430194e-05  1.72236164e+04],1168,2104.5292678519827
777,777,[-2.82862908e+02  3.64404479e+02 -7.29011587e-05  1.72236164e+04],1321,2093.4346921898277
778,778,[-4.65566742e+02  3.91434500e+02 -9.39409561e-05  1.72236164e+04],1482,2095.820105398704
779,779,[-9.43546222e+02  3.92447186e+02 -1.61325611e-04  1.72247770e+04],377,2084.071170383891
780,780,[-9.35341150e+02  3.68409302e+02 -1.19475836e-04  2.22655248e+04],1164,2095.6481411653986
781,781,[-3.10437006e+02  3.69409797e+02 -8.03794713e-05  1.72263587e+04],1458,2105.216909718187
782,782,[-4.67176186e+02  3.91434601e+02 -8.30501492e-05  1.72263587e+04],1276,2082.851883313449
783,783,[-1.01529583e+03  3.61476251e+02 -1.15356880e-04  1.72289331e+04],105,2095.1535764232945
784,784,[-2.76596896e+02  3.63403122e+02 -7.03580015e-05  1.72263601e+04],615,2080.3935723168242
785,785,[-5.38521234e+02  3.95438962e+02 -1.00189510e-04  1.72263601e+04],1660,2101.93171530303
786,786,[-3.23151471e+02  3.76417920e+02 -8.16879253e-05  1.72263601e+04],1900,2097.7019259765807
787,787,[-4.57712384e+02  3.90433410e+02 -9.72457197e-05  1.72263601e+04],1754,2093.4241274465517
788,788,[-3.74177540e+02  3.82424551e+02 -8.76658518e-05  1.72263601e+04],1115,2106.4719869590986
789,789,[-9.19837400e+02  3.61509865e+02 -1.14145050e-04  1.92379283e+04],1962,2092.682350822911
790,790,[-3.01359509e+02  3.70411045e+02 -7.48422455e-05  1.72274486e+04],367,2102.665337543539
791,791,[-9.06926429e+02  3.83425104e+02 -1.42738538e-04  1.72274415e+04],146,2107.4647601117813
792,792,[-4.49311983e+02  3.88431290e+02 -1.20059780e-04  1.72274486e+04],1150,2082.4816958420993
793,793,[-4.28390663e+02  3.91434645e+02 -1.00889182e-04  1.72274486e+04],1616,2100.3255412457393
794,794,[-9.53947910e+02  3.85428099e+02 -1.48776924e-04  2.25786457e+04],3,2096.0725734753696
795,795,[-7.92738707e+02  3.90432985e+02 -1.74389678e-04  1.72303265e+04],1882,2099.493881512131
796,796,[-5.40227751e+02  3.92435672e+02 -1.02502713e-04  1.72303364e+04],2065,2096.0992326454243
797,797,[-8.42378706e+02  3.89432640e+02 -1.55083406e-04  2.10507313e+04],1112,2106.6014846868165
798,798,[-3.38544150e+02  3.81423476e+02 -1.03434199e-04  1.72323948e+04],1335,2092.931630738841
799,799,[-8.89993547e+02  3.94586584e+02 -1.61372250e-04  2.34669632e+04],426,2108.3176989122157
800,800,[-1.01748130e+03  3.75416867e+02 -1.19639360e-04  1.72358387e+04],936,2089.3828778945126
801,801,[-5.28075209e+02  3.91434469e+02 -1.12346226e-04  1.72357504e+04],227,2090.5244285144713
802,802,[-5.77188287e+02  3.93436874e+02 -1.08992289e-04  1.72357504e+04],1559,2094.3758465585934
803,803,[-3.01137151e+02  3.77419029e+02 -8.85746481e-05  1.72357504e+04],1922,2101.920007914073
804,804,[-8.87627188e+02  3.83425918e+02 -1.34180471e-04  1.72600783e+04],1074,2090.236737565306
805,805,[-4.47138700e+02  3.88431211e+02 -9.04497338e-05  1.72357635e+04],374,2090.2799924020387
806,806,[-3.40703088e+02  3.82424474e+02 -9.12987851e-05  1.72357635e+04],925,2100.4188558182304
807,807,[-5.34298838e+02  3.83425640e+02 -1.02399823e-04  1.72357635e+04],1723,2100.2938998474237
808,808,[-9.16226337e+02  3.86494262e+02 -1.65363315e-04  1.72355221e+04],922,2100.6857463155884
809,809,[-5.04952319e+02  3.92435764e+02 -1.25300052e-04  1.72357633e+04],1452,2097.5173847542333
810,810,[-4.32688330e+02  3.89432405e+02 -1.04836897e-04  1.72357633e+04],490,2090.507466673807
811,811,[-4.02623589e+02  3.82424583e+02 -1.03232219e-04  1.72357633e+04],1286,2089.1512989585895
812,812,[-4.84524863e+02  3.90433537e+02 -1.15249803e-04  1.72357633e+04],1942,2098.5362463759766
813,813,[-9.36560374e+02  3.87430168e+02 -1.35702229e-04  2.20695847e+04],497,2085.345822131964
814,814,[-4.36999434e+02  3.89432351e+02 -1.22235662e-04  1.72383455e+04],1771,2068.4159093520975
815,815,[-4.11511950e+02  3.93436864e+02 -1.05035119e-04  1.72383455e+04],835,2095.2029233357425
816,816,[-3.96002095e+02  3.82424541e+02 -8.02001532e-05  1.72383455e+04],1578,2103.997897533034
817,817,[-3.18732140e+02  3.76417827e+02 -8.71842639e-05  1.72383455e+04],2037,2106.326149120726
818,818,[-5.04724612e+02  3.88431217e+02 -9.91725804e-05  1.72383455e+04],371,2102.1615780291727
819,819,[-9.12485162e+02  3.70411157e+02 -1.25213009e-04  1.72328267e+04],1689,2083.9475069028067
820,820,[-4.32062988e+02  3.83425739e+02 -1.02829215e-04  1.72383426e+04],1118,2098.378311220197
821,821,[-5.42059266e+02  3.88431381e+02 -9.77143183e-05  1.72383426e+04],147,2104.5386222558004
822,822,[-3.84877117e+02  3.88431239e+02 -1.01313890e-04  1.72383426e+04],723,2087.791839210032
823,823,[-5.96984842e+02  3.84426684e+02 -9.74965111e-05  1.72383426e+04],1057,2101.8465079063535
824,824,[-4.85169917e+02  3.88431377e+02 -1.06432942e-04  1.72383426e+04],1262,2105.6594168538586
825,825,[-7.93533558e+02  3.77418296e+02 -1.62891039e-04  1.72383467e+04],323,2086.9545993524457
826,826,[-3.17706318e+02  3.77418891e+02 -8.10492610e-05  1.72383426e+04],777,2085.7196234256703
827,827,[-2.72712115e+02  3.71412400e+02 -8.97494249e-05  1.72383426e+04],920,2088.4204508324474
828,828,[-9.17770408e+02  3.78418416e+02 -1.48457455e-04  1.72538503e+04],787,2086.4949930545577
829,829,[-5.59464358e+02  3.93436868e+02 -1.03509387e-04  1.72383508e+04],134,2102.4456883767584
830,830,[-9.37533906e+02  3.88431166e+02 -1.64563355e-04  1.72383509e+04],1186,2094.332309389748
831,831,[-4.88965832e+02  3.89432416e+02 -1.05859481e-04  1.72383508e+04],760,2092.702308158944
832,832,[-5.10073038e+02  3.90433500e+02 -1.10420409e-04  1.72383508e+04],555,2094.6485905962018
833,833,[-8.47556938e+02  3.79421526e+02 -1.60346604e-04  2.25059645e+04],971,2103.908624432546
834,834,[-8.21861284e+02  3.87430413e+02 -1.67528810e-04  1.98899252e+04],937,2092.5145411939643
835,835,[-3.66506224e+02  3.60400184e+02 -6.87804831e-05  1.72425342e+04],1106,2093.5770255468606
836,836,[-3.44386578e+02  3.75416903e+02 -9.75625100e-05  1.72425342e+04],1487,2095.191008384792
837,837,[-5.79851646e+02  3.85427815e+02 -1.22702035e-04  1.72425342e+04],1390,2087.386934430626
838,838,[-5.53557787e+02  3.88431219e+02 -1.12761483e-04  1.72425342e+04],2074,2097.4545981689866
839,839,[-3.80603468e+02  3.67408023e+02 -9.50466565e-05  1.72425342e+04],1665,2094.688695523444
840,840,[-4.91794191e+02  3.81423611e+02 -9.52063771e-05  1.72425342e+04],343,2088.20611084983
841,841,[-6.35907118e+02  3.90433494e+02 -1.03316537e-04  1.72425342e+04],36,2095.571078010446
842,842,[-8.80102059e+02  3.83429492e+02 -1.67123924e-04  1.72157728e+04],2018,2098.0144657963046
843,843,[-8.54788415e+02  3.92435557e+02 -1.70082077e-04  1.72425205e+04],1444,2090.4439661775928
844,844,[-8.58426949e+02  3.90433700e+02 -1.64782671e-04  1.73364280e+04],471,2106.8024764729007
845,845,[-5.07095837e+02  3.82424571e+02 -1.10269073e-04  1.72425695e+04],1305,2100.252482605756
846,846,[-4.32614176e+02  3.80422109e+02 -9.78521531e-05  1.72425695e+04],1589,2105.706072835265
847,847,[-3.52065575e+02  3.69410124e+02 -8.04484037e-05  1.72425695e+04],334,2100.072251233455
848,848,[-4.40612507e+02  3.83425684e+02 -1.09483396e-04  1.72425695e+04],482,2082.3964796106434
849,849,[-4.63784097e+02  3.88431189e+02 -1.00802990e-04  1.72425695e+04],1716,2082.4451384521076
850,850,[-5.38145018e+02  3.88431282e+02 -9.54437494e-05  1.72425695e+04],603,2108.1577179568926
851,851,[-8.48111867e+02  3.78420343e+02 -1.53910327e-04  1.72509554e+04],1921,2089.599206751544
852,852,[-5.26054584e+02  3.93436685e+02 -1.13316486e-04  1.72425739e+04],1857,2087.101505238274
853,853,[-3.99677943e+02  3.70411010e+02 -8.41763567e-05  1.72425739e+04],694,2104.261557317599
854,854,[-4.26004888e+02  3.90433276e+02 -1.12296437e-04  1.72425739e+04],111,2092.213455002612
855,855,[-3.28543228e+02  3.67407948e+02 -8.36582345e-05  1.72425739e+04],468,2096.7570497065385
856,856,[-5.61193248e+02  3.79421095e+02 -9.79220675e-05  1.72425739e+04],757,2108.161443213496
857,857,[-9.87681654e+02  3.89432416e+02 -1.51689874e-04  1.72391877e+04],485,2090.561896476408
858,858,[-3.21490902e+02  3.77419081e+02 -8.20639657e-05  1.72425721e+04],974,2089.28786551898
859,859,[-3.69837742e+02  3.83425655e+02 -8.21155511e-05  1.72425721e+04],877,2099.8419744786283
860,860,[-9.64564812e+02  3.87430453e+02 -1.39703632e-04  3.98399901e+04],1625,2105.231202650305
861,861,[-8.89746970e+02  3.83422856e+02 -1.57109229e-04  1.72543482e+04],338,2106.06751470094
862,862,[-4.21586707e+02  3.90433404e+02 -1.06172865e-04  1.72543477e+04],949,2106.2394603249368
863,863,[-9.88376907e+02  3.88429119e+02 -1.45508045e-04  1.72066951e+04],1320,2100.9107101888103
864,864,[-9.14841824e+02  3.89432653e+02 -1.63638044e-04  1.75170402e+04],798,2075.3626423444316
865,865,[-5.21958784e+02  3.89432455e+02 -1.06597693e-04  1.72544595e+04],2139,2108.2818957165337
866,866,[-5.34865208e+02  3.90433551e+02 -1.04557250e-04  1.72544595e+04],1544,2109.640882540198
867,867,[-9.09021111e+02  3.86424739e+02 -1.66703427e-04  1.72544597e+04],19,2068.0958149091753
868,868,[-5.05695405e+02  3.90433433e+02 -9.99718987e-05  1.72544595e+04],1519,2091.679994594778
869,869,[-9.42944558e+02  3.84427076e+02 -1.32053907e-04  1.74266587e+04],2136,2097.4341650030274
870,870,[-4.68159354e+02  3.83425756e+02 -9.31067961e-05  1.72545489e+04],1997,2103.8885461984733
871,871,[-5.48840073e+02  3.87429987e+02 -9.71897141e-05  1.72545489e+04],945,2101.554870204771
872,872,[-9.70378640e+02  3.91429837e+02 -1.81096845e-04  1.72545500e+04],1682,2107.4049220142006
873,873,[-5.08085032e+02  3.82424598e+02 -1.08517602e-04  1.72545489e+04],620,2104.59645874596
874,874,[-9.62705453e+02  3.81422443e+02 -1.44374341e-04  1.72545490e+04],1169,2108.5310747305875
875,875,[-3.74424260e+02  3.69410087e+02 -7.33260494e-05  1.72545489e+04],49,2091.1752880917306
876,876,[-3.16774028e+02  3.75416808e+02 -8.27926999e-05  1.72545489e+04],998,2099.8776867730685
877,877,[-4.20014994e+02  3.88431242e+02 -8.95036742e-05  1.72545489e+04],1645,2093.0313950290847
878,878,[-3.63888779e+02  3.83425719e+02 -9.83307362e-05  1.72545489e+04],1946,2084.000097407054
879,879,[-8.08455241e+02  3.88431313e+02 -1.59589852e-04  1.72545517e+04],1463,2108.128241494284
880,880,[-4.00192882e+02  3.85427990e+02 -9.06769804e-05  1.72545489e+04],831,2105.7104958522305
881,881,[-3.36017778e+02  3.76417937e+02 -9.47477807e-05  1.72545489e+04],789,2097.98836006467
882,882,[-4.22366884e+02  3.75416807e+02 -8.69035882e-05  1.72545489e+04],2068,2096.015209255746
883,883,[-5.69883402e+02  3.94437666e+02 -1.10084713e-04  1.72545489e+04],155,2089.3594487505693
884,884,[-3.74607078e+02  3.67407919e+02 -9.58446397e-05  1.72545489e+04],2025,2102.9243115251693
885,885,[-4.74087389e+02  3.89432399e+02 -9.75603874e-05  1.72545489e+04],1928,2106.121123989733
886,886,[-4.67999350e+02  3.85427959e+02 -1.01685411e-04  1.72545489e+04],1766,2095.193055190028
887,887,[-4.77678307e+02  3.87430201e+02 -1.23298850e-04  1.72545489e+04],732,2103.4851251944697
888,888,[-9.71029478e+02  3.87425329e+02 -1.50194511e-04  1.73981072e+04],982,2081.2721611848415
889,889,[-9.63243800e+02  3.85428209e+02 -1.50128445e-04  3.03733518e+04],1347,2104.0285666900413
890,890,[-4.78273715e+02  3.88431204e+02 -1.06382305e-04  1.72613571e+04],1774,2103.5217362866574
891,891,[-9.00524476e+02  3.79421193e+02 -1.36625483e-04  1.92430609e+04],237,2090.8801157458515
892,892,[-9.29126135e+02  3.84425615e+02 -1.66127950e-04  1.72623765e+04],834,2090.513000406002
893,893,[-8.72211571e+02  3.88431489e+02 -1.65135198e-04  2.26032782e+04],738,2100.5925142382785
894,894,[-8.89155301e+02  3.77427054e+02 -1.30636833e-04  1.72493318e+04],894,2092.4653032573688
895,895,[-4.48880659e+02  3.88431236e+02 -1.06627183e-04  1.72651014e+04],997,2101.929522479733
896,896,[-8.96160344e+02  3.85421877e+02 -1.53602429e-04  2.27157540e+04],1360,2098.9717658741233
897,897,[-6.10866250e+02  3.90433516e+02 -1.13502488e-04  1.72678894e+04],926,2103.070320092496
898,898,[-9.08556667e+02  3.78420400e+02 -1.53738925e-04  2.09709687e+04],583,2090.587303290642
899,899,[-9.00092785e+02  3.88429531e+02 -1.54982100e-04  1.72697824e+04],1097,2098.1120907492486
900,900,[-8.97098849e+02  3.90433749e+02 -1.53291598e-04  2.29319322e+04],475,2095.2664067194823
901,901,[-9.02348319e+02  3.89422245e+02 -1.67119473e-04  1.72715787e+04],1727,2095.122886113946
902,902,[-8.54982069e+02  3.76485333e+02 -1.35971063e-04  1.72726889e+04],1025,2102.132191743205
903,903,[-4.00759131e+02  3.83425725e+02 -8.84396700e-05  1.72726714e+04],2039,2104.6747916737486
904,904,[-5.17539801e+02  3.85427932e+02 -9.75720099e-05  1.72726714e+04],1668,2087.0773677698508
905,905,[-8.94652387e+02  3.90433727e+02 -1.73123771e-04  1.75008056e+04],543,2101.0720912402153
906,906,[-8.98317342e+02  3.86429296e+02 -1.59309031e-04  1.72711862e+04],1469,2105.6439398558896
907,907,[-5.96743961e+02  3.84426834e+02 -8.62750344e-05  1.72727868e+04],1077,2099.7164776847776
908,908,[-4.56490839e+02  3.88431276e+02 -9.84126810e-05  1.72727868e+04],175,2088.912195017178
909,909,[-4.17246696e+02  3.76417817e+02 -8.86882816e-05  1.72727868e+04],206,2089.8960237771803
910,910,[-1.02129476e+03  3.80422609e+02 -1.36691902e-04  2.06349457e+04],854,2088.2290443276383
911,911,[-4.59829145e+02  3.63403596e+02 -7.36710607e-05  1.72744943e+04],1929,2088.990231140609
912,912,[-4.01126847e+02  3.82424510e+02 -9.06033752e-05  1.72744943e+04],1714,2100.0068578138566
913,913,[-9.54232642e+02  3.82429433e+02 -1.43979362e-04  1.72744888e+04],1473,2102.060754617118
914,914,[-9.28391536e+02  3.82565564e+02 -1.35752106e-04  1.72742316e+04],1120,2108.665286640625
915,915,[-4.75890123e+02  3.87430183e+02 -1.19373486e-04  1.72744942e+04],65,2106.0078801547547
916,916,[-5.41199513e+02  3.95438785e+02 -1.13930396e-04  1.72744942e+04],1786,2108.510675967748
917,917,[-9.60624799e+02  3.81423761e+02 -1.26741185e-04  1.74290207e+04],1605,2107.6731412614085
918,918,[-5.61905500e+02  3.89432366e+02 -1.22743164e-04  1.72745724e+04],2138,2099.48300814882
919,919,[-5.85966533e+02  3.85427792e+02 -1.04870744e-04  1.72745724e+04],421,2096.2162971684993
920,920,[-5.33100825e+02  3.90433377e+02 -9.79015549e-05  1.72745724e+04],946,2093.426502925129
921,921,[-9.17368180e+02  3.84426809e+02 -1.42405771e-04  1.72745736e+04],742,2087.423186973263
922,922,[-9.38671971e+02  3.66405769e+02 -1.20503497e-04  1.73179313e+04],1653,2093.6526564360047
923,923,[-4.41423902e+02  3.81423524e+02 -8.78639940e-05  1.72745943e+04],353,2103.390450958522
924,924,[-8.79044682e+02  3.88431286e+02 -1.62721997e-04  1.96668087e+04],1413,2095.258569118481
925,925,[-4.31328977e+02  3.87430111e+02 -1.06281815e-04  1.72758006e+04],568,2093.666486263534
926,926,[-6.01751046e+02  3.66406797e+02 -7.56307022e-05  1.72758006e+04],1479,2092.4182124899694
927,927,[-8.93162893e+02  3.81422093e+02 -1.81704852e-04  1.72757737e+04],380,2082.35940043989
928,928,[-1.00267871e+03  3.71403160e+02 -1.11456246e-04  1.73136098e+04],2091,2095.4612275100467
929,929,[-9.78322424e+02  3.81428927e+02 -1.32590419e-04  1.92195698e+04],770,2087.28082989803
930,930,[-3.83586867e+02  3.77419067e+02 -8.83239215e-05  1.72767974e+04],1623,2108.5821932922163
931,931,[-8.72461772e+02  3.77422940e+02 -1.48478552e-04  1.72598526e+04],505,2095.9741837103347
932,932,[-1.00543059e+03  3.70410379e+02 -1.26901679e-04  1.72767890e+04],1023,2104.3694623243746
933,933,[-3.54162949e+02  3.76417810e+02 -9.83653388e-05  1.72767889e+04],1699,2062.0693574863385
934,934,[-5.39203200e+02  3.87430282e+02 -1.03858688e-04  1.72767889e+04],430,2098.316973705593
935,935,[-4.07133781e+02  3.70411068e+02 -9.85247056e-05  1.72767889e+04],1622,2088.949702494074
936,936,[-9.14966713e+02  3.75415050e+02 -1.41500341e-04  1.72767890e+04],202,2093.779109206166
937,937,[-4.23269770e+02  3.70411300e+02 -9.07229063e-05  1.72767889e+04],2080,2093.3779635961487
938,938,[-3.68835558e+02  3.75416806e+02 -8.80188988e-05  1.72767889e+04],671,2099.6855072860526
939,939,[-5.30382143e+02  3.89432371e+02 -1.32268732e-04  1.72767889e+04],1597,2103.86675047961
940,940,[-9.68326511e+02  3.92435713e+02 -1.60789833e-04  1.72767891e+04],1938,2099.959979288363
941,941,[-3.69776941e+02  3.57396826e+02 -7.94449535e-05  1.72767889e+04],2052,2086.414119155864
942,942,[-3.85309701e+02  3.75416925e+02 -8.33959290e-05  1.72767889e+04],1508,2108.6535298214617
943,943,[-9.77020839e+02  3.66406891e+02 -1.13577715e-04  1.73372587e+04],1708,2099.9452695370037
944,944,[-8.91739572e+02  3.89432651e+02 -1.63875817e-04  1.73679098e+04],868,2097.5798040309205
945,945,[-5.35797739e+02  3.74415647e+02 -9.39047736e-05  1.72768645e+04],1052,2092.8583804052137
946,946,[-6.68375094e+02  3.70411236e+02 -8.37614044e-05  1.72768645e+04],1744,2092.045386867016
947,947,[-4.86542556e+02  3.83425585e+02 -1.12928291e-04  1.72768645e+04],168,2102.1357813307827
948,948,[-4.30077477e+02  3.74415526e+02 -9.23296538e-05  1.72768645e+04],1412,2102.267197624557
949,949,[-9.54856598e+02  3.70411501e+02 -1.21527425e-04  1.79617550e+04],1731,2092.947746673357
950,950,[-8.74219648e+02  3.83425974e+02 -1.59388844e-04  1.73247584e+04],1399,2085.5838960947285
951,951,[-9.17328208e+02  3.73414849e+02 -1.23389652e-04  1.72799764e+04],1633,2103.3134927711226
952,952,[-4.79719295e+02  3.82424580e+02 -1.10551953e-04  1.72772307e+04],149,2106.448352043552
953,953,[-8.85915669e+02  3.69410882e+02 -1.38223410e-04  1.93194212e+04],461,2079.6401791530243
954,954,[-4.08715227e+02  3.67407623e+02 -9.25351208e-05  1.72782457e+04],394,2104.4974255324187
955,955,[-9.25645275e+02  3.70411494e+02 -1.37023338e-04  1.76135160e+04],1661,2077.2442141253305
956,956,[-9.00845344e+02  3.61433608e+02 -1.27576017e-04  1.72787654e+04],1749,2087.5642876294314
957,957,[-4.41217876e+02  3.76417988e+02 -9.67175645e-05  1.72784123e+04],1130,2107.498512695065
958,958,[-3.85472815e+02  3.75416840e+02 -9.46413476e-05  1.72784123e+04],1604,2098.388632887811
959,959,[-3.75396876e+02  3.57396830e+02 -9.02364296e-05  1.72784123e+04],1617,2090.482721692972
960,960,[-9.71829293e+02  3.84426902e+02 -1.39005753e-04  1.72780183e+04],574,2097.3403401201576
961,961,[-8.80050760e+02  3.76417750e+02 -1.44685712e-04  1.72783091e+04],1506,2100.7980156271847
962,962,[-3.58498162e+02  3.74415688e+02 -8.80311311e-05  1.72784121e+04],1156,2094.8701937636024
963,963,[-7.10055953e+02  3.86428872e+02 -1.09690917e-04  1.72784121e+04],719,2107.501587946444
964,964,[-8.96258705e+02  3.65405439e+02 -1.28625827e-04  1.72784153e+04],521,2081.9112437831727
965,965,[-9.16573207e+02  3.75415348e+02 -1.24489465e-04  1.72784154e+04],470,2084.591289689928
966,966,[-5.14082109e+02  3.74415687e+02 -9.57009807e-05  1.72784121e+04],1428,2098.433808001605
967,967,[-9.04787921e+02  3.66406782e+02 -1.25111071e-04  1.72787386e+04],1465,2106.295114758321
968,968,[-4.68921565e+02  3.86429106e+02 -1.00913949e-04  1.72784122e+04],990,2091.0639808846286
969,969,[-3.56957193e+02  3.72413525e+02 -8.96682432e-05  1.72784122e+04],1354,2089.617863948076
970,970,[-4.02440980e+02  3.65405529e+02 -8.84454297e-05  1.72784122e+04],1703,2101.2269032636614
971,971,[-4.47004809e+02  3.81423271e+02 -9.65559045e-05  1.72784122e+04],714,2093.384036803121
972,972,[-4.27293996e+02  3.67407905e+02 -1.07275331e-04  1.72784122e+04],1905,2104.272612637561
973,973,[-8.64793505e+02  3.88431350e+02 -1.74835157e-04  1.97616182e+04],148,2087.0222809529782
974,974,[-3.80729467e+02  3.57396746e+02 -7.34601948e-05  1.72796343e+04],2085,2093.050438323935
975,975,[-4.17879970e+02  3.61401251e+02 -8.77642232e-05  1.72796343e+04],753,2100.6868706384157
976,976,[-8.49537345e+02  3.77418670e+02 -1.28812170e-04  2.15791971e+04],875,2105.1754439501838
977,977,[-6.14337614e+02  3.54393566e+02 -5.98890852e-05  1.72817471e+04],329,2087.876804083523
978,978,[-8.55943719e+02  3.75417089e+02 -1.59619613e-04  1.78733055e+04],1583,2063.4528885806462
979,979,[-7.92643861e+02  3.83424610e+02 -1.55746236e-04  1.72820379e+04],1957,2104.133274918986
980,980,[-4.86013127e+02  3.68408965e+02 -8.69359807e-05  1.72820375e+04],2082,2108.5478539593973
981,981,[-3.52632875e+02  3.70411184e+02 -1.04846927e-04  1.72820375e+04],1060,2103.194333033567
982,982,[-8.57180314e+02  3.72411371e+02 -1.29719420e-04  1.72820339e+04],499,2092.5625380664587
983,983,[-4.62219615e+02  3.64404630e+02 -7.83621312e-05  1.72820375e+04],1813,2103.5668051819866
984,984,[-9.67587307e+02  3.58397641e+02 -1.15973930e-04  1.72820394e+04],225,2097.251515515482
985,985,[-4.90672466e+02  3.68409052e+02 -9.04443301e-05  1.72820375e+04],968,2101.5112747094877
986,986,[-8.97467143e+02  3.77416808e+02 -1.36617151e-04  1.72820487e+04],29,2097.8946469243947
987,987,[-4.10799537e+02  3.63403340e+02 -9.96832269e-05  1.72820375e+04],197,2102.2492895000446
988,988,[-9.21991526e+02  3.68409271e+02 -1.24815367e-04  1.74536471e+04],1069,2103.0467781625402
989,989,[-9.89506270e+02  3.61401250e+02 -1.06811824e-04  1.72821245e+04],401,2105.7350695630284
990,990,[-4.60975613e+02  3.66406800e+02 -9.36933126e-05  1.72821213e+04],118,2091.3362568872444
991,991,[-4.80830767e+02  3.56395559e+02 -7.08104433e-05  1.72821213e+04],1135,2101.7395480063515
992,992,[-3.71928032e+02  3.56395630e+02 -9.32173993e-05  1.72821213e+04],1704,2106.371110940082
993,993,[-8.44871201e+02  3.85427652e+02 -1.71872799e-04  1.72821224e+04],1991,2089.1218975258157
994,994,[-9.41794986e+02  3.82437287e+02 -1.37941662e-04  1.97271835e+04],287,2105.9045689458335
995,995,[-5.51834782e+02  3.70411264e+02 -9.08435791e-05  1.72833123e+04],1656,2081.8976097829623
996,996,[-8.84689355e+02  3.78420216e+02 -1.43411152e-04  1.72833141e+04],891,2103.615622390239
997,997,[-4.43381434e+02  3.66406838e+02 -9.23031236e-05  1.72833123e+04],1142,2092.4475860875073
998,998,[-5.23298848e+02  3.83425856e+02 -1.12188856e-04  1.72833123e+04],1571,2092.7502873973963
999,999,[-4.88539647e+02  3.57396676e+02 -7.26770119e-05  1.72833123e+04],1822,2089.1499944454577
1000,1000,[-9.37197322e+02  3.82424675e+02 -1.46335814e-04  1.72833125e+04],432,2088.443963774383
1001,1001,[-4.84673788e+02  3.62402333e+02 -9.28460784e-05  1.72833123e+04],1669,2087.897657273688
1002,1002,[-4.94189828e+02  3.80422439e+02 -9.64678701e-05  1.72833123e+04],1114,2105.384273234634
1003,1003,[-6.25530025e+02  3.66406817e+02 -7.99820050e-05  1.72833123e+04],1229,2105.840615011383
1004,1004,[-5.41351654e+02  3.82424473e+02 -1.35050130e-04  1.72833123e+04],1227,2099.1959746249613
1005,1005,[-4.36245765e+02  3.65405636e+02 -9.07900441e-05  1.72833123e+04],1748,2103.1080867501114
1006,1006,[-9.54995390e+02  3.77419315e+02 -1.14991589e-04  1.75193835e+04],498,2084.2997932643557
1007,1007,[-9.73860129e+02  3.62402417e+02 -1.18442333e-04  1.72835367e+04],244,2106.1597796723104
1008,1008,[-9.80222901e+02  3.81442530e+02 -1.41186023e-04  1.72687521e+04],1598,2099.2307173123027
1009,1009,[-1.07938014e+03  3.71412468e+02 -1.22117390e-04  1.72982465e+04],222,2107.0592325182515
1010,1010,[-4.94260212e+02  3.71412415e+02 -9.89193215e-05  1.72834267e+04],357,2098.5178968958767
1011,1011,[-9.78031983e+02  3.64404612e+02 -1.11823624e-04  1.72840072e+04],2064,2106.998266467509
1012,1012,[-4.46445533e+02  3.66406839e+02 -9.50058539e-05  1.72834270e+04],1992,2102.0735408417318
1013,1013,[-4.47258526e+02  3.71412117e+02 -1.04830802e-04  1.72834270e+04],1395,2095.515055451413
1014,1014,[-3.96210487e+02  3.77418854e+02 -8.94266035e-05  1.72834270e+04],101,2100.402812219516
1015,1015,[-4.12498013e+02  3.64404468e+02 -9.01386106e-05  1.72834270e+04],898,2099.4479064323887
1016,1016,[-4.20564482e+02  3.75416837e+02 -9.32727921e-05  1.72834270e+04],1447,2087.42583842874
1017,1017,[-5.70869059e+02  3.84426815e+02 -1.07564617e-04  1.72834270e+04],228,2104.977703056823
1018,1018,[-3.41085895e+02  3.67407960e+02 -1.02143250e-04  1.72834270e+04],857,2099.779774136449
1019,1019,[-5.11075566e+02  3.81423539e+02 -1.26669555e-04  1.72834270e+04],1719,2103.302785897916
1020,1020,[-4.60652623e+02  3.73414508e+02 -1.00057016e-04  1.72834270e+04],21,2096.845370667253
1021,1021,[-6.38417084e+02  3.57396751e+02 -7.16575918e-05  1.72834270e+04],1342,2103.3012870097878
1022,1022,[-8.16048547e+02  3.83425926e+02 -1.72145969e-04  2.02446161e+04],594,2108.051769744778
1023,1023,[-4.61086773e+02  3.75416927e+02 -9.05369524e-05  1.72848500e+04],1258,2091.808603223023
1024,1024,[-6.01135836e+02  3.88431305e+02 -1.06717923e-04  1.72848500e+04],1963,2083.109417429408
1025,1025,[-8.51839113e+02  3.70411286e+02 -1.45824853e-04  1.72985584e+04],801,2092.383000052284
1026,1026,[-9.50125800e+02  3.84426352e+02 -1.45622265e-04  1.72848629e+04],1943,2103.3933773388876
1027,1027,[-5.82125422e+02  3.69410022e+02 -7.81820432e-05  1.72848566e+04],892,2099.773972677438
1028,1028,[-9.36474369e+02  3.58397185e+02 -1.12371129e-04  1.72848591e+04],810,2110.3221483573548
1029,1029,[-9.56843682e+02  3.67408195e+02 -1.12984608e-04  1.90130728e+04],2129,2097.409859350491
1030,1030,[-4.54289307e+02  3.72413538e+02 -9.39333908e-05  1.72856843e+04],170,2095.3394810952
1031,1031,[-8.87361719e+02  3.63474504e+02 -1.17463388e-04  1.72868554e+04],1247,2108.353966516491
1032,1032,[-9.41369475e+02  3.69410222e+02 -1.20138929e-04  1.72862470e+04],959,2103.8969951300355
1033,1033,[-8.93852227e+02  3.68406951e+02 -1.28163205e-04  1.72856878e+04],1182,2107.504534862265
1034,1034,[-9.19665286e+02  3.63402418e+02 -1.19606594e-04  1.72856860e+04],562,2099.50242391164
1035,1035,[-5.28278360e+02  3.68408872e+02 -7.41291316e-05  1.72856851e+04],152,2106.5304886709782
1036,1036,[-5.33117618e+02  3.84426793e+02 -9.78219876e-05  1.72856851e+04],1913,2100.6105187748235
1037,1037,[-6.44167412e+02  3.80422275e+02 -9.72185024e-05  1.72856851e+04],843,2096.1266803540257
1038,1038,[-5.21595149e+02  3.65405503e+02 -7.17618699e-05  1.72856851e+04],1293,2099.4408211805962
1039,1039,[-9.31612825e+02  3.70410809e+02 -1.26343187e-04  1.72856856e+04],1298,2107.773677165406
1040,1040,[-4.85216041e+02  3.55394622e+02 -6.76514619e-05  1.72856851e+04],508,2107.6537845221897
1041,1041,[-5.92844839e+02  3.89432504e+02 -1.09472678e-04  1.72856851e+04],234,2095.9677566874548
1042,1042,[-6.13622600e+02  3.88431181e+02 -1.21251248e-04  1.72856851e+04],1253,2086.4761754547794
1043,1043,[-4.50520646e+02  3.68408958e+02 -9.34508931e-05  1.72856851e+04],1220,2082.8821579336754
1044,1044,[-6.40165369e+02  3.58397727e+02 -7.37503578e-05  1.72856851e+04],48,2110.2107439321394
1045,1045,[-9.58483925e+02  3.58398151e+02 -1.13946396e-04  1.74769412e+04],2088,2088.8214719751213
1046,1046,[-8.36803815e+02  3.81472447e+02 -1.50160105e-04  1.98670431e+04],431,2105.9569653986414
1047,1047,[-4.60977997e+02  3.64404635e+02 -8.26682607e-05  1.72870023e+04],805,2094.536616574721
1048,1048,[-8.71640367e+02  3.82421495e+02 -1.51329620e-04  1.87995255e+04],1646,2086.368461301049
1049,1049,[-3.33697071e+02  3.63403525e+02 -9.16088503e-05  1.72877201e+04],1769,2094.505488852825
1050,1050,[-9.31892043e+02  3.79420787e+02 -1.36605737e-04  1.72877325e+04],804,2082.1125610386057
1051,1051,[-8.83516211e+02  3.78420441e+02 -1.40713230e-04  2.06941822e+04],261,2095.1518352098237
1052,1052,[-7.03611400e+02  3.67407938e+02 -9.13103732e-05  1.72893346e+04],121,2091.6788888177553
1053,1053,[-5.13228877e+02  3.66406308e+02 -8.02311310e-05  1.72893346e+04],1338,2109.6848520753397
1054,1054,[-4.43090906e+02  3.61401253e+02 -9.61618003e-05  1.72893346e+04],650,2108.906264937144
1055,1055,[-9.32338520e+02  3.67458682e+02 -1.29871790e-04  1.72867993e+04],1918,2102.0100227892267
1056,1056,[-6.60099544e+02  3.69409651e+02 -9.61860566e-05  1.72893334e+04],544,2104.0804304870767
1057,1057,[-4.07361954e+02  3.64404510e+02 -9.06580719e-05  1.72893334e+04],1409,2093.481540286031
1058,1058,[-4.11273611e+02  3.77419039e+02 -1.17845994e-04  1.72893334e+04],153,2098.9356647259756
1059,1059,[-4.60201983e+02  3.63403495e+02 -9.79933810e-05  1.72893334e+04],331,2108.7634881951676
1060,1060,[-7.87399314e+02  3.78420382e+02 -1.58275182e-04  1.79869621e+04],271,2091.1121941666693
1061,1061,[-4.28142413e+02  3.76417964e+02 -8.44468098e-05  1.72896626e+04],734,2100.385793058129
1062,1062,[-4.90747566e+02  3.75416847e+02 -9.13086826e-05  1.72896626e+04],1080,2105.7716921864094
1063,1063,[-4.81541001e+02  3.76417915e+02 -8.90524356e-05  1.72896626e+04],1859,2101.201966667459
1064,1064,[-4.93415745e+02  3.70411281e+02 -1.06331933e-04  1.72896626e+04],1889,2107.572717093398
1065,1065,[-9.59438151e+02  3.77400718e+02 -1.48044553e-04  1.73406820e+04],909,2099.1917976832183
1066,1066,[-5.76712881e+02  3.69410062e+02 -9.82155187e-05  1.72896866e+04],1694,2089.739942670356
1067,1067,[-6.12628242e+02  3.89432177e+02 -1.22849908e-04  1.72896866e+04],1348,2104.535767407265
1068,1068,[-4.11737819e+02  3.66406696e+02 -9.24772356e-05  1.72896866e+04],1190,2096.855481087503
1069,1069,[-9.53358093e+02  3.72441564e+02 -1.42084038e-04  1.72814859e+04],1964,2091.0240838581676
1070,1070,[-4.87925918e+02  3.76417720e+02 -9.31219553e-05  1.72896827e+04],2059,2106.0147853633016
1071,1071,[-9.85894806e+02  3.61405786e+02 -1.11895174e-04  1.72416562e+04],1888,2108.4593556800646
1072,1072,[-8.82298764e+02  3.82422881e+02 -1.59928440e-04  1.72889562e+04],238,2099.0868883781995
1073,1073,[-1.03683654e+03  3.63408805e+02 -1.06117712e-04  1.72635009e+04],2131,2099.875612264191
1074,1074,[-4.34004802e+02  3.75416744e+02 -8.85680327e-05  1.72896476e+04],1066,2093.700076700916
1075,1075,[-9.93743335e+02  3.54394580e+02 -9.95344008e-05  1.72894019e+04],2006,2106.3053886780394
1076,1076,[-9.69574011e+02  3.64404672e+02 -1.04763807e-04  1.72929001e+04],597,2097.2446715705164
1077,1077,[-8.90458264e+02  3.85428134e+02 -1.59236866e-04  1.72911524e+04],151,2092.3102197488765
1078,1078,[-8.50280166e+02  3.71412531e+02 -1.31180916e-04  1.80738603e+04],1844,2095.0328107414057
1079,1079,[-5.31564646e+02  3.62402257e+02 -8.10871775e-05  1.72900167e+04],1145,2101.1904445644764
1080,1080,[-8.53356269e+02  3.74423043e+02 -1.33087307e-04  1.72873834e+04],1626,2089.9351844982366
1081,1081,[-7.92840193e+02  3.74415910e+02 -1.39970684e-04  1.71054117e+04],1572,2098.549841834092
1082,1082,[-9.65228424e+02  3.57397069e+02 -1.15146902e-04  1.77153647e+04],1784,2081.4768793540566
1083,1083,[-8.53246698e+02  3.82424830e+02 -1.69959063e-04  1.77691319e+04],467,2103.2346342164324
1084,1084,[-3.97428238e+02  3.74415676e+02 -1.13371309e-04  1.72903515e+04],1158,2099.8052613229866
1085,1085,[-4.76685852e+02  3.45383405e+02 -6.09616974e-05  1.72903515e+04],453,2097.6537613433447
1086,1086,[-9.51134099e+02  3.72413765e+02 -1.04651004e-04  2.48291667e+04],1324,2095.4988874495275
1087,1087,[-5.65819057e+02  3.75416854e+02 -1.19115983e-04  1.72938661e+04],1986,2077.0096703456625
1088,1088,[-4.27687013e+02  3.64404181e+02 -1.09474683e-04  1.72938661e+04],969,2075.370814119687
1089,1089,[-3.76082146e+02  3.68409130e+02 -1.22865212e-04  1.72938661e+04],392,2098.2947033826144
1090,1090,[-4.75008148e+02  3.67407906e+02 -9.57307759e-05  1.72938661e+04],1521,2098.5069526002458
1091,1091,[-9.46736016e+02  3.84427113e+02 -1.34643751e-04  1.77543884e+04],1705,2086.7300914113866
1092,1092,[-5.66333061e+02  3.69410149e+02 -1.00648212e-04  1.72940803e+04],726,2100.7621492752496
1093,1093,[-9.03718073e+02  3.72413562e+02 -1.34228033e-04  1.72951737e+04],851,2086.495088325771
1094,1094,[-6.29537723e+02  3.72413268e+02 -8.42336906e-05  1.72940808e+04],1706,2098.9255888788944
1095,1095,[-3.81538473e+02  3.68409075e+02 -9.51396957e-05  1.72940808e+04],1484,2106.177110706941
1096,1096,[-4.89465045e+02  3.72413451e+02 -9.16337355e-05  1.72940808e+04],96,2102.9762470146925
1097,1097,[-9.78029259e+02  3.85427823e+02 -1.29915002e-04  1.72940831e+04],1439,2092.409698181553
1098,1098,[-5.00753072e+02  3.71412612e+02 -9.56027153e-05  1.72940890e+04],344,2082.8739077262403
1099,1099,[-6.50532310e+02  3.54393431e+02 -6.67862276e-05  1.72940808e+04],80,2103.5347614053485
1100,1100,[-5.29522514e+02  3.83425746e+02 -8.98552427e-05  1.72940808e+04],2041,2102.93262057511
1101,1101,[-4.94856398e+02  3.81423340e+02 -8.98763649e-05  1.72940808e+04],1936,2106.244001675444
1102,1102,[-9.61968240e+02  3.80454155e+02 -1.39163056e-04  1.72933202e+04],9,2102.691219191148
1103,1103,[-5.06602157e+02  3.71412402e+02 -1.17527514e-04  1.72940805e+04],752,2095.8729223929677
1104,1104,[-5.11556372e+02  3.55394516e+02 -6.60421005e-05  1.72940805e+04],1194,2102.8811700648603
1105,1105,[-4.57692891e+02  3.61401241e+02 -8.35875975e-05  1.72940805e+04],1947,2097.809959277701
1106,1106,[-5.57359827e+02  3.81423638e+02 -1.44932381e-04  1.72940805e+04],1162,2093.3631262428553
1107,1107,[-5.27017462e+02  3.51390136e+02 -6.97571697e-05  1.72940805e+04],800,2102.976725692177
1108,1108,[-8.41819162e+02  3.70410623e+02 -1.31361495e-04  1.72940841e+04],313,2100.1918948462844
1109,1109,[-9.84981625e+02  3.56395462e+02 -1.06454134e-04  1.72940823e+04],1141,2087.0870195723983
1110,1110,[-5.16274355e+02  3.75416669e+02 -1.15288466e-04  1.72940805e+04],1383,2085.7792737153363
1111,1111,[-5.27150492e+02  3.82424528e+02 -1.00738255e-04  1.72940805e+04],434,2107.2751974557323
1112,1112,[-8.34064646e+02  3.76418205e+02 -1.43705776e-04  1.72930369e+04],883,2093.8027663909743
1113,1113,[-1.01070414e+03  3.68407108e+02 -1.15642980e-04  1.72934515e+04],1405,2104.517788988615
1114,1114,[-4.79944529e+02  3.70411264e+02 -9.93913501e-05  1.72940797e+04],89,2090.7944137992995
1115,1115,[-9.16470425e+02  3.64406412e+02 -1.15063152e-04  1.72839029e+04],1309,2093.99559365646
1116,1116,[-9.43275307e+02  3.89435580e+02 -1.58574156e-04  1.72680295e+04],1585,2103.105036042865
1117,1117,[-9.22897998e+02  3.63405472e+02 -1.24066815e-04  1.72840486e+04],120,2097.8749226228497
1118,1118,[-4.45409080e+02  3.66406856e+02 -9.80770771e-05  1.72940584e+04],858,2093.5027074627183
1119,1119,[-1.01420674e+03  3.67407684e+02 -1.07063332e-04  1.72939573e+04],1243,2106.4315162512476
1120,1120,[-5.85707017e+02  3.88431094e+02 -1.36928205e-04  1.72940584e+04],93,2092.107250065729
1121,1121,[-8.71580250e+02  3.75428250e+02 -1.23839830e-04  1.72936659e+04],553,2107.309106058159
1122,1122,[-4.88585587e+02  3.65405683e+02 -7.87359140e-05  1.72940582e+04],2033,2088.928840240159
1123,1123,[-9.86878332e+02  3.62402354e+02 -1.14002337e-04  1.72789552e+04],1796,2107.9548629060555
1124,1124,[-8.03973055e+02  3.63403206e+02 -6.82712517e-05  1.72940513e+04],1240,2034.989294500141
1125,1125,[-5.31097853e+02  3.67407961e+02 -9.29191669e-05  1.72940513e+04],1944,1988.7998543403116
1126,1126,[-8.82017574e+02  3.82424820e+02 -1.44760399e-04  2.29094208e+04],1730,2078.493693145048
1127,1127,[-8.54647813e+02  3.84426503e+02 -1.54473750e-04  1.74996270e+04],554,2086.616442011349
1128,1128,[-5.31672805e+02  3.65405613e+02 -8.27572663e-05  1.72967141e+04],811,2088.6769551015796
1129,1129,[-9.19429809e+02  3.69410192e+02 -1.48837948e-04  1.72966041e+04],999,2097.0149530022563
1130,1130,[-5.76363797e+02  3.81423391e+02 -1.07996801e-04  1.72967141e+04],993,2091.4622785960682
1131,1131,[-9.18014034e+02  3.87430061e+02 -1.52772055e-04  1.72967179e+04],1954,2087.1559711827163
1132,1132,[-4.39368972e+02  3.75416944e+02 -1.23707074e-04  1.72967141e+04],1401,2101.050194683713
1133,1133,[-5.04473973e+02  3.80422511e+02 -1.06101198e-04  1.72967141e+04],1516,2080.6543138131547
1134,1134,[-4.04585740e+02  3.66406824e+02 -1.18825760e-04  1.72967141e+04],1330,2052.7643722638704
1135,1135,[-6.65732258e+02  3.89432443e+02 -1.18489566e-04  1.72967141e+04],695,2091.009965668851
1136,1136,[-9.31643954e+02  3.80422404e+02 -1.26884615e-04  1.72967222e+04],1155,2083.74441007186
1137,1137,[-3.01739029e+02  3.44381343e+02 -4.41520297e-04  1.72967238e+04],550,1979.6747689414685
1138,1138,[-1.31250539e+03  3.89431000e+02 -1.38206023e-04  1.72967180e+04],2086,2030.0389129950254
1139,1139,[-5.71912934e+02  3.82424581e+02 -1.18587616e-04  1.72967141e+04],911,2095.0269896191176
1140,1140,[-3.78783856e+02  3.64404466e+02 -1.12781924e-04  1.72967141e+04],1750,2095.936546767438
1141,1141,[-9.58071357e+02  3.74415965e+02 -1.22533208e-04  1.82033117e+04],1837,2089.3768010034364
1142,1142,[-9.25774849e+02  3.83425939e+02 -1.64932939e-04  2.15538045e+04],935,2090.86200024348
1143,1143,[-8.95377329e+02  3.84427058e+02 -1.59239691e-04  1.73730367e+04],758,2075.7933610077957
1144,1144,[-5.51258420e+02  3.78420158e+02 -9.99564703e-05  1.72990937e+04],1122,2061.1629024451163
1145,1145,[-7.73082049e+02  3.72413508e+02 -1.04662957e-04  1.72990970e+04],1862,2089.7031093709656
1146,1146,[-1.02181599e+03  3.69410185e+02 -1.06007174e-04  2.27289344e+04],908,2068.044075274368
1147,1147,[-9.94126040e+02  3.78417816e+02 -1.23159768e-04  1.73015583e+04],1283,2088.5904392811112
1148,1148,[-5.13039308e+02  3.75416802e+02 -1.02815585e-04  1.73015563e+04],2083,2097.0000872551027
1149,1149,[-4.96234558e+02  3.66406918e+02 -1.08168907e-04  1.73015563e+04],11,2098.6755761643462
1150,1150,[-8.96813952e+02  3.83425124e+02 -1.36001231e-04  1.73016722e+04],1045,2093.9518438098785
1151,1151,[-5.24322096e+02  3.69410080e+02 -1.01198839e-04  1.73015563e+04],1277,2083.7643783709186
1152,1152,[-5.00017763e+02  3.81423452e+02 -9.37098168e-05  1.73015563e+04],1926,2100.7953336991823
1153,1153,[-4.53370844e+02  3.64404560e+02 -8.16755482e-05  1.73015563e+04],1917,2074.483168341347
1154,1154,[-9.34881503e+02  3.74415467e+02 -1.28362438e-04  1.73015583e+04],1915,2066.3043507248976
1155,1155,[-1.01749093e+03  3.66405110e+02 -1.03083767e-04  1.73019262e+04],1304,2089.035494926261
1156,1156,[-8.99630503e+02  3.68409327e+02 -1.27061518e-04  2.09603612e+04],2096,2091.4328695700883
1157,1157,[-4.65108007e+02  3.61401255e+02 -7.81410264e-05  1.73032083e+04],1733,2079.4265889697335
1158,1158,[-5.54965368e+02  3.76417505e+02 -1.26507788e-04  1.73032083e+04],176,2089.650301584261
1159,1159,[-5.67583831e+02  3.71412227e+02 -1.13648229e-04  1.73032083e+04],1317,2081.4148942173506
1160,1160,[-9.76152371e+02  3.66452581e+02 -1.12917876e-04  1.73019122e+04],1814,2076.39082498932
1161,1161,[-5.65008554e+02  3.83425582e+02 -1.15391237e-04  1.73032077e+04],1128,2082.7772036264446
1162,1162,[-9.01069805e+02  3.55394874e+02 -1.05208488e-04  3.71876582e+04],239,2089.427283374526
1163,1163,[-6.21204745e+02  3.69410191e+02 -9.12996433e-05  1.73121607e+04],774,2075.792172251782
1164,1164,[-5.11242681e+02  3.72413333e+02 -1.10214395e-04  1.73121607e+04],1554,2094.118066658911
1165,1165,[-8.95243142e+02  3.81506066e+02 -1.41247009e-04  1.73120880e+04],1147,2094.800612098073
1166,1166,[-9.83636801e+02  3.61401344e+02 -9.67115133e-05  2.05911827e+04],1805,2076.4751190675915
1167,1167,[-8.61581401e+02  3.78420140e+02 -1.47561874e-04  1.73136547e+04],1648,2098.683742329313
1168,1168,[-6.09765574e+02  3.62402281e+02 -8.96710623e-05  1.73136344e+04],524,2094.15088213728
1169,1169,[-5.96071610e+02  3.84426824e+02 -9.88226697e-05  1.73136344e+04],1181,2092.756354692716
1170,1170,[-4.90885618e+02  3.74415653e+02 -9.40957080e-05  1.73136344e+04],348,2072.684694765313
1171,1171,[-9.15258343e+02  3.68468920e+02 -1.24331605e-04  2.03414117e+04],1977,2062.792035677159
1172,1172,[-6.04408973e+02  3.40378016e+02 -6.18977655e-05  1.73149921e+04],2077,2078.3629808065407
1173,1173,[-4.37876013e+02  3.75416835e+02 -1.13890314e-04  1.73149921e+04],85,2066.925347502113
1174,1174,[-4.95445982e+02  3.74415480e+02 -9.58953077e-05  1.73149921e+04],1000,2080.503871923137
1175,1175,[-4.55241426e+02  3.57396776e+02 -7.53724556e-05  1.73149921e+04],1761,2097.074134447476
1176,1176,[-8.41802310e+02  3.83423508e+02 -1.67431135e-04  1.73151099e+04],827,2079.7072336989845
1177,1177,[-8.70015354e+02  3.77419081e+02 -1.37695402e-04  1.73149968e+04],1914,2056.9958418940187
1178,1178,[-4.07510073e+02  3.67407891e+02 -1.14316512e-04  1.73149922e+04],670,2096.0667329923544
1179,1179,[-5.81211552e+02  3.83425728e+02 -1.52104242e-04  1.73149922e+04],1642,2044.5693975379347
1180,1180,[-4.78288174e+02  3.61401292e+02 -9.06547941e-05  1.73149922e+04],660,2075.3704293801056
1181,1181,[-5.05650704e+02  3.69410111e+02 -1.13466819e-04  1.73149922e+04],739,2088.5679186964285
1182,1182,[-9.68541663e+02  3.70409303e+02 -1.32383035e-04  1.74927130e+04],1600,2090.466712906252
1183,1183,[-6.35117728e+02  3.72413329e+02 -9.97509133e-05  1.73150715e+04],1272,2079.740539051687
1184,1184,[-4.96948870e+02  3.75416741e+02 -1.01088451e-04  1.73150715e+04],1930,2061.0029678484516
1185,1185,[-4.79077780e+02  3.68409100e+02 -1.00283391e-04  1.73150715e+04],305,2068.3934827042403
1186,1186,[-8.61148508e+02  3.76417975e+02 -1.32285708e-04  1.73151008e+04],1760,2093.41237687447
1187,1187,[-4.67829110e+02  3.62402380e+02 -8.46745842e-05  1.73150715e+04],2121,2086.4880928383095
1188,1188,[-4.89558910e+02  3.62402204e+02 -8.95418794e-05  1.73150715e+04],279,2083.301049149215
1189,1189,[-4.10107246e+02  3.70411259e+02 -8.35680467e-05  1.73150715e+04],910,2094.1787379268762
1190,1190,[-5.58174664e+02  3.76417912e+02 -1.24229035e-04  1.73150715e+04],529,2089.802146905108
1191,1191,[-5.25036879e+02  3.58397961e+02 -8.15542743e-05  1.73150715e+04],840,2095.2967539818956
1192,1192,[-8.75902045e+02  3.64401054e+02 -1.29455602e-04  1.73153937e+04],1975,2066.6379555846834
1193,1193,[-4.85585270e+02  3.74415674e+02 -1.04983482e-04  1.73150716e+04],1566,2067.4998721618963
1194,1194,[-8.72780273e+02  3.76417822e+02 -1.30105872e-04  1.73150746e+04],1306,2089.4462160187973
1195,1195,[-4.92446847e+02  3.63403485e+02 -1.10709521e-04  1.73150716e+04],2030,2085.334855470841
1196,1196,[-6.42612887e+02  3.76418078e+02 -1.07490809e-04  1.73150716e+04],233,2070.614256766128
1197,1197,[-5.43176303e+02  3.69409928e+02 -8.50250922e-05  1.73150716e+04],709,2098.009783891829
1198,1198,[-4.77451697e+02  3.61401293e+02 -8.43176393e-05  1.73150716e+04],1588,2086.9670803891813
1199,1199,[-5.05882652e+02  3.65405805e+02 -9.88380027e-05  1.73150716e+04],492,2084.1569006820346
1200,1200,[-6.05805908e+02  3.72413310e+02 -9.59292502e-05  1.73150716e+04],247,2074.491354876366
1201,1201,[-4.63526835e+02  3.74415694e+02 -1.08757217e-04  1.73150716e+04],569,2070.5014131097896
1202,1202,[-6.08565355e+02  3.81423305e+02 -1.09842405e-04  1.73150716e+04],1940,2075.5868627152454
1203,1203,[-9.75109978e+02  3.68409333e+02 -1.32276275e-04  2.33907322e+04],1808,2095.557224462171
1204,1204,[-1.03609133e+03  3.51390829e+02 -9.47385683e-05  1.73012134e+04],1993,2065.299857627869
1205,1205,[-9.49886099e+02  3.75416936e+02 -1.25049443e-04  1.73692795e+04],122,2069.2200617638623
1206,1206,[-5.25105682e+02  3.63403460e+02 -6.52051721e-05  1.73177730e+04],697,2081.939548495625
1207,1207,[-1.02557768e+03  3.69410157e+02 -1.19801732e-04  1.62344204e+04],12,2094.4691329801626
1208,1208,[-4.97639755e+02  3.81423504e+02 -9.20513102e-05  1.73172949e+04],473,2085.264772505579
1209,1209,[-1.11494451e+03  3.71412641e+02 -1.13400026e-04  1.90284235e+04],39,2078.334254863458
1210,1210,[-5.55021161e+02  3.56395487e+02 -8.18461430e-05  1.73180494e+04],1001,2080.8638311868644
1211,1211,[-6.43751350e+02  3.69410240e+02 -9.78970155e-05  1.73180494e+04],977,2086.527235558183
1212,1212,[-5.87215433e+02  3.56395706e+02 -7.11969722e-05  1.73180494e+04],1678,2086.905539062985
1213,1213,[-8.91415199e+02  3.62399487e+02 -1.18627108e-04  1.75187842e+04],1369,2081.242957882125
1214,1214,[-4.83490811e+02  3.75416644e+02 -9.02602448e-05  1.73181378e+04],243,2061.4544464862997
1215,1215,[-6.54380782e+02  3.79421058e+02 -1.16983879e-04  1.73181378e+04],1973,2071.085714973665
1216,1216,[-5.99080288e+02  3.82424548e+02 -1.11018324e-04  1.73181378e+04],1535,2085.9649155214274
1217,1217,[-6.69224108e+02  3.85428135e+02 -1.15431269e-04  1.73181378e+04],1561,2084.9061036450453
1218,1218,[-5.15009450e+02  3.82424655e+02 -9.06543779e-05  1.73181378e+04],290,2066.775536645219
1219,1219,[-5.96308046e+02  3.88431113e+02 -9.84223770e-05  1.73181378e+04],1494,2076.7436942383247
1220,1220,[-5.55913126e+02  3.69410108e+02 -9.48150611e-05  1.73181378e+04],1720,2090.3580315137306
1221,1221,[-9.59227769e+02  3.90432270e+02 -1.70018934e-04  1.73891188e+04],822,2080.876389093116
1222,1222,[-1.04649259e+03  3.71412301e+02 -1.16766001e-04  1.73183551e+04],1841,2097.9257006956036
1223,1223,[-5.41661196e+02  3.68408961e+02 -9.28291917e-05  1.73181690e+04],1593,2059.862079751912
1224,1224,[-5.49617104e+02  3.49387760e+02 -6.31000382e-05  1.73181690e+04],63,2075.7474558499775
1225,1225,[-9.46043145e+02  3.84427070e+02 -1.43572604e-04  1.39136953e+04],1747,2065.6985365795326
1226,1226,[-4.20859194e+02  3.68409045e+02 -1.26877272e-04  1.73166784e+04],1418,2069.2852985607033
1227,1227,[-4.82981628e+02  3.65405602e+02 -8.56527617e-05  1.73166784e+04],1980,2090.736041117657
1228,1228,[-5.27826525e+02  3.62402387e+02 -6.80189074e-05  1.73166784e+04],1269,2083.523804857704
1229,1229,[-5.71876837e+02  3.63403406e+02 -8.70030318e-05  1.73166784e+04],956,2090.773989559656
1230,1230,[-9.29301939e+02  3.86429101e+02 -1.57020159e-04  1.73166796e+04],504,2085.75310822905
1231,1231,[-1.04280414e+03  3.90433766e+02 -1.46948805e-04  3.41999599e+04],640,2085.6461132765526
1232,1232,[-5.58545256e+02  3.83425755e+02 -1.07419969e-04  1.73240510e+04],1707,2083.622243895956
1233,1233,[-1.12538224e+03  3.68409029e+02 -1.08348750e-04  1.73433548e+04],1363,2068.9900267674197
1234,1234,[-1.01130821e+03  3.62402565e+02 -1.06257640e-04  1.73236450e+04],1765,2065.634913507158
