,0,1,2,3
0,0,[ 5.42985621e+04  1.58924583e+03 -3.17995200e-02  5.65595637e-01],430,985.4435194568796
1,1,[ 5.42985621e+04  1.58924583e+03 -3.17995200e-02  5.65595637e-01],466,981.0308486803968
2,2,[ 5.42985621e+04  1.58924583e+03 -3.17995200e-02  5.65595637e-01],796,983.3187478483085
3,3,[ 5.42985621e+04  1.58924583e+03 -3.17995200e-02  5.65595637e-01],685,983.2711509745264
4,4,[ 5.42985621e+04  1.58924583e+03 -3.17995200e-02  5.65595637e-01],809,961.9934553050598
5,5,[ 5.42985621e+04  1.58924583e+03 -3.17995200e-02  5.65595637e-01],359,961.0596312523554
6,6,[ 5.42985621e+04  1.58924583e+03 -3.17995200e-02  5.65595637e-01],641,983.6144667782168
7,7,[ 5.42985621e+04  1.58924583e+03 -3.17995200e-02  5.65595637e-01],560,961.9221667837725
8,8,[ 5.42985621e+04  1.58924583e+03 -3.17995200e-02  5.65595637e-01],845,967.884198681818
9,9,[ 5.42985621e+04  1.58924583e+03 -3.17995200e-02  5.65595637e-01],770,972.9495647046252
10,10,[ 5.42985621e+04  1.58924583e+03 -3.17995200e-02  5.65595637e-01],817,960.1316123198656
11,11,[ 5.42985621e+04  1.58924583e+03 -3.17995200e-02  5.65595637e-01],767,968.3835392056594
12,12,[ 5.42985621e+04  1.58924583e+03 -3.17995200e-02  5.65595637e-01],485,970.7009054427504
13,13,[ 5.42985621e+04  1.58924583e+03 -3.17995200e-02  5.65595637e-01],532,980.2462250365213
14,14,[ 5.42985621e+04  1.58924583e+03 -3.17995200e-02  5.65595637e-01],515,986.6565906019391
15,15,[ 5.42985621e+04  1.58924583e+03 -3.17995200e-02  5.65595637e-01],678,982.0333661050154
16,16,[ 5.42985621e+04  1.58924583e+03 -3.17995200e-02  5.65595637e-01],566,987.2241247552626
17,17,[ 5.42985621e+04  1.58924583e+03 -3.17995200e-02  5.65595637e-01],557,989.5732740029995
18,18,[ 5.42985621e+04  1.58924583e+03 -3.17995200e-02  5.65595637e-01],605,973.7831806309499
19,19,[ 5.42985621e+04  1.58924583e+03 -3.17995200e-02  5.65595637e-01],229,967.0573768604702
20,20,[ 5.42985621e+04  1.58924583e+03 -3.17995200e-02  5.65595637e-01],898,975.5106624464136
21,21,[ 5.42985621e+04  1.58924583e+03 -3.17995200e-02  5.65595637e-01],611,980.6032949213018
22,22,[ 5.42985621e+04  1.58924583e+03 -3.17995200e-02  5.65595637e-01],808,976.6593757616437
23,23,[ 5.42985621e+04  1.58924583e+03 -3.17995200e-02  5.65595637e-01],994,976.9422346746994
24,24,[ 5.42985621e+04  1.58924583e+03 -3.17995200e-02  5.65595637e-01],906,973.5556199599458
25,25,[ 5.42985621e+04  1.58924583e+03 -3.17995200e-02  5.65595637e-01],805,984.7908577830464
26,26,[ 5.42985621e+04  1.58924583e+03 -3.17995200e-02  5.65595637e-01],514,977.7270242559899
27,27,[ 5.42985621e+04  1.58924583e+03 -3.17995200e-02  5.65595637e-01],811,977.8448350795842
28,28,[ 5.42985621e+04  1.58924583e+03 -3.17995200e-02  5.65595637e-01],667,990.8879303720911
29,29,[ 5.42985621e+04  1.58924583e+03 -3.17995200e-02  5.65595637e-01],581,965.8682017489557
30,30,[ 5.42985621e+04  1.58924583e+03 -3.17995200e-02  5.65595637e-01],556,985.2480716024122
31,31,[ 5.42985621e+04  1.58924583e+03 -3.17995200e-02  5.65595637e-01],745,972.2549990803002
32,32,[ 5.42985621e+04  1.58924583e+03 -3.17995200e-02  5.65595637e-01],534,969.8682276628272
33,33,[ 5.42985621e+04  1.58924583e+03 -3.17995200e-02  5.65595637e-01],988,964.1843908309623
34,34,[ 5.42985621e+04  1.58924583e+03 -3.17995200e-02  5.65595637e-01],804,971.0878412915373
35,35,[ 5.42985621e+04  1.58924583e+03 -3.17995200e-02  5.65595637e-01],756,969.0543832505768
36,36,[ 5.42985621e+04  1.58924583e+03 -3.17995200e-02  5.65595637e-01],413,989.0902080597972
37,37,[ 5.42985621e+04  1.58924583e+03 -3.17995200e-02  5.65595637e-01],959,984.8946636411015
38,38,[ 5.42985621e+04  1.58924583e+03 -3.17995200e-02  5.65595637e-01],928,982.1083893730628
39,39,[ 5.42985621e+04  1.58924583e+03 -3.17995200e-02  5.65595637e-01],658,984.4994669807396
40,40,[ 5.42985621e+04  1.58924583e+03 -3.17995200e-02  5.65595637e-01],836,985.330128243269
41,41,[ 5.42985621e+04  1.58924583e+03 -3.17995200e-02  5.65595637e-01],704,969.5442323642694
42,42,[ 5.42985621e+04  1.58924583e+03 -3.17995200e-02  5.65595637e-01],806,988.3892264523773
43,43,[ 5.42985621e+04  1.58924583e+03 -3.17995200e-02  5.65595637e-01],803,988.2861324658071
44,44,[ 5.42985621e+04  1.58924583e+03 -3.17995200e-02  5.65595637e-01],825,974.6313268080231
45,45,[ 5.42985621e+04  1.58924583e+03 -3.17995200e-02  5.65595637e-01],821,970.3408491975157
46,46,[ 5.42985621e+04  1.58924583e+03 -3.17995200e-02  5.65595637e-01],929,974.9851063298454
47,47,[ 5.42985621e+04  1.58924583e+03 -3.17995200e-02  5.65595637e-01],887,978.7390283921573
48,48,[ 5.42985621e+04  1.58924583e+03 -3.17995200e-02  5.65595637e-01],960,991.15619811252
49,49,[ 5.42985621e+04  1.58924583e+03 -3.17995200e-02  5.65595637e-01],370,954.5691153603009
50,50,[ 5.42985621e+04  1.58924583e+03 -3.17995200e-02  5.65595637e-01],703,974.6345387636992
51,51,[ 5.42985621e+04  1.58924583e+03 -3.17995200e-02  5.65595637e-01],371,972.4992192792613
52,52,[ 5.42985621e+04  1.58924583e+03 -3.17995200e-02  5.65595637e-01],310,983.3733356071621
53,53,[ 5.42985621e+04  1.58924583e+03 -3.17995200e-02  5.65595637e-01],307,948.4867588603541
54,54,[ 5.42985621e+04  1.58924583e+03 -3.17995200e-02  5.65595637e-01],965,978.667360121393
55,55,[ 5.42985621e+04  1.58924583e+03 -3.17995200e-02  5.65595637e-01],234,976.1148576257804
56,56,[ 5.42985621e+04  1.58924583e+03 -3.17995200e-02  5.65595637e-01],778,958.9526435887303
57,57,[ 5.42985621e+04  1.58924583e+03 -3.17995200e-02  5.65595637e-01],913,966.1610105024304
58,58,[ 5.42985621e+04  1.58924583e+03 -3.17995200e-02  5.65595637e-01],419,961.8041746468185
59,59,[ 5.42985621e+04  1.58924583e+03 -3.17995200e-02  5.65595637e-01],526,970.0076540101566
60,60,[ 5.42985621e+04  1.58924583e+03 -3.17995200e-02  5.65595637e-01],474,970.9472997322524
61,61,[ 5.42985621e+04  1.58924583e+03 -3.17995200e-02  5.65595637e-01],903,958.3055489600273
62,62,[ 5.42985621e+04  1.58924583e+03 -3.17995200e-02  5.65595637e-01],228,979.7484439227004
63,63,[ 5.42985621e+04  1.58924583e+03 -3.17995200e-02  5.65595637e-01],763,979.2757898744118
64,64,[ 5.42985621e+04  1.58924583e+03 -3.17995200e-02  5.65595637e-01],819,968.6715852426194
65,65,[ 5.42985621e+04  1.58924583e+03 -3.17995200e-02  5.65595637e-01],861,978.1906661293689
66,66,[ 5.42985621e+04  1.58924583e+03 -3.17995200e-02  5.65595637e-01],649,988.2142187435923
67,67,[ 5.42985621e+04  1.58924583e+03 -3.17995200e-02  5.65595637e-01],777,976.3204306172233
68,68,[ 5.42985621e+04  1.58924583e+03 -3.17995200e-02  5.65595637e-01],479,975.3118366887841
69,69,[ 5.42985621e+04  1.58924583e+03 -3.17995200e-02  5.65595637e-01],465,980.9687103755127
70,70,[ 5.42985621e+04  1.58924583e+03 -3.17995200e-02  5.65595637e-01],714,982.118058093783
71,71,[ 5.42985621e+04  1.58924583e+03 -3.17995200e-02  5.65595637e-01],999,982.0601663392285
72,72,[ 5.42985621e+04  1.58924583e+03 -3.17995200e-02  5.65595637e-01],677,981.3931135140841
73,73,[ 5.42985621e+04  1.58924583e+03 -3.17995200e-02  5.65595637e-01],874,969.7305379941563
74,74,[ 5.42985621e+04  1.58924583e+03 -3.17995200e-02  5.65595637e-01],275,981.3678233227929
75,75,[ 5.42985621e+04  1.58924583e+03 -3.17995200e-02  5.65595637e-01],860,978.4280439563363
76,76,[ 5.42985621e+04  1.58924583e+03 -3.17995200e-02  5.65595637e-01],409,988.6475458847863
77,77,[ 5.42985621e+04  1.58924583e+03 -3.17995200e-02  5.65595637e-01],431,975.4500698438436
78,78,[ 5.42985621e+04  1.58924583e+03 -3.17995200e-02  5.65595637e-01],501,979.2683975218453
79,79,[ 5.42985621e+04  1.58924583e+03 -3.17995200e-02  5.65595637e-01],543,974.3426481309416
80,80,[ 5.42985621e+04  1.58924583e+03 -3.17995200e-02  5.65595637e-01],786,990.3468827980978
81,81,[ 5.42985621e+04  1.58924583e+03 -3.17995200e-02  5.65595637e-01],375,946.88825393489
82,82,[ 5.42985621e+04  1.58924583e+03 -3.17995200e-02  5.65595637e-01],406,978.5258513490867
83,83,[ 5.42985621e+04  1.58924583e+03 -3.17995200e-02  5.65595637e-01],624,977.614418614545
84,84,[ 5.42985621e+04  1.58924583e+03 -3.17995200e-02  5.65595637e-01],655,969.4568168294246
85,85,[ 5.42985621e+04  1.58924583e+03 -3.17995200e-02  5.65595637e-01],826,985.978744768226
86,86,[ 5.42985621e+04  1.58924583e+03 -3.17995200e-02  5.65595637e-01],654,980.9527965572179
87,87,[ 5.42985621e+04  1.58924583e+03 -3.17995200e-02  5.65595637e-01],785,968.3361767865754
88,88,[ 5.42985621e+04  1.58924583e+03 -3.17995200e-02  5.65595637e-01],458,965.7518454890651
89,89,[ 5.42985621e+04  1.58924583e+03 -3.17995200e-02  5.65595637e-01],857,971.342175258638
90,90,[ 5.42985621e+04  1.58924583e+03 -3.17995200e-02  5.65595637e-01],529,982.026522876657
91,91,[ 5.42985621e+04  1.58924583e+03 -3.17995200e-02  5.65595637e-01],697,984.7225357312795
92,92,[ 5.42985621e+04  1.58924583e+03 -3.17995200e-02  5.65595637e-01],286,971.2845548285736
93,93,[ 5.42985621e+04  1.58924583e+03 -3.17995200e-02  5.65595637e-01],272,986.9172583078454
94,94,[ 5.42985621e+04  1.58924583e+03 -3.17995200e-02  5.65595637e-01],588,975.4210993199869
95,95,[ 5.42985621e+04  1.58924583e+03 -3.17995200e-02  5.65595637e-01],231,975.9653120873554
96,96,[ 5.42985621e+04  1.58924583e+03 -3.17995200e-02  5.65595637e-01],364,974.6406794261871
97,97,[ 5.42985621e+04  1.58924583e+03 -3.17995200e-02  5.65595637e-01],644,977.6926248818592
98,98,[ 5.42985621e+04  1.58924583e+03 -3.17995200e-02  5.65595637e-01],871,980.5073562086844
99,99,[ 5.42985621e+04  1.58924583e+03 -3.17995200e-02  5.65595637e-01],802,965.4411137764037
100,100,[ 5.42985621e+04  1.58924583e+03 -3.17995200e-02  5.65595637e-01],439,984.9639776194562
101,101,[ 5.42985621e+04  1.58924583e+03 -3.17995200e-02  5.65595637e-01],480,962.2879014322922
102,102,[ 5.42985621e+04  1.58924583e+03 -3.17995200e-02  5.65595637e-01],866,964.7346081230181
103,103,[ 5.42985621e+04  1.58924583e+03 -3.17995200e-02  5.65595637e-01],718,964.1148601389856
104,104,[ 5.42985621e+04  1.58924583e+03 -3.17995200e-02  5.65595637e-01],536,976.1242578599829
105,105,[ 5.42985621e+04  1.58924583e+03 -3.17995200e-02  5.65595637e-01],410,977.5049570060952
106,106,[ 5.42985621e+04  1.58924583e+03 -3.17995200e-02  5.65595637e-01],245,974.9118131857989
107,107,[ 5.42985621e+04  1.58924583e+03 -3.17995200e-02  5.65595637e-01],764,947.3062858325387
108,108,[ 5.42985621e+04  1.58924583e+03 -3.17995200e-02  5.65595637e-01],937,953.8998925943014
109,109,[ 5.42985621e+04  1.58924583e+03 -3.17995200e-02  5.65595637e-01],741,970.8423057799545
110,110,[ 5.42985621e+04  1.58924583e+03 -3.17995200e-02  5.65595637e-01],784,970.7227531444398
111,111,[ 5.42985621e+04  1.58924583e+03 -3.17995200e-02  5.65595637e-01],726,957.3887332136778
112,112,[ 5.42985621e+04  1.58924583e+03 -3.17995200e-02  5.65595637e-01],747,987.6990293891055
113,113,[ 5.42985621e+04  1.58924583e+03 -3.17995200e-02  5.65595637e-01],1006,985.722922172552
114,114,[ 5.42985621e+04  1.58924583e+03 -3.17995200e-02  5.65595637e-01],178,984.9192114980187
115,115,[ 5.42985621e+04  1.58924583e+03 -3.17995200e-02  5.65595637e-01],551,978.7942666612463
116,116,[ 5.42985621e+04  1.58924583e+03 -3.17995200e-02  5.65595637e-01],457,985.7862733330953
117,117,[ 5.42985621e+04  1.58924583e+03 -3.17995200e-02  5.65595637e-01],1008,985.2249242470276
118,118,[ 5.42985621e+04  1.58924583e+03 -3.17995200e-02  5.65595637e-01],583,981.1368729389345
119,119,[ 5.42985621e+04  1.58924583e+03 -3.17995200e-02  5.65595637e-01],342,980.8072048273574
120,120,[ 5.42985621e+04  1.58924583e+03 -3.17995200e-02  5.65595637e-01],867,984.595999347844
121,121,[ 5.42985621e+04  1.58924583e+03 -3.17995200e-02  5.65595637e-01],855,982.7226871739534
122,122,[ 5.42985621e+04  1.58924583e+03 -3.17995200e-02  5.65595637e-01],621,984.7254042689129
123,123,[ 5.42985621e+04  1.58924583e+03 -3.17995200e-02  5.65595637e-01],519,981.7122854219831
124,124,[ 5.42985621e+04  1.58924583e+03 -3.17995200e-02  5.65595637e-01],762,985.3304890356321
125,125,[ 5.42985621e+04  1.58924583e+03 -3.17995200e-02  5.65595637e-01],538,982.2312440130645
126,126,[ 5.42985621e+04  1.58924583e+03 -3.17995200e-02  5.65595637e-01],816,985.8261386050042
127,127,[ 5.42985621e+04  1.58924583e+03 -3.17995200e-02  5.65595637e-01],759,955.6166812679364
128,128,[ 5.42985621e+04  1.58924583e+03 -3.17995200e-02  5.65595637e-01],981,991.6620644193844
129,129,[ 5.42985621e+04  1.58924583e+03 -3.17995200e-02  5.65595637e-01],207,992.6017312808808
130,130,[ 5.42985621e+04  1.58924583e+03 -3.17995200e-02  5.65595637e-01],220,993.5749902290031
131,131,[ 5.42985621e+04  1.58924583e+03 -3.17995200e-02  5.65595637e-01],531,985.0827026727949
132,132,[ 5.42985621e+04  1.58924583e+03 -3.17995200e-02  5.65595637e-01],727,989.0085621992309
133,133,[ 5.42985621e+04  1.58924583e+03 -3.17995200e-02  5.65595637e-01],948,978.5962474772009
134,134,[ 5.42985621e+04  1.58924583e+03 -3.17995200e-02  5.65595637e-01],798,986.5704166106688
135,135,[ 5.42985621e+04  1.58924583e+03 -3.17995200e-02  5.65595637e-01],782,977.6564300544591
136,136,[ 5.42985621e+04  1.58924583e+03 -3.17995200e-02  5.65595637e-01],468,987.8784234843275
137,137,[ 5.42985621e+04  1.58924583e+03 -3.17995200e-02  5.65595637e-01],222,989.2183690981042
138,138,[ 5.42985621e+04  1.58924583e+03 -3.17995200e-02  5.65595637e-01],449,990.4576915643569
139,139,[ 5.42985621e+04  1.58924583e+03 -3.17995200e-02  5.65595637e-01],687,976.9103804219376
140,140,[ 5.42985621e+04  1.58924583e+03 -3.17995200e-02  5.65595637e-01],1007,987.9551249924544
141,141,[ 5.42985621e+04  1.58924583e+03 -3.17995200e-02  5.65595637e-01],309,978.2207368515859
142,142,[ 5.42985621e+04  1.58924583e+03 -3.17995200e-02  5.65595637e-01],936,979.8241547231382
143,143,[ 5.42985621e+04  1.58924583e+03 -3.17995200e-02  5.65595637e-01],318,988.0860976825517
144,144,[ 5.42985621e+04  1.58924583e+03 -3.17995200e-02  5.65595637e-01],130,980.892277921353
145,145,[ 5.42985621e+04  1.58924583e+03 -3.17995200e-02  5.65595637e-01],632,964.7807695480659
146,146,[ 5.42985621e+04  1.58924583e+03 -3.17995200e-02  5.65595637e-01],875,988.6096694671966
147,147,[ 5.42985621e+04  1.58924583e+03 -3.17995200e-02  5.65595637e-01],838,984.4663567245229
148,148,[ 5.42985621e+04  1.58924583e+03 -3.17995200e-02  5.65595637e-01],348,982.3788851234242
149,149,[ 5.42985621e+04  1.58924583e+03 -3.17995200e-02  5.65595637e-01],213,972.6147491982312
150,150,[ 5.42985621e+04  1.58924583e+03 -3.17995200e-02  5.65595637e-01],998,978.0789006941892
151,151,[ 5.42985621e+04  1.58924583e+03 -3.17995200e-02  5.65595637e-01],586,987.5561493017051
152,152,[ 5.42985621e+04  1.58924583e+03 -3.17995200e-02  5.65595637e-01],600,985.491248705993
153,153,[ 5.42985621e+04  1.58924583e+03 -3.17995200e-02  5.65595637e-01],1016,972.3384201100317
154,154,[ 5.42985621e+04  1.58924583e+03 -3.17995200e-02  5.65595637e-01],580,992.1157700215853
155,155,[ 5.42985621e+04  1.58924583e+03 -3.17995200e-02  5.65595637e-01],971,947.5956861433427
156,156,[ 5.42985621e+04  1.58924583e+03 -3.17995200e-02  5.65595637e-01],643,984.5508721865209
157,157,[ 5.42985621e+04  1.58924583e+03 -3.17995200e-02  5.65595637e-01],354,980.1354359633084
158,158,[ 5.42985621e+04  1.58924583e+03 -3.17995200e-02  5.65595637e-01],274,985.9409054793064
159,159,[ 5.42985621e+04  1.58924583e+03 -3.17995200e-02  5.65595637e-01],990,981.0041748784324
160,160,[ 5.42985621e+04  1.58924583e+03 -3.17995200e-02  5.65595637e-01],615,988.5363316616489
161,161,[ 5.42985621e+04  1.58924583e+03 -3.17995200e-02  5.65595637e-01],633,968.6764418142722
162,162,[ 5.42985621e+04  1.58924583e+03 -3.17995200e-02  5.65595637e-01],548,987.5611885627189
163,163,[ 5.42985621e+04  1.58924583e+03 -3.17995200e-02  5.65595637e-01],356,982.267202943324
164,164,[ 5.42985621e+04  1.58924583e+03 -3.17995200e-02  5.65595637e-01],901,959.982318542534
165,165,[ 5.42985621e+04  1.58924583e+03 -3.17995200e-02  5.65595637e-01],859,981.903076116242
166,166,[ 5.42985621e+04  1.58924583e+03 -3.17995200e-02  5.65595637e-01],639,972.6231167221562
167,167,[ 5.42985621e+04  1.58924583e+03 -3.17995200e-02  5.65595637e-01],438,982.5754597474476
168,168,[ 5.42985621e+04  1.58924583e+03 -3.17995200e-02  5.65595637e-01],298,982.8810129636821
169,169,[ 5.42985621e+04  1.58924583e+03 -3.17995200e-02  5.65595637e-01],689,992.3032624988156
170,170,[ 5.42985621e+04  1.58924583e+03 -3.17995200e-02  5.65595637e-01],565,972.9533562862247
171,171,[ 5.42985621e+04  1.58924583e+03 -3.17995200e-02  5.65595637e-01],842,962.2304895138079
172,172,[ 5.42985621e+04  1.58924583e+03 -3.17995200e-02  5.65595637e-01],329,974.6964999943215
173,173,[ 5.42985621e+04  1.58924583e+03 -3.17995200e-02  5.65595637e-01],973,982.6580316135502
174,174,[ 5.42985621e+04  1.58924583e+03 -3.17995200e-02  5.65595637e-01],323,989.8118972323789
175,175,[ 5.42985621e+04  1.58924583e+03 -3.17995200e-02  5.65595637e-01],917,976.5519050930691
176,176,[ 5.42985621e+04  1.58924583e+03 -3.17995200e-02  5.65595637e-01],237,985.1995602253457
177,177,[ 5.42985621e+04  1.58924583e+03 -3.17995200e-02  5.65595637e-01],686,980.9697154205387
178,178,[ 5.42985621e+04  1.58924583e+03 -3.17995200e-02  5.65595637e-01],604,994.0805483045234
179,179,[ 5.42985621e+04  1.58924583e+03 -3.17995200e-02  5.65595637e-01],922,989.6545184691428
180,180,[ 5.42985621e+04  1.58924583e+03 -3.17995200e-02  5.65595637e-01],279,984.3756793742683
181,181,[ 5.42985621e+04  1.58924583e+03 -3.17995200e-02  5.65595637e-01],789,986.5816149512814
182,182,[ 5.42985621e+04  1.58924583e+03 -3.17995200e-02  5.65595637e-01],979,984.8138284702803
183,183,[ 5.42985621e+04  1.58924583e+03 -3.17995200e-02  5.65595637e-01],304,973.4014092873622
184,184,[ 5.42985621e+04  1.58924583e+03 -3.17995200e-02  5.65595637e-01],896,969.112839463006
185,185,[ 5.42985621e+04  1.58924583e+03 -3.17995200e-02  5.65595637e-01],662,975.5187950474935
186,186,[ 5.42985621e+04  1.58924583e+03 -3.17995200e-02  5.65595637e-01],416,983.8425302716719
187,187,[ 5.42985621e+04  1.58924583e+03 -3.17995200e-02  5.65595637e-01],923,972.1303346616249
188,188,[ 5.42985621e+04  1.58924583e+03 -3.17995200e-02  5.65595637e-01],656,975.4848589960359
189,189,[ 5.42985621e+04  1.58924583e+03 -3.17995200e-02  5.65595637e-01],539,984.4994215476013
190,190,[ 5.42985621e+04  1.58924583e+03 -3.17995200e-02  5.65595637e-01],506,986.3972474218132
191,191,[ 5.42985621e+04  1.58924583e+03 -3.17995200e-02  5.65595637e-01],761,989.2020221506622
192,192,[ 5.42985621e+04  1.58924583e+03 -3.17995200e-02  5.65595637e-01],970,990.3844759919042
193,193,[ 5.42985621e+04  1.58924583e+03 -3.17995200e-02  5.65595637e-01],666,988.4990213374816
194,194,[ 5.42985621e+04  1.58924583e+03 -3.17995200e-02  5.65595637e-01],453,990.1349266415028
195,195,[ 5.42985621e+04  1.58924583e+03 -3.17995200e-02  5.65595637e-01],281,988.0295735437697
196,196,[ 5.42985621e+04  1.58924583e+03 -3.17995200e-02  5.65595637e-01],630,988.0045684112106
197,197,[ 5.42985621e+04  1.58924583e+03 -3.17995200e-02  5.65595637e-01],980,974.7975323042027
198,198,[ 5.42985621e+04  1.58924583e+03 -3.17995200e-02  5.65595637e-01],594,980.0804363354407
199,199,[ 5.42985621e+04  1.58924583e+03 -3.17995200e-02  5.65595637e-01],1013,971.4396154484009
200,200,[ 5.42985621e+04  1.58924583e+03 -3.17995200e-02  5.65595637e-01],912,980.6404553771936
201,201,[ 5.42985621e+04  1.58924583e+03 -3.17995200e-02  5.65595637e-01],918,980.285425343273
202,202,[ 5.42985621e+04  1.58924583e+03 -3.17995200e-02  5.65595637e-01],983,976.2979647549986
203,203,[ 5.42985621e+04  1.58924583e+03 -3.17995200e-02  5.65595637e-01],717,983.0410557009886
204,204,[ 5.42985621e+04  1.58924583e+03 -3.17995200e-02  5.65595637e-01],129,969.1992906229144
205,205,[ 5.42985621e+04  1.58924583e+03 -3.17995200e-02  5.65595637e-01],626,981.8372650311164
206,206,[ 5.42985621e+04  1.58924583e+03 -3.17995200e-02  5.65595637e-01],833,981.3747741216238
207,207,[ 5.42985621e+04  1.58924583e+03 -3.17995200e-02  5.65595637e-01],242,993.7825639739195
208,208,[ 5.42985621e+04  1.58924583e+03 -3.17995200e-02  5.65595637e-01],550,975.4042222151749
209,209,[ 5.42985621e+04  1.58924583e+03 -3.17995200e-02  5.65595637e-01],525,981.3853320436605
210,210,[ 5.42985621e+04  1.58924583e+03 -3.17995200e-02  5.65595637e-01],1010,958.2478089649805
211,211,[ 5.42985621e+04  1.58924583e+03 -3.17995200e-02  5.65595637e-01],921,958.0810914491523
212,212,[ 5.42985621e+04  1.58924583e+03 -3.17995200e-02  5.65595637e-01],513,989.7354826143294
213,213,[ 5.42985621e+04  1.58924583e+03 -3.17995200e-02  5.65595637e-01],422,993.4854725692098
214,214,[ 5.42985621e+04  1.58924583e+03 -3.17995200e-02  5.65595637e-01],280,982.4001009441185
215,215,[ 5.42985621e+04  1.58924583e+03 -3.17995200e-02  5.65595637e-01],397,989.6457579959877
216,216,[ 5.42985621e+04  1.58924583e+03 -3.17995200e-02  5.65595637e-01],1009,983.2203849251632
217,217,[ 5.42985621e+04  1.58924583e+03 -3.17995200e-02  5.65595637e-01],955,981.7792597941877
218,218,[ 5.42985621e+04  1.58924583e+03 -3.17995200e-02  5.65595637e-01],589,991.0363619365755
219,219,[ 5.42985621e+04  1.58924583e+03 -3.17995200e-02  5.65595637e-01],344,986.7282614365583
220,220,[ 5.42985621e+04  1.58924583e+03 -3.17995200e-02  5.65595637e-01],660,993.7745473439353
221,221,[ 5.42985621e+04  1.58924583e+03 -3.17995200e-02  5.65595637e-01],295,988.923388641289
222,222,[ 5.42985621e+04  1.58924583e+03 -3.17995200e-02  5.65595637e-01],384,993.6538873448324
223,223,[ 5.42985621e+04  1.58924583e+03 -3.17995200e-02  5.65595637e-01],257,990.2593729735953
224,224,[ 5.42985621e+04  1.58924583e+03 -3.17995200e-02  5.65595637e-01],169,989.9145731432249
225,225,[ 5.42985621e+04  1.58924583e+03 -3.17995200e-02  5.65595637e-01],739,988.4990388860864
226,226,[ 5.42985621e+04  1.58924583e+03 -3.17995200e-02  5.65595637e-01],886,990.9807386919091
227,227,[ 5.42985621e+04  1.58924583e+03 -3.17995200e-02  5.65595637e-01],239,986.1778291298305
228,228,[ 5.42985621e+04  1.58924583e+03 -3.17995200e-02  5.65595637e-01],807,994.9073887629313
229,229,[ 5.42985621e+04  1.58924583e+03 -3.17995200e-02  5.65595637e-01],720,995.9316941013036
230,230,[ 5.42985621e+04  1.58924583e+03 -3.17995200e-02  5.65595637e-01],317,989.4284057060855
231,231,[ 5.42985621e+04  1.58924583e+03 -3.17995200e-02  5.65595637e-01],235,994.3203991158626
232,232,[ 5.42985621e+04  1.58924583e+03 -3.17995200e-02  5.65595637e-01],885,990.6397033993147
233,233,[ 5.42985621e+04  1.58924583e+03 -3.17995200e-02  5.65595637e-01],976,985.1178747090477
234,234,[ 5.42985621e+04  1.58924583e+03 -3.17995200e-02  5.65595637e-01],154,995.0022125072549
235,235,[ 5.42985621e+04  1.58924583e+03 -3.17995200e-02  5.65595637e-01],561,992.1656774096919
236,236,[ 5.42985621e+04  1.58924583e+03 -3.17995200e-02  5.65595637e-01],924,982.2273663347207
237,237,[ 5.42985621e+04  1.58924583e+03 -3.17995200e-02  5.65595637e-01],732,992.9905121397026
238,238,[ 5.42985621e+04  1.58924583e+03 -3.17995200e-02  5.65595637e-01],664,989.0384923483932
239,239,[ 5.42985621e+04  1.58924583e+03 -3.17995200e-02  5.65595637e-01],408,992.268500350498
240,240,[ 5.42985621e+04  1.58924583e+03 -3.17995200e-02  5.65595637e-01],440,984.190710776764
241,241,[ 5.42985621e+04  1.58924583e+03 -3.17995200e-02  5.65595637e-01],708,974.5487734820985
242,242,[ 5.42985621e+04  1.58924583e+03 -3.17995200e-02  5.65595637e-01],768,992.5258116411545
243,243,[ 5.42985621e+04  1.58924583e+03 -3.17995200e-02  5.65595637e-01],593,983.680753909875
244,244,[ 5.42985621e+04  1.58924583e+03 -3.17995200e-02  5.65595637e-01],869,987.1372981269119
245,245,[ 5.42985621e+04  1.58924583e+03 -3.17995200e-02  5.65595637e-01],252,994.1796359937337
246,246,[ 5.42985621e+04  1.58924583e+03 -3.17995200e-02  5.65595637e-01],694,991.7556437698752
247,247,[ 5.42985621e+04  1.58924583e+03 -3.17995200e-02  5.65595637e-01],587,990.8456771730558
248,248,[ 5.42985621e+04  1.58924583e+03 -3.17995200e-02  5.65595637e-01],246,984.1012396146708
249,249,[ 5.42985621e+04  1.58924583e+03 -3.17995200e-02  5.65595637e-01],502,982.836854802184
250,250,[ 5.42985621e+04  1.58924583e+03 -3.17995200e-02  5.65595637e-01],263,982.3469429658855
251,251,[ 5.42985621e+04  1.58924583e+03 -3.17995200e-02  5.65595637e-01],835,971.8961610111686
252,252,[ 5.42985621e+04  1.58924583e+03 -3.17995200e-02  5.65595637e-01],326,991.7757892442021
253,253,[ 5.42985621e+04  1.58924583e+03 -3.17995200e-02  5.65595637e-01],709,957.26524179424
254,254,[ 5.42985621e+04  1.58924583e+03 -3.17995200e-02  5.65595637e-01],128,979.0486194107293
255,255,[ 5.42985621e+04  1.58924583e+03 -3.17995200e-02  5.65595637e-01],721,986.9583283114835
256,256,[ 5.42985621e+04  1.58924583e+03 -3.17995200e-02  5.65595637e-01],830,982.7923585885968
257,257,[ 5.42985621e+04  1.58924583e+03 -3.17995200e-02  5.65595637e-01],992,992.3082971095876
258,258,[ 5.42985621e+04  1.58924583e+03 -3.17995200e-02  5.65595637e-01],559,979.9222016365042
259,259,[ 5.42985621e+04  1.58924583e+03 -3.17995200e-02  5.65595637e-01],459,967.4408697488352
260,260,[ 5.42985621e+04  1.58924583e+03 -3.17995200e-02  5.65595637e-01],954,974.0261855318316
261,261,[ 5.42985621e+04  1.58924583e+03 -3.17995200e-02  5.65595637e-01],668,991.3049518551278
262,262,[ 5.42985621e+04  1.58924583e+03 -3.17995200e-02  5.65595637e-01],358,976.6554658598848
263,263,[ 5.42985621e+04  1.58924583e+03 -3.17995200e-02  5.65595637e-01],436,991.7137239190657
264,264,[ 5.42985621e+04  1.58924583e+03 -3.17995200e-02  5.65595637e-01],964,977.9894041202724
265,265,[ 5.42985621e+04  1.58924583e+03 -3.17995200e-02  5.65595637e-01],441,984.5783520805345
266,266,[ 5.42985621e+04  1.58924583e+03 -3.17995200e-02  5.65595637e-01],261,988.6007899749342
267,267,[ 5.42985621e+04  1.58924583e+03 -3.17995200e-02  5.65595637e-01],418,963.1033322626138
268,268,[ 5.42985621e+04  1.58924583e+03 -3.17995200e-02  5.65595637e-01],740,975.7268980620361
269,269,[ 5.42985621e+04  1.58924583e+03 -3.17995200e-02  5.65595637e-01],932,989.3990637353954
270,270,[ 5.42985621e+04  1.58924583e+03 -3.17995200e-02  5.65595637e-01],520,975.0662342672434
271,271,[ 5.42985621e+04  1.58924583e+03 -3.17995200e-02  5.65595637e-01],933,981.6937806198519
272,272,[ 5.42985621e+04  1.58924583e+03 -3.17995200e-02  5.65595637e-01],347,994.3548830766653
273,273,[ 5.42985621e+04  1.58924583e+03 -3.17995200e-02  5.65595637e-01],934,990.8785359447742
274,274,[ 5.42985621e+04  1.58924583e+03 -3.17995200e-02  5.65595637e-01],366,993.2504503927315
275,275,[ 5.42985621e+04  1.58924583e+03 -3.17995200e-02  5.65595637e-01],48,994.6705692687162
276,276,[ 5.42985621e+04  1.58924583e+03 -3.17995200e-02  5.65595637e-01],775,987.7235797519805
277,277,[ 5.42985621e+04  1.58924583e+03 -3.17995200e-02  5.65595637e-01],848,988.8144019407689
278,278,[ 5.42985621e+04  1.58924583e+03 -3.17995200e-02  5.65595637e-01],744,978.6620215224424
279,279,[ 5.42985621e+04  1.58924583e+03 -3.17995200e-02  5.65595637e-01],780,992.9269658209652
280,280,[ 5.42985621e+04  1.58924583e+03 -3.17995200e-02  5.65595637e-01],339,992.4769088379933
281,281,[ 5.42985621e+04  1.58924583e+03 -3.17995200e-02  5.65595637e-01],482,992.7378592794483
282,282,[ 5.42985621e+04  1.58924583e+03 -3.17995200e-02  5.65595637e-01],218,983.763902998624
283,283,[ 5.42985621e+04  1.58924583e+03 -3.17995200e-02  5.65595637e-01],489,987.5146531432187
284,284,[ 5.42985621e+04  1.58924583e+03 -3.17995200e-02  5.65595637e-01],680,987.2219646258595
285,285,[ 5.42985621e+04  1.58924583e+03 -3.17995200e-02  5.65595637e-01],226,961.5187380575302
286,286,[ 5.42985621e+04  1.58924583e+03 -3.17995200e-02  5.65595637e-01],527,994.3814510440059
287,287,[ 5.42985621e+04  1.58924583e+03 -3.17995200e-02  5.65595637e-01],582,985.5861502730967
288,288,[ 5.42985621e+04  1.58924583e+03 -3.17995200e-02  5.65595637e-01],815,987.6968831406476
289,289,[ 5.42985621e+04  1.58924583e+03 -3.17995200e-02  5.65595637e-01],916,988.7425855159715
290,290,[ 5.42985621e+04  1.58924583e+03 -3.17995200e-02  5.65595637e-01],28,979.143339462066
291,291,[ 5.42985621e+04  1.58924583e+03 -3.17995200e-02  5.65595637e-01],460,982.5687275511035
292,292,[ 5.42985621e+04  1.58924583e+03 -3.17995200e-02  5.65595637e-01],273,988.4832007202378
293,293,[ 5.42985621e+04  1.58924583e+03 -3.17995200e-02  5.65595637e-01],297,970.8643142422502
294,294,[ 5.42985621e+04  1.58924583e+03 -3.17995200e-02  5.65595637e-01],577,983.4227331455992
295,295,[ 5.42985621e+04  1.58924583e+03 -3.17995200e-02  5.65595637e-01],941,992.3347330089164
296,296,[ 5.42985621e+04  1.58924583e+03 -3.17995200e-02  5.65595637e-01],247,990.2648532960523
297,297,[ 5.42985621e+04  1.58924583e+03 -3.17995200e-02  5.65595637e-01],987,990.8749518726511
298,298,[ 5.42985621e+04  1.58924583e+03 -3.17995200e-02  5.65595637e-01],518,993.120569527929
299,299,[ 5.42985621e+04  1.58924583e+03 -3.17995200e-02  5.65595637e-01],398,982.3731675869659
300,300,[ 5.42985621e+04  1.58924583e+03 -3.17995200e-02  5.65595637e-01],321,990.3963577071306
301,301,[ 5.42985621e+04  1.58924583e+03 -3.17995200e-02  5.65595637e-01],564,990.2511597120802
302,302,[ 5.42985621e+04  1.58924583e+03 -3.17995200e-02  5.65595637e-01],962,987.3678680185824
303,303,[ 5.42985621e+04  1.58924583e+03 -3.17995200e-02  5.65595637e-01],461,950.4266060631942
304,304,[ 5.42985621e+04  1.58924583e+03 -3.17995200e-02  5.65595637e-01],625,992.8564251859268
305,305,[ 5.42985621e+04  1.58924583e+03 -3.17995200e-02  5.65595637e-01],232,986.7420938894379
306,306,[ 5.42985621e+04  1.58924583e+03 -3.17995200e-02  5.65595637e-01],451,981.7290711153797
307,307,[ 5.42985621e+04  1.58924583e+03 -3.17995200e-02  5.65595637e-01],390,995.0605450505675
308,308,[ 5.42985621e+04  1.58924583e+03 -3.17995200e-02  5.65595637e-01],345,982.3031848533835
309,309,[ 5.42985621e+04  1.58924583e+03 -3.17995200e-02  5.65595637e-01],374,993.6097479766199
310,310,[ 5.42985621e+04  1.58924583e+03 -3.17995200e-02  5.65595637e-01],650,995.0648568057684
311,311,[ 5.42985621e+04  1.58924583e+03 -3.17995200e-02  5.65595637e-01],603,989.9139431040633
312,312,[ 5.42985621e+04  1.58924583e+03 -3.17995200e-02  5.65595637e-01],138,983.6951979161695
313,313,[ 5.42985621e+04  1.58924583e+03 -3.17995200e-02  5.65595637e-01],628,987.0616506986732
314,314,[ 5.42985621e+04  1.58924583e+03 -3.17995200e-02  5.65595637e-01],369,976.9781229278497
315,315,[ 5.42985621e+04  1.58924583e+03 -3.17995200e-02  5.65595637e-01],503,990.2518076070327
316,316,[ 5.42985621e+04  1.58924583e+03 -3.17995200e-02  5.65595637e-01],567,978.0112009447437
317,317,[ 5.42985621e+04  1.58924583e+03 -3.17995200e-02  5.65595637e-01],417,992.170884068995
318,318,[ 5.42985621e+04  1.58924583e+03 -3.17995200e-02  5.65595637e-01],300,993.5967299695525
319,319,[ 5.42985621e+04  1.58924583e+03 -3.17995200e-02  5.65595637e-01],192,978.3388764396799
320,320,[ 5.42985621e+04  1.58924583e+03 -3.17995200e-02  5.65595637e-01],665,982.1782435681456
321,321,[ 5.42985621e+04  1.58924583e+03 -3.17995200e-02  5.65595637e-01],882,990.7734261932831
322,322,[ 5.42985621e+04  1.58924583e+03 -3.17995200e-02  5.65595637e-01],80,984.7175678436829
323,323,[ 5.42985621e+04  1.58924583e+03 -3.17995200e-02  5.65595637e-01],608,993.0194186713378
324,324,[ 5.42985621e+04  1.58924583e+03 -3.17995200e-02  5.65595637e-01],852,983.8043615260608
325,325,[ 5.42985621e+04  1.58924583e+03 -3.17995200e-02  5.65595637e-01],427,990.2463822542747
326,326,[ 5.42985621e+04  1.58924583e+03 -3.17995200e-02  5.65595637e-01],296,991.6726028018287
327,327,[ 5.42985621e+04  1.58924583e+03 -3.17995200e-02  5.65595637e-01],223,959.8982627523994
328,328,[ 5.42985621e+04  1.58924583e+03 -3.17995200e-02  5.65595637e-01],315,988.3988644165518
329,329,[ 5.42985621e+04  1.58924583e+03 -3.17995200e-02  5.65595637e-01],301,993.0432254818625
330,330,[ 5.42985621e+04  1.58924583e+03 -3.17995200e-02  5.65595637e-01],325,984.0571357844111
331,331,[ 5.42985621e+04  1.58924583e+03 -3.17995200e-02  5.65595637e-01],900,983.3010926550667
332,332,[ 5.42985621e+04  1.58924583e+03 -3.17995200e-02  5.65595637e-01],690,990.053672896847
333,333,[ 5.42985621e+04  1.58924583e+03 -3.17995200e-02  5.65595637e-01],991,989.5830423199927
334,334,[ 5.42985621e+04  1.58924583e+03 -3.17995200e-02  5.65595637e-01],827,988.8774522741448
335,335,[ 5.42985621e+04  1.58924583e+03 -3.17995200e-02  5.65595637e-01],194,983.1128571487803
336,336,[ 5.42985621e+04  1.58924583e+03 -3.17995200e-02  5.65595637e-01],332,976.6233008155184
337,337,[ 5.42985621e+04  1.58924583e+03 -3.17995200e-02  5.65595637e-01],653,983.9643115468966
338,338,[ 5.42985621e+04  1.58924583e+03 -3.17995200e-02  5.65595637e-01],376,987.254660610493
339,339,[ 5.42985621e+04  1.58924583e+03 -3.17995200e-02  5.65595637e-01],500,991.0928953535831
340,340,[ 5.42985621e+04  1.58924583e+03 -3.17995200e-02  5.65595637e-01],592,973.2980240194602
341,341,[ 5.42985621e+04  1.58924583e+03 -3.17995200e-02  5.65595637e-01],224,973.7796831535675
342,342,[ 5.42985621e+04  1.58924583e+03 -3.17995200e-02  5.65595637e-01],311,993.9232730816649
343,343,[ 5.42985621e+04  1.58924583e+03 -3.17995200e-02  5.65595637e-01],578,989.2395203247693
344,344,[ 5.42985621e+04  1.58924583e+03 -3.17995200e-02  5.65595637e-01],712,992.3547223797111
345,345,[ 5.42985621e+04  1.58924583e+03 -3.17995200e-02  5.65595637e-01],395,990.6119338413199
346,346,[ 5.42985621e+04  1.58924583e+03 -3.17995200e-02  5.65595637e-01],174,977.6399338570614
347,347,[ 5.42985621e+04  1.58924583e+03 -3.17995200e-02  5.65595637e-01],511,991.1883377746211
348,348,[ 5.42985621e+04  1.58924583e+03 -3.17995200e-02  5.65595637e-01],212,993.5073906995519
349,349,[ 5.42985621e+04  1.58924583e+03 -3.17995200e-02  5.65595637e-01],549,988.8911760231609
350,350,[ 5.42985621e+04  1.58924583e+03 -3.17995200e-02  5.65595637e-01],820,982.1220739389767
351,351,[ 5.42985621e+04  1.58924583e+03 -3.17995200e-02  5.65595637e-01],609,974.2586849103327
352,352,[ 5.42985621e+04  1.58924583e+03 -3.17995200e-02  5.65595637e-01],179,966.9831620003614
353,353,[ 5.42985621e+04  1.58924583e+03 -3.17995200e-02  5.65595637e-01],837,964.1034504930778
354,354,[ 5.42985621e+04  1.58924583e+03 -3.17995200e-02  5.65595637e-01],215,993.251557844575
355,355,[ 5.42985621e+04  1.58924583e+03 -3.17995200e-02  5.65595637e-01],839,983.5820430739199
356,356,[ 5.42985621e+04  1.58924583e+03 -3.17995200e-02  5.65595637e-01],810,993.2045838452681
357,357,[ 5.42985621e+04  1.58924583e+03 -3.17995200e-02  5.65595637e-01],613,987.5679531439524
358,358,[ 5.42985621e+04  1.58924583e+03 -3.17995200e-02  5.65595637e-01],558,991.4095069316301
359,359,[ 5.42985621e+04  1.58924583e+03 -3.17995200e-02  5.65595637e-01],360,996.7675280436334
360,360,[ 5.42985621e+04  1.58924583e+03 -3.17995200e-02  5.65595637e-01],607,989.6102574281803
361,361,[ 5.42985621e+04  1.58924583e+03 -3.17995200e-02  5.65595637e-01],333,983.8333412159265
362,362,[ 5.42985621e+04  1.58924583e+03 -3.17995200e-02  5.65595637e-01],909,981.5455133206087
363,363,[ 5.42985621e+04  1.58924583e+03 -3.17995200e-02  5.65595637e-01],17,988.4218310280135
364,364,[ 5.42985621e+04  1.58924583e+03 -3.17995200e-02  5.65595637e-01],636,994.2991222090144
365,365,[ 5.42985621e+04  1.58924583e+03 -3.17995200e-02  5.65595637e-01],743,977.34325641703
366,366,[ 5.42985621e+04  1.58924583e+03 -3.17995200e-02  5.65595637e-01],698,991.1607711804455
367,367,[ 5.42985621e+04  1.58924583e+03 -3.17995200e-02  5.65595637e-01],488,981.8057521297787
368,368,[ 5.42985621e+04  1.58924583e+03 -3.17995200e-02  5.65595637e-01],997,985.2105910207338
369,369,[ 5.42985621e+04  1.58924583e+03 -3.17995200e-02  5.65595637e-01],230,990.4419890930382
370,370,[ 5.42985621e+04  1.58924583e+03 -3.17995200e-02  5.65595637e-01],462,995.1855792918197
371,371,[ 5.42985621e+04  1.58924583e+03 -3.17995200e-02  5.65595637e-01],711,995.1610821399134
372,372,[ 5.42985621e+04  1.58924583e+03 -3.17995200e-02  5.65595637e-01],269,984.4503327454195
373,373,[ 5.42985621e+04  1.58924583e+03 -3.17995200e-02  5.65595637e-01],547,957.4893737313165
374,374,[ 5.42985621e+04  1.58924583e+03 -3.17995200e-02  5.65595637e-01],471,990.5651080555806
375,375,[ 5.42985621e+04  1.58924583e+03 -3.17995200e-02  5.65595637e-01],454,994.5386810134386
376,376,[ 5.42985621e+04  1.58924583e+03 -3.17995200e-02  5.65595637e-01],949,989.9842354931436
377,377,[ 5.42985621e+04  1.58924583e+03 -3.17995200e-02  5.65595637e-01],902,981.950554206527
378,378,[ 5.42985621e+04  1.58924583e+03 -3.17995200e-02  5.65595637e-01],854,972.0073558560597
379,379,[ 5.42985621e+04  1.58924583e+03 -3.17995200e-02  5.65595637e-01],496,981.1352399597017
380,380,[ 5.42985621e+04  1.58924583e+03 -3.17995200e-02  5.65595637e-01],343,983.8494216667235
381,381,[ 5.42985621e+04  1.58924583e+03 -3.17995200e-02  5.65595637e-01],892,979.0781811801654
382,382,[ 5.42985621e+04  1.58924583e+03 -3.17995200e-02  5.65595637e-01],137,978.5001737418986
383,383,[ 5.42985621e+04  1.58924583e+03 -3.17995200e-02  5.65595637e-01],472,980.9917143682088
384,384,[ 5.42985621e+04  1.58924583e+03 -3.17995200e-02  5.65595637e-01],599,992.324781026974
385,385,[ 5.42985621e+04  1.58924583e+03 -3.17995200e-02  5.65595637e-01],191,986.7078694760801
386,386,[ 5.42985621e+04  1.58924583e+03 -3.17995200e-02  5.65595637e-01],533,977.7926137748964
387,387,[ 5.42985621e+04  1.58924583e+03 -3.17995200e-02  5.65595637e-01],36,983.620792581411
388,388,[ 5.42985621e+04  1.58924583e+03 -3.17995200e-02  5.65595637e-01],710,955.4198687597991
389,389,[ 5.42985621e+04  1.58924583e+03 -3.17995200e-02  5.65595637e-01],939,981.5655219489583
390,390,[ 5.42985621e+04  1.58924583e+03 -3.17995200e-02  5.65595637e-01],425,990.6231956844928
391,391,[ 5.42985621e+04  1.58924583e+03 -3.17995200e-02  5.65595637e-01],238,986.0358936055723
392,392,[ 5.42985621e+04  1.58924583e+03 -3.17995200e-02  5.65595637e-01],716,986.2233603137119
393,393,[ 5.42985621e+04  1.58924583e+03 -3.17995200e-02  5.65595637e-01],132,987.9124008745218
394,394,[ 5.42985621e+04  1.58924583e+03 -3.17995200e-02  5.65595637e-01],651,986.6569187012437
395,395,[ 5.42985621e+04  1.58924583e+03 -3.17995200e-02  5.65595637e-01],221,989.8153242056992
396,396,[ 5.42985621e+04  1.58924583e+03 -3.17995200e-02  5.65595637e-01],968,974.5839342070677
397,397,[ 5.42985621e+04  1.58924583e+03 -3.17995200e-02  5.65595637e-01],349,992.4371875333435
398,398,[ 5.42985621e+04  1.58924583e+03 -3.17995200e-02  5.65595637e-01],334,990.7751273354439
399,399,[ 5.42985621e+04  1.58924583e+03 -3.17995200e-02  5.65595637e-01],788,986.0849097943491
400,400,[ 5.42985621e+04  1.58924583e+03 -3.17995200e-02  5.65595637e-01],277,988.2877650034378
401,401,[ 5.42985621e+04  1.58924583e+03 -3.17995200e-02  5.65595637e-01],729,988.6452783610698
402,402,[ 5.42985621e+04  1.58924583e+03 -3.17995200e-02  5.65595637e-01],289,984.3337351195854
403,403,[ 5.42985621e+04  1.58924583e+03 -3.17995200e-02  5.65595637e-01],1004,983.8145001037474
404,404,[ 5.42985621e+04  1.58924583e+03 -3.17995200e-02  5.65595637e-01],834,972.7118120681868
405,405,[ 5.42985621e+04  1.58924583e+03 -3.17995200e-02  5.65595637e-01],555,982.0219731854501
406,406,[ 5.42985621e+04  1.58924583e+03 -3.17995200e-02  5.65595637e-01],76,994.5162175503499
407,407,[ 5.42985621e+04  1.58924583e+03 -3.17995200e-02  5.65595637e-01],401,971.5471909364531
408,408,[ 5.42985621e+04  1.58924583e+03 -3.17995200e-02  5.65595637e-01],865,991.98334953131
409,409,[ 5.42985621e+04  1.58924583e+03 -3.17995200e-02  5.65595637e-01],920,994.6473451693356
410,410,[ 5.42985621e+04  1.58924583e+03 -3.17995200e-02  5.65595637e-01],146,994.1996212725725
411,411,[ 5.42985621e+04  1.58924583e+03 -3.17995200e-02  5.65595637e-01],266,975.194699358803
412,412,[ 5.42985621e+04  1.58924583e+03 -3.17995200e-02  5.65595637e-01],801,985.8483749433805
413,413,[ 5.42985621e+04  1.58924583e+03 -3.17995200e-02  5.65595637e-01],160,995.5247387160784
414,414,[ 5.42985621e+04  1.58924583e+03 -3.17995200e-02  5.65595637e-01],640,986.2583200838899
415,415,[ 5.42985621e+04  1.58924583e+03 -3.17995200e-02  5.65595637e-01],225,975.9236201289614
416,416,[ 5.42985621e+04  1.58924583e+03 -3.17995200e-02  5.65595637e-01],193,992.8367971251574
417,417,[ 5.42985621e+04  1.58924583e+03 -3.17995200e-02  5.65595637e-01],292,990.4111961207673
418,418,[ 5.42985621e+04  1.58924583e+03 -3.17995200e-02  5.65595637e-01],363,991.301721010031
419,419,[ 5.42985621e+04  1.58924583e+03 -3.17995200e-02  5.65595637e-01],800,994.9589462183758
420,420,[ 5.42985621e+04  1.58924583e+03 -3.17995200e-02  5.65595637e-01],450,986.0591426298091
421,421,[ 5.42985621e+04  1.58924583e+03 -3.17995200e-02  5.65595637e-01],328,981.4617917739188
422,422,[ 5.42985621e+04  1.58924583e+03 -3.17995200e-02  5.65595637e-01],940,992.4896660656161
423,423,[ 5.42985621e+04  1.58924583e+03 -3.17995200e-02  5.65595637e-01],42,984.3804764238745
424,424,[ 5.42985621e+04  1.58924583e+03 -3.17995200e-02  5.65595637e-01],692,980.4773861114156
425,425,[ 5.42985621e+04  1.58924583e+03 -3.17995200e-02  5.65595637e-01],696,989.0735225873083
426,426,[ 5.42985621e+04  1.58924583e+03 -3.17995200e-02  5.65595637e-01],569,981.0466461584803
427,427,[ 5.42985621e+04  1.58924583e+03 -3.17995200e-02  5.65595637e-01],400,990.2751226406098
428,428,[ 5.42985621e+04  1.58924583e+03 -3.17995200e-02  5.65595637e-01],43,982.875014823935
429,429,[ 5.42985621e+04  1.58924583e+03 -3.17995200e-02  5.65595637e-01],957,959.8663943988923
430,430,[ 5.42985621e+04  1.58924583e+03 -3.17995200e-02  5.65595637e-01],614,997.2985858194949
431,431,[ 5.42985621e+04  1.58924583e+03 -3.17995200e-02  5.65595637e-01],942,994.5878162399408
432,432,[ 5.42985621e+04  1.58924583e+03 -3.17995200e-02  5.65595637e-01],66,954.8388061864846
433,433,[ 5.42985621e+04  1.58924583e+03 -3.17995200e-02  5.65595637e-01],631,981.2040848362886
434,434,[ 5.42985621e+04  1.58924583e+03 -3.17995200e-02  5.65595637e-01],946,981.2857462159037
435,435,[ 5.42985621e+04  1.58924583e+03 -3.17995200e-02  5.65595637e-01],753,986.9680718142829
436,436,[ 5.42985621e+04  1.58924583e+03 -3.17995200e-02  5.65595637e-01],143,991.3795855898599
437,437,[ 5.42985621e+04  1.58924583e+03 -3.17995200e-02  5.65595637e-01],679,983.0854846383033
438,438,[ 5.42985621e+04  1.58924583e+03 -3.17995200e-02  5.65595637e-01],829,993.1240648888088
439,439,[ 5.42985621e+04  1.58924583e+03 -3.17995200e-02  5.65595637e-01],571,994.262558376161
440,440,[ 5.42985621e+04  1.58924583e+03 -3.17995200e-02  5.65595637e-01],195,991.9599195721861
441,441,[ 5.42985621e+04  1.58924583e+03 -3.17995200e-02  5.65595637e-01],935,991.3359878821033
442,442,[ 5.42985621e+04  1.58924583e+03 -3.17995200e-02  5.65595637e-01],196,967.9350300199088
443,443,[ 5.42985621e+04  1.58924583e+03 -3.17995200e-02  5.65595637e-01],847,985.9659082609179
444,444,[ 5.42985621e+04  1.58924583e+03 -3.17995200e-02  5.65595637e-01],863,941.8948333550919
445,445,[ 5.42985621e+04  1.58924583e+03 -3.17995200e-02  5.65595637e-01],975,987.4030979662309
446,446,[ 5.42985621e+04  1.58924583e+03 -3.17995200e-02  5.65595637e-01],140,987.5615627469657
447,447,[ 5.42985621e+04  1.58924583e+03 -3.17995200e-02  5.65595637e-01],393,985.3476959061975
448,448,[ 5.42985621e+04  1.58924583e+03 -3.17995200e-02  5.65595637e-01],136,968.2043649644099
449,449,[ 5.42985621e+04  1.58924583e+03 -3.17995200e-02  5.65595637e-01],579,993.6385892737453
450,450,[ 5.42985621e+04  1.58924583e+03 -3.17995200e-02  5.65595637e-01],635,988.4009817938448
451,451,[ 5.42985621e+04  1.58924583e+03 -3.17995200e-02  5.65595637e-01],276,990.6262266131721
452,452,[ 5.42985621e+04  1.58924583e+03 -3.17995200e-02  5.65595637e-01],797,980.240293651726
453,453,[ 5.42985621e+04  1.58924583e+03 -3.17995200e-02  5.65595637e-01],112,992.7550712469066
454,454,[ 5.42985621e+04  1.58924583e+03 -3.17995200e-02  5.65595637e-01],288,989.345602524123
455,455,[ 5.42985621e+04  1.58924583e+03 -3.17995200e-02  5.65595637e-01],497,984.5214527110058
456,456,[ 5.42985621e+04  1.58924583e+03 -3.17995200e-02  5.65595637e-01],996,986.484458065402
457,457,[ 5.42985621e+04  1.58924583e+03 -3.17995200e-02  5.65595637e-01],995,994.074178662492
458,458,[ 5.42985621e+04  1.58924583e+03 -3.17995200e-02  5.65595637e-01],357,994.4650625675199
459,459,[ 5.42985621e+04  1.58924583e+03 -3.17995200e-02  5.65595637e-01],446,991.5194886469759
460,460,[ 5.42985621e+04  1.58924583e+03 -3.17995200e-02  5.65595637e-01],162,990.8828715487967
461,461,[ 5.42985621e+04  1.58924583e+03 -3.17995200e-02  5.65595637e-01],151,990.6820522944009
462,462,[ 5.42985621e+04  1.58924583e+03 -3.17995200e-02  5.65595637e-01],691,989.4122043816137
463,463,[ 5.42985621e+04  1.58924583e+03 -3.17995200e-02  5.65595637e-01],840,966.3393547163088
464,464,[ 5.42985621e+04  1.58924583e+03 -3.17995200e-02  5.65595637e-01],814,977.5061349060862
465,465,[ 5.42985621e+04  1.58924583e+03 -3.17995200e-02  5.65595637e-01],283,994.7876574882876
466,466,[ 5.42985621e+04  1.58924583e+03 -3.17995200e-02  5.65595637e-01],522,997.0878889609537
467,467,[ 5.42985621e+04  1.58924583e+03 -3.17995200e-02  5.65595637e-01],984,975.213202475622
468,468,[ 5.42985621e+04  1.58924583e+03 -3.17995200e-02  5.65595637e-01],445,993.6672881718858
469,469,[ 5.42985621e+04  1.58924583e+03 -3.17995200e-02  5.65595637e-01],730,984.3840380301019
470,470,[ 5.42985621e+04  1.58924583e+03 -3.17995200e-02  5.65595637e-01],302,985.1184085951057
471,471,[ 5.42985621e+04  1.58924583e+03 -3.17995200e-02  5.65595637e-01],738,989.3467826515629
472,472,[ 5.42985621e+04  1.58924583e+03 -3.17995200e-02  5.65595637e-01],977,989.2146414220181
473,473,[ 5.42985621e+04  1.58924583e+03 -3.17995200e-02  5.65595637e-01],554,969.5327401544852
474,474,[ 5.42985621e+04  1.58924583e+03 -3.17995200e-02  5.65595637e-01],713,994.9121319113394
475,475,[ 5.42985621e+04  1.58924583e+03 -3.17995200e-02  5.65595637e-01],537,973.9014241777869
476,476,[ 5.42985621e+04  1.58924583e+03 -3.17995200e-02  5.65595637e-01],338,974.3781772499432
477,477,[ 5.42985621e+04  1.58924583e+03 -3.17995200e-02  5.65595637e-01],674,982.437064490231
478,478,[ 5.42985621e+04  1.58924583e+03 -3.17995200e-02  5.65595637e-01],16,980.0594447269224
479,479,[ 5.42985621e+04  1.58924583e+03 -3.17995200e-02  5.65595637e-01],284,994.8234131796004
480,480,[ 5.42985621e+04  1.58924583e+03 -3.17995200e-02  5.65595637e-01],781,994.2381911222236
481,481,[ 5.42985621e+04  1.58924583e+03 -3.17995200e-02  5.65595637e-01],751,984.5395115378805
482,482,[ 5.42985621e+04  1.58924583e+03 -3.17995200e-02  5.65595637e-01],645,991.0444836661517
483,483,[ 5.42985621e+04  1.58924583e+03 -3.17995200e-02  5.65595637e-01],1011,959.9619075696646
484,484,[ 5.42985621e+04  1.58924583e+03 -3.17995200e-02  5.65595637e-01],890,982.0041554364134
485,485,[ 5.42985621e+04  1.58924583e+03 -3.17995200e-02  5.65595637e-01],596,996.2160742252788
486,486,[ 5.42985621e+04  1.58924583e+03 -3.17995200e-02  5.65595637e-01],823,971.9594948459653
487,487,[ 5.42985621e+04  1.58924583e+03 -3.17995200e-02  5.65595637e-01],244,981.1163222069629
488,488,[ 5.42985621e+04  1.58924583e+03 -3.17995200e-02  5.65595637e-01],638,989.4589922844862
489,489,[ 5.42985621e+04  1.58924583e+03 -3.17995200e-02  5.65595637e-01],313,990.9958531099579
490,490,[ 5.42985621e+04  1.58924583e+03 -3.17995200e-02  5.65595637e-01],629,984.6553786671611
491,491,[ 5.42985621e+04  1.58924583e+03 -3.17995200e-02  5.65595637e-01],435,982.2520291932855
492,492,[ 5.42985621e+04  1.58924583e+03 -3.17995200e-02  5.65595637e-01],255,969.1046222930883
493,493,[ 5.42985621e+04  1.58924583e+03 -3.17995200e-02  5.65595637e-01],1012,986.661843814154
494,494,[ 5.42985621e+04  1.58924583e+03 -3.17995200e-02  5.65595637e-01],958,984.6473156074645
495,495,[ 5.42985621e+04  1.58924583e+03 -3.17995200e-02  5.65595637e-01],93,985.8502960823598
496,496,[ 5.42985621e+04  1.58924583e+03 -3.17995200e-02  5.65595637e-01],663,989.2542285073022
497,497,[ 5.42985621e+04  1.58924583e+03 -3.17995200e-02  5.65595637e-01],507,987.6902336239225
498,498,[ 5.42985621e+04  1.58924583e+03 -3.17995200e-02  5.65595637e-01],524,980.6710242697757
499,499,[ 5.42985621e+04  1.58924583e+03 -3.17995200e-02  5.65595637e-01],735,965.65584518193
500,500,[ 5.42985621e+04  1.58924583e+03 -3.17995200e-02  5.65595637e-01],305,989.9616522311322
501,501,[ 5.42985621e+04  1.58924583e+03 -3.17995200e-02  5.65595637e-01],868,994.5799254700555
502,502,[ 5.42985621e+04  1.58924583e+03 -3.17995200e-02  5.65595637e-01],219,991.7185315118962
503,503,[ 5.42985621e+04  1.58924583e+03 -3.17995200e-02  5.65595637e-01],956,990.4380168748975
504,504,[ 5.42985621e+04  1.58924583e+03 -3.17995200e-02  5.65595637e-01],858,966.6606026529942
505,505,[ 5.42985621e+04  1.58924583e+03 -3.17995200e-02  5.65595637e-01],385,969.523676102566
506,506,[ 5.42985621e+04  1.58924583e+03 -3.17995200e-02  5.65595637e-01],657,992.783468782136
507,507,[ 5.42985621e+04  1.58924583e+03 -3.17995200e-02  5.65595637e-01],493,986.8023250066899
508,508,[ 5.42985621e+04  1.58924583e+03 -3.17995200e-02  5.65595637e-01],394,981.9010870303866
509,509,[ 5.42985621e+04  1.58924583e+03 -3.17995200e-02  5.65595637e-01],14,983.2923438357947
510,510,[ 5.42985621e+04  1.58924583e+03 -3.17995200e-02  5.65595637e-01],927,984.6134611798907
511,511,[ 5.42985621e+04  1.58924583e+03 -3.17995200e-02  5.65595637e-01],748,989.7661060008518
512,512,[ 5.42985621e+04  1.58924583e+03 -3.17995200e-02  5.65595637e-01],181,978.8776183316272
513,513,[ 5.42985621e+04  1.58924583e+03 -3.17995200e-02  5.65595637e-01],134,992.4902438296215
514,514,[ 5.42985621e+04  1.58924583e+03 -3.17995200e-02  5.65595637e-01],661,995.70706719953
515,515,[ 5.42985621e+04  1.58924583e+03 -3.17995200e-02  5.65595637e-01],456,996.14995404748
516,516,[ 5.42985621e+04  1.58924583e+03 -3.17995200e-02  5.65595637e-01],190,945.2829415454186
517,517,[ 5.42985621e+04  1.58924583e+03 -3.17995200e-02  5.65595637e-01],728,961.2034531269674
518,518,[ 5.42985621e+04  1.58924583e+03 -3.17995200e-02  5.65595637e-01],905,990.8058261989452
519,519,[ 5.42985621e+04  1.58924583e+03 -3.17995200e-02  5.65595637e-01],414,993.8669787309699
520,520,[ 5.42985621e+04  1.58924583e+03 -3.17995200e-02  5.65595637e-01],392,991.2587742471693
521,521,[ 5.42985621e+04  1.58924583e+03 -3.17995200e-02  5.65595637e-01],227,982.4018603058012
522,522,[ 5.42985621e+04  1.58924583e+03 -3.17995200e-02  5.65595637e-01],700,987.4942150628893
523,523,[ 5.42985621e+04  1.58924583e+03 -3.17995200e-02  5.65595637e-01],399,984.8682377866214
524,524,[ 5.42985621e+04  1.58924583e+03 -3.17995200e-02  5.65595637e-01],420,986.7848419804162
525,525,[ 5.42985621e+04  1.58924583e+03 -3.17995200e-02  5.65595637e-01],944,992.5066738261149
526,526,[ 5.42985621e+04  1.58924583e+03 -3.17995200e-02  5.65595637e-01],391,994.9427146170951
527,527,[ 5.42985621e+04  1.58924583e+03 -3.17995200e-02  5.65595637e-01],634,990.9784861645529
528,528,[ 5.42985621e+04  1.58924583e+03 -3.17995200e-02  5.65595637e-01],85,983.9024883549466
529,529,[ 5.42985621e+04  1.58924583e+03 -3.17995200e-02  5.65595637e-01],443,994.4254202051806
530,530,[ 5.42985621e+04  1.58924583e+03 -3.17995200e-02  5.65595637e-01],158,976.8927603833442
531,531,[ 5.42985621e+04  1.58924583e+03 -3.17995200e-02  5.65595637e-01],544,993.7347284522906
532,532,[ 5.42985621e+04  1.58924583e+03 -3.17995200e-02  5.65595637e-01],535,996.1699863040309
533,533,[ 5.42985621e+04  1.58924583e+03 -3.17995200e-02  5.65595637e-01],495,989.0948775207513
534,534,[ 5.42985621e+04  1.58924583e+03 -3.17995200e-02  5.65595637e-01],412,995.5944346815381
535,535,[ 5.42985621e+04  1.58924583e+03 -3.17995200e-02  5.65595637e-01],126,985.8549240856024
536,536,[ 5.42985621e+04  1.58924583e+03 -3.17995200e-02  5.65595637e-01],116,994.2149294389479
537,537,[ 5.42985621e+04  1.58924583e+03 -3.17995200e-02  5.65595637e-01],891,987.269095357988
538,538,[ 5.42985621e+04  1.58924583e+03 -3.17995200e-02  5.65595637e-01],552,993.8619992793754
539,539,[ 5.42985621e+04  1.58924583e+03 -3.17995200e-02  5.65595637e-01],113,992.7907579939402
540,540,[ 5.42985621e+04  1.58924583e+03 -3.17995200e-02  5.65595637e-01],779,955.2673986543078
541,541,[ 5.42985621e+04  1.58924583e+03 -3.17995200e-02  5.65595637e-01],287,970.3256057230935
542,542,[ 5.42985621e+04  1.58924583e+03 -3.17995200e-02  5.65595637e-01],831,984.2626430365592
543,543,[ 5.42985621e+04  1.58924583e+03 -3.17995200e-02  5.65595637e-01],152,994.5642007506566
544,544,[ 5.42985621e+04  1.58924583e+03 -3.17995200e-02  5.65595637e-01],790,985.886835227076
545,545,[ 5.42985621e+04  1.58924583e+03 -3.17995200e-02  5.65595637e-01],0,978.5625584938056
546,546,[ 5.42985621e+04  1.58924583e+03 -3.17995200e-02  5.65595637e-01],792,983.3724087815197
547,547,[ 5.42985621e+04  1.58924583e+03 -3.17995200e-02  5.65595637e-01],799,989.3722480435727
548,548,[ 5.42985621e+04  1.58924583e+03 -3.17995200e-02  5.65595637e-01],682,993.2303156232023
549,549,[ 5.42985621e+04  1.58924583e+03 -3.17995200e-02  5.65595637e-01],447,989.714918457131
550,550,[ 5.42985621e+04  1.58924583e+03 -3.17995200e-02  5.65595637e-01],124,992.5093729251657
551,551,[ 5.42985621e+04  1.58924583e+03 -3.17995200e-02  5.65595637e-01],40,994.0745511597848
552,552,[ 5.42985621e+04  1.58924583e+03 -3.17995200e-02  5.65595637e-01],693,985.734954858854
553,553,[ 5.42985621e+04  1.58924583e+03 -3.17995200e-02  5.65595637e-01],757,983.7903312452048
554,554,[ 5.42985621e+04  1.58924583e+03 -3.17995200e-02  5.65595637e-01],688,987.3406069524151
555,555,[ 5.42985621e+04  1.58924583e+03 -3.17995200e-02  5.65595637e-01],30,988.6634561008249
556,556,[ 5.42985621e+04  1.58924583e+03 -3.17995200e-02  5.65595637e-01],563,995.644131474918
557,557,[ 5.42985621e+04  1.58924583e+03 -3.17995200e-02  5.65595637e-01],117,995.9569290273326
558,558,[ 5.42985621e+04  1.58924583e+03 -3.17995200e-02  5.65595637e-01],1003,989.6164622525583
559,559,[ 5.42985621e+04  1.58924583e+03 -3.17995200e-02  5.65595637e-01],368,991.5211396646187
560,560,[ 5.42985621e+04  1.58924583e+03 -3.17995200e-02  5.65595637e-01],176,996.5743691747257
561,561,[ 5.42985621e+04  1.58924583e+03 -3.17995200e-02  5.65595637e-01],986,992.0805539510847
562,562,[ 5.42985621e+04  1.58924583e+03 -3.17995200e-02  5.65595637e-01],470,963.1180994856132
563,563,[ 5.42985621e+04  1.58924583e+03 -3.17995200e-02  5.65595637e-01],233,985.2351225351306
564,564,[ 5.42985621e+04  1.58924583e+03 -3.17995200e-02  5.65595637e-01],590,990.7662704229901
565,565,[ 5.42985621e+04  1.58924583e+03 -3.17995200e-02  5.65595637e-01],131,993.113469863953
566,566,[ 5.42985621e+04  1.58924583e+03 -3.17995200e-02  5.65595637e-01],824,995.9762257855169
567,567,[ 5.42985621e+04  1.58924583e+03 -3.17995200e-02  5.65595637e-01],966,990.4223291406691
568,568,[ 5.42985621e+04  1.58924583e+03 -3.17995200e-02  5.65595637e-01],705,976.8315383884868
569,569,[ 5.42985621e+04  1.58924583e+03 -3.17995200e-02  5.65595637e-01],100,988.3139524693395
570,570,[ 5.42985621e+04  1.58924583e+03 -3.17995200e-02  5.65595637e-01],114,984.4120380111339
571,571,[ 5.42985621e+04  1.58924583e+03 -3.17995200e-02  5.65595637e-01],719,988.0309637371307
572,572,[ 5.42985621e+04  1.58924583e+03 -3.17995200e-02  5.65595637e-01],37,965.162129400086
573,573,[ 5.42985621e+04  1.58924583e+03 -3.17995200e-02  5.65595637e-01],584,964.7801708569631
574,574,[ 5.42985621e+04  1.58924583e+03 -3.17995200e-02  5.65595637e-01],947,969.526764431673
575,575,[ 5.42985621e+04  1.58924583e+03 -3.17995200e-02  5.65595637e-01],523,983.5354997009275
576,576,[ 5.42985621e+04  1.58924583e+03 -3.17995200e-02  5.65595637e-01],878,977.3585240989073
577,577,[ 5.42985621e+04  1.58924583e+03 -3.17995200e-02  5.65595637e-01],182,990.8522154173904
578,578,[ 5.42985621e+04  1.58924583e+03 -3.17995200e-02  5.65595637e-01],683,989.8222952018674
579,579,[ 5.42985621e+04  1.58924583e+03 -3.17995200e-02  5.65595637e-01],25,987.838422448411
580,580,[ 5.42985621e+04  1.58924583e+03 -3.17995200e-02  5.65595637e-01],122,993.2977238804816
581,581,[ 5.42985621e+04  1.58924583e+03 -3.17995200e-02  5.65595637e-01],91,995.6502377554395
582,582,[ 5.42985621e+04  1.58924583e+03 -3.17995200e-02  5.65595637e-01],322,990.9429136673751
583,583,[ 5.42985621e+04  1.58924583e+03 -3.17995200e-02  5.65595637e-01],1017,994.0663442775294
584,584,[ 5.42985621e+04  1.58924583e+03 -3.17995200e-02  5.65595637e-01],610,984.8810153221183
585,585,[ 5.42985621e+04  1.58924583e+03 -3.17995200e-02  5.65595637e-01],490,982.0928091555398
586,586,[ 5.42985621e+04  1.58924583e+03 -3.17995200e-02  5.65595637e-01],494,993.4683434979556
587,587,[ 5.42985621e+04  1.58924583e+03 -3.17995200e-02  5.65595637e-01],893,991.7606262944732
588,588,[ 5.42985621e+04  1.58924583e+03 -3.17995200e-02  5.65595637e-01],510,994.3318946068347
589,589,[ 5.42985621e+04  1.58924583e+03 -3.17995200e-02  5.65595637e-01],120,992.3762406872387
590,590,[ 5.42985621e+04  1.58924583e+03 -3.17995200e-02  5.65595637e-01],265,985.0961399379441
591,591,[ 5.42985621e+04  1.58924583e+03 -3.17995200e-02  5.65595637e-01],783,974.2663475195029
592,592,[ 5.42985621e+04  1.58924583e+03 -3.17995200e-02  5.65595637e-01],156,989.9167712780913
593,593,[ 5.42985621e+04  1.58924583e+03 -3.17995200e-02  5.65595637e-01],481,991.8926049486404
594,594,[ 5.42985621e+04  1.58924583e+03 -3.17995200e-02  5.65595637e-01],455,992.6803786727176
595,595,[ 5.42985621e+04  1.58924583e+03 -3.17995200e-02  5.65595637e-01],39,977.253258911439
596,596,[ 5.42985621e+04  1.58924583e+03 -3.17995200e-02  5.65595637e-01],189,987.158842170164
597,597,[ 5.42985621e+04  1.58924583e+03 -3.17995200e-02  5.65595637e-01],880,967.6150545232032
598,598,[ 5.42985621e+04  1.58924583e+03 -3.17995200e-02  5.65595637e-01],147,984.1236671133014
599,599,[ 5.42985621e+04  1.58924583e+03 -3.17995200e-02  5.65595637e-01],372,989.2058203201359
600,600,[ 5.42985621e+04  1.58924583e+03 -3.17995200e-02  5.65595637e-01],622,993.4678062628888
601,601,[ 5.42985621e+04  1.58924583e+03 -3.17995200e-02  5.65595637e-01],601,984.4272332293601
602,602,[ 5.42985621e+04  1.58924583e+03 -3.17995200e-02  5.65595637e-01],570,979.8176156201725
603,603,[ 5.42985621e+04  1.58924583e+03 -3.17995200e-02  5.65595637e-01],469,990.5586243644251
604,604,[ 5.42985621e+04  1.58924583e+03 -3.17995200e-02  5.65595637e-01],423,992.9456342549696
605,605,[ 5.42985621e+04  1.58924583e+03 -3.17995200e-02  5.65595637e-01],180,995.9481620891188
606,606,[ 5.42985621e+04  1.58924583e+03 -3.17995200e-02  5.65595637e-01],772,961.5419380167209
607,607,[ 5.42985621e+04  1.58924583e+03 -3.17995200e-02  5.65595637e-01],402,989.593205174856
608,608,[ 5.42985621e+04  1.58924583e+03 -3.17995200e-02  5.65595637e-01],876,990.2936530752701
609,609,[ 5.42985621e+04  1.58924583e+03 -3.17995200e-02  5.65595637e-01],542,989.6596466487473
610,610,[ 5.42985621e+04  1.58924583e+03 -3.17995200e-02  5.65595637e-01],982,984.6659444669185
611,611,[ 5.42985621e+04  1.58924583e+03 -3.17995200e-02  5.65595637e-01],240,995.8442168045095
612,612,[ 5.42985621e+04  1.58924583e+03 -3.17995200e-02  5.65595637e-01],598,980.4943308251499
613,613,[ 5.42985621e+04  1.58924583e+03 -3.17995200e-02  5.65595637e-01],248,989.6198747554013
614,614,[ 5.42985621e+04  1.58924583e+03 -3.17995200e-02  5.65595637e-01],850,988.2690038083391
615,615,[ 5.42985621e+04  1.58924583e+03 -3.17995200e-02  5.65595637e-01],330,993.2356082819495
616,616,[ 5.42985621e+04  1.58924583e+03 -3.17995200e-02  5.65595637e-01],337,963.7539799763736
617,617,[ 5.42985621e+04  1.58924583e+03 -3.17995200e-02  5.65595637e-01],733,982.0460474795184
618,618,[ 5.42985621e+04  1.58924583e+03 -3.17995200e-02  5.65595637e-01],872,983.9019682391133
619,619,[ 5.42985621e+04  1.58924583e+03 -3.17995200e-02  5.65595637e-01],528,982.3193421361102
620,620,[ 5.42985621e+04  1.58924583e+03 -3.17995200e-02  5.65595637e-01],618,969.3301481703712
621,621,[ 5.42985621e+04  1.58924583e+03 -3.17995200e-02  5.65595637e-01],794,993.868225341607
622,622,[ 5.42985621e+04  1.58924583e+03 -3.17995200e-02  5.65595637e-01],873,984.4341903719726
623,623,[ 5.42985621e+04  1.58924583e+03 -3.17995200e-02  5.65595637e-01],765,975.379423931949
624,624,[ 5.42985621e+04  1.58924583e+03 -3.17995200e-02  5.65595637e-01],380,994.4942050832101
625,625,[ 5.42985621e+04  1.58924583e+03 -3.17995200e-02  5.65595637e-01],186,990.6518450866305
626,626,[ 5.42985621e+04  1.58924583e+03 -3.17995200e-02  5.65595637e-01],361,992.5749976476708
627,627,[ 5.42985621e+04  1.58924583e+03 -3.17995200e-02  5.65595637e-01],403,974.9474285432575
628,628,[ 5.42985621e+04  1.58924583e+03 -3.17995200e-02  5.65595637e-01],324,990.4464385799884
629,629,[ 5.42985621e+04  1.58924583e+03 -3.17995200e-02  5.65595637e-01],553,987.024436680365
630,630,[ 5.42985621e+04  1.58924583e+03 -3.17995200e-02  5.65595637e-01],282,992.7216811500962
631,631,[ 5.42985621e+04  1.58924583e+03 -3.17995200e-02  5.65595637e-01],312,988.1998621943713
632,632,[ 5.42985621e+04  1.58924583e+03 -3.17995200e-02  5.65595637e-01],243,993.5724496331193
633,633,[ 5.42985621e+04  1.58924583e+03 -3.17995200e-02  5.65595637e-01],899,993.2355561973699
634,634,[ 5.42985621e+04  1.58924583e+03 -3.17995200e-02  5.65595637e-01],387,986.0056161926759
635,635,[ 5.42985621e+04  1.58924583e+03 -3.17995200e-02  5.65595637e-01],6,987.8260278727423
636,636,[ 5.42985621e+04  1.58924583e+03 -3.17995200e-02  5.65595637e-01],355,989.5601918291607
637,637,[ 5.42985621e+04  1.58924583e+03 -3.17995200e-02  5.65595637e-01],575,978.2557412724153
638,638,[ 5.42985621e+04  1.58924583e+03 -3.17995200e-02  5.65595637e-01],701,987.1186018376404
639,639,[ 5.42985621e+04  1.58924583e+03 -3.17995200e-02  5.65595637e-01],294,993.1345005193823
640,640,[ 5.42985621e+04  1.58924583e+03 -3.17995200e-02  5.65595637e-01],52,988.5256240283218
641,641,[ 5.42985621e+04  1.58924583e+03 -3.17995200e-02  5.65595637e-01],546,996.7338422215201
642,642,[ 5.42985621e+04  1.58924583e+03 -3.17995200e-02  5.65595637e-01],907,982.5732833535168
643,643,[ 5.42985621e+04  1.58924583e+03 -3.17995200e-02  5.65595637e-01],2,993.2606614114015
644,644,[ 5.42985621e+04  1.58924583e+03 -3.17995200e-02  5.65595637e-01],331,994.297342109641
645,645,[ 5.42985621e+04  1.58924583e+03 -3.17995200e-02  5.65595637e-01],509,987.1799320601629
646,646,[ 5.42985621e+04  1.58924583e+03 -3.17995200e-02  5.65595637e-01],3,981.8069499429748
647,647,[ 5.42985621e+04  1.58924583e+03 -3.17995200e-02  5.65595637e-01],684,982.0373849207285
648,648,[ 5.42985621e+04  1.58924583e+03 -3.17995200e-02  5.65595637e-01],216,975.5232558328878
649,649,[ 5.42985621e+04  1.58924583e+03 -3.17995200e-02  5.65595637e-01],967,994.837345658921
650,650,[ 5.42985621e+04  1.58924583e+03 -3.17995200e-02  5.65595637e-01],914,990.5625468418594
651,651,[ 5.42985621e+04  1.58924583e+03 -3.17995200e-02  5.65595637e-01],335,988.9987634069064
652,652,[ 5.42985621e+04  1.58924583e+03 -3.17995200e-02  5.65595637e-01],437,978.5933646803074
653,653,[ 5.42985621e+04  1.58924583e+03 -3.17995200e-02  5.65595637e-01],945,990.0161733194248
654,654,[ 5.42985621e+04  1.58924583e+03 -3.17995200e-02  5.65595637e-01],203,994.4787231602204
655,655,[ 5.42985621e+04  1.58924583e+03 -3.17995200e-02  5.65595637e-01],943,994.4871032122693
656,656,[ 5.42985621e+04  1.58924583e+03 -3.17995200e-02  5.65595637e-01],904,992.8113478265486
657,657,[ 5.42985621e+04  1.58924583e+03 -3.17995200e-02  5.65595637e-01],168,986.6831244446662
658,658,[ 5.42985621e+04  1.58924583e+03 -3.17995200e-02  5.65595637e-01],428,995.4568133705213
659,659,[ 5.42985621e+04  1.58924583e+03 -3.17995200e-02  5.65595637e-01],249,980.2205346502545
660,660,[ 5.42985621e+04  1.58924583e+03 -3.17995200e-02  5.65595637e-01],256,992.3488666232481
661,661,[ 5.42985621e+04  1.58924583e+03 -3.17995200e-02  5.65595637e-01],121,986.5507181534601
662,662,[ 5.42985621e+04  1.58924583e+03 -3.17995200e-02  5.65595637e-01],173,992.8485969038843
663,663,[ 5.42985621e+04  1.58924583e+03 -3.17995200e-02  5.65595637e-01],864,986.906705093988
664,664,[ 5.42985621e+04  1.58924583e+03 -3.17995200e-02  5.65595637e-01],167,992.0472533610315
665,665,[ 5.42985621e+04  1.58924583e+03 -3.17995200e-02  5.65595637e-01],642,990.377399234605
666,666,[ 5.42985621e+04  1.58924583e+03 -3.17995200e-02  5.65595637e-01],291,992.767624429523
667,667,[ 5.42985621e+04  1.58924583e+03 -3.17995200e-02  5.65595637e-01],828,995.6620416942628
668,668,[ 5.42985621e+04  1.58924583e+03 -3.17995200e-02  5.65595637e-01],477,991.4954429063538
669,669,[ 5.42985621e+04  1.58924583e+03 -3.17995200e-02  5.65595637e-01],989,963.1407858899762
670,670,[ 5.42985621e+04  1.58924583e+03 -3.17995200e-02  5.65595637e-01],521,971.3222077720711
671,671,[ 5.42985621e+04  1.58924583e+03 -3.17995200e-02  5.65595637e-01],214,977.2631059521691
672,672,[ 5.42985621e+04  1.58924583e+03 -3.17995200e-02  5.65595637e-01],926,946.5188959615394
673,673,[ 5.42985621e+04  1.58924583e+03 -3.17995200e-02  5.65595637e-01],148,969.5999965464091
674,674,[ 5.42985621e+04  1.58924583e+03 -3.17995200e-02  5.65595637e-01],299,987.233786521023
675,675,[ 5.42985621e+04  1.58924583e+03 -3.17995200e-02  5.65595637e-01],822,976.1399000911583
676,676,[ 5.42985621e+04  1.58924583e+03 -3.17995200e-02  5.65595637e-01],250,980.6998352084133
677,677,[ 5.42985621e+04  1.58924583e+03 -3.17995200e-02  5.65595637e-01],769,994.6835657201785
678,678,[ 5.42985621e+04  1.58924583e+03 -3.17995200e-02  5.65595637e-01],619,996.1161760768409
679,679,[ 5.42985621e+04  1.58924583e+03 -3.17995200e-02  5.65595637e-01],308,988.0580456639816
680,680,[ 5.42985621e+04  1.58924583e+03 -3.17995200e-02  5.65595637e-01],163,990.9837118872157
681,681,[ 5.42985621e+04  1.58924583e+03 -3.17995200e-02  5.65595637e-01],491,974.6044495437386
682,682,[ 5.42985621e+04  1.58924583e+03 -3.17995200e-02  5.65595637e-01],125,985.3678949873447
683,683,[ 5.42985621e+04  1.58924583e+03 -3.17995200e-02  5.65595637e-01],236,984.805968840592
684,684,[ 5.42985621e+04  1.58924583e+03 -3.17995200e-02  5.65595637e-01],320,983.2441881395605
685,685,[ 5.42985621e+04  1.58924583e+03 -3.17995200e-02  5.65595637e-01],350,997.0049272483515
686,686,[ 5.42985621e+04  1.58924583e+03 -3.17995200e-02  5.65595637e-01],70,992.9790013047406
687,687,[ 5.42985621e+04  1.58924583e+03 -3.17995200e-02  5.65595637e-01],38,993.626216289891
688,688,[ 5.42985621e+04  1.58924583e+03 -3.17995200e-02  5.65595637e-01],722,985.2868877126314
689,689,[ 5.42985621e+04  1.58924583e+03 -3.17995200e-02  5.65595637e-01],585,993.1177750059683
690,690,[ 5.42985621e+04  1.58924583e+03 -3.17995200e-02  5.65595637e-01],71,990.2191044894291
691,691,[ 5.42985621e+04  1.58924583e+03 -3.17995200e-02  5.65595637e-01],617,987.5509185078383
692,692,[ 5.42985621e+04  1.58924583e+03 -3.17995200e-02  5.65595637e-01],647,988.3685026339195
693,693,[ 5.42985621e+04  1.58924583e+03 -3.17995200e-02  5.65595637e-01],15,985.322524935503
694,694,[ 5.42985621e+04  1.58924583e+03 -3.17995200e-02  5.65595637e-01],90,991.7677615574814
695,695,[ 5.42985621e+04  1.58924583e+03 -3.17995200e-02  5.65595637e-01],405,976.8952643367206
696,696,[ 5.42985621e+04  1.58924583e+03 -3.17995200e-02  5.65595637e-01],754,988.3460449069294
697,697,[ 5.42985621e+04  1.58924583e+03 -3.17995200e-02  5.65595637e-01],484,994.4197538728845
698,698,[ 5.42985621e+04  1.58924583e+03 -3.17995200e-02  5.65595637e-01],377,989.5080830969013
699,699,[ 5.42985621e+04  1.58924583e+03 -3.17995200e-02  5.65595637e-01],165,972.3716094095854
700,700,[ 5.42985621e+04  1.58924583e+03 -3.17995200e-02  5.65595637e-01],1001,986.1116517541049
701,701,[ 5.42985621e+04  1.58924583e+03 -3.17995200e-02  5.65595637e-01],508,983.5211262210457
702,702,[ 5.42985621e+04  1.58924583e+03 -3.17995200e-02  5.65595637e-01],752,979.7026735529307
703,703,[ 5.42985621e+04  1.58924583e+03 -3.17995200e-02  5.65595637e-01],205,995.170909472358
704,704,[ 5.42985621e+04  1.58924583e+03 -3.17995200e-02  5.65595637e-01],646,995.4239725708048
705,705,[ 5.42985621e+04  1.58924583e+03 -3.17995200e-02  5.65595637e-01],367,984.9683919093709
706,706,[ 5.42985621e+04  1.58924583e+03 -3.17995200e-02  5.65595637e-01],758,977.1284468499034
707,707,[ 5.42985621e+04  1.58924583e+03 -3.17995200e-02  5.65595637e-01],217,970.3565073879253
708,708,[ 5.42985621e+04  1.58924583e+03 -3.17995200e-02  5.65595637e-01],306,991.9367256037333
709,709,[ 5.42985621e+04  1.58924583e+03 -3.17995200e-02  5.65595637e-01],123,991.6628959140769
710,710,[ 5.42985621e+04  1.58924583e+03 -3.17995200e-02  5.65595637e-01],271,989.088016118324
711,711,[ 5.42985621e+04  1.58924583e+03 -3.17995200e-02  5.65595637e-01],389,989.4036157132364
712,712,[ 5.42985621e+04  1.58924583e+03 -3.17995200e-02  5.65595637e-01],362,989.8188937554374
713,713,[ 5.42985621e+04  1.58924583e+03 -3.17995200e-02  5.65595637e-01],421,987.3330283753164
714,714,[ 5.42985621e+04  1.58924583e+03 -3.17995200e-02  5.65595637e-01],72,994.783925162277
715,715,[ 5.42985621e+04  1.58924583e+03 -3.17995200e-02  5.65595637e-01],209,953.9386879002784
716,716,[ 5.42985621e+04  1.58924583e+03 -3.17995200e-02  5.65595637e-01],206,989.0115631339928
717,717,[ 5.42985621e+04  1.58924583e+03 -3.17995200e-02  5.65595637e-01],74,992.6094383236203
718,718,[ 5.42985621e+04  1.58924583e+03 -3.17995200e-02  5.65595637e-01],434,994.2207488388171
719,719,[ 5.42985621e+04  1.58924583e+03 -3.17995200e-02  5.65595637e-01],930,984.8949064350608
720,720,[ 5.42985621e+04  1.58924583e+03 -3.17995200e-02  5.65595637e-01],433,992.2013173928752
721,721,[ 5.42985621e+04  1.58924583e+03 -3.17995200e-02  5.65595637e-01],118,991.6557141939269
722,722,[ 5.42985621e+04  1.58924583e+03 -3.17995200e-02  5.65595637e-01],379,982.1029402692359
723,723,[ 5.42985621e+04  1.58924583e+03 -3.17995200e-02  5.65595637e-01],963,977.0422312817776
724,724,[ 5.42985621e+04  1.58924583e+03 -3.17995200e-02  5.65595637e-01],487,958.144093215331
725,725,[ 5.42985621e+04  1.58924583e+03 -3.17995200e-02  5.65595637e-01],426,980.4368728240638
726,726,[ 5.42985621e+04  1.58924583e+03 -3.17995200e-02  5.65595637e-01],1,994.1074607977959
727,727,[ 5.42985621e+04  1.58924583e+03 -3.17995200e-02  5.65595637e-01],159,993.7221216758112
728,728,[ 5.42985621e+04  1.58924583e+03 -3.17995200e-02  5.65595637e-01],383,986.3548319189402
729,729,[ 5.42985621e+04  1.58924583e+03 -3.17995200e-02  5.65595637e-01],177,988.7802727052344
730,730,[ 5.42985621e+04  1.58924583e+03 -3.17995200e-02  5.65595637e-01],69,987.3994372085375
731,731,[ 5.42985621e+04  1.58924583e+03 -3.17995200e-02  5.65595637e-01],86,955.0357915359938
732,732,[ 5.42985621e+04  1.58924583e+03 -3.17995200e-02  5.65595637e-01],144,992.0508867121807
733,733,[ 5.42985621e+04  1.58924583e+03 -3.17995200e-02  5.65595637e-01],793,983.9637461904186
734,734,[ 5.42985621e+04  1.58924583e+03 -3.17995200e-02  5.65595637e-01],119,961.1830760413765
735,735,[ 5.42985621e+04  1.58924583e+03 -3.17995200e-02  5.65595637e-01],883,986.7487176287442
736,736,[ 5.42985621e+04  1.58924583e+03 -3.17995200e-02  5.65595637e-01],676,968.4591541814183
737,737,[ 5.42985621e+04  1.58924583e+03 -3.17995200e-02  5.65595637e-01],498,975.3346871071844
738,738,[ 5.42985621e+04  1.58924583e+03 -3.17995200e-02  5.65595637e-01],200,987.3632767449172
739,739,[ 5.42985621e+04  1.58924583e+03 -3.17995200e-02  5.65595637e-01],21,992.2980261275039
740,740,[ 5.42985621e+04  1.58924583e+03 -3.17995200e-02  5.65595637e-01],888,991.2702040961167
741,741,[ 5.42985621e+04  1.58924583e+03 -3.17995200e-02  5.65595637e-01],98,994.1220303443462
742,742,[ 5.42985621e+04  1.58924583e+03 -3.17995200e-02  5.65595637e-01],612,978.7149660943486
743,743,[ 5.42985621e+04  1.58924583e+03 -3.17995200e-02  5.65595637e-01],424,989.5377421036948
744,744,[ 5.42985621e+04  1.58924583e+03 -3.17995200e-02  5.65595637e-01],841,991.1022658346202
745,745,[ 5.42985621e+04  1.58924583e+03 -3.17995200e-02  5.65595637e-01],725,995.6122087746184
746,746,[ 5.42985621e+04  1.58924583e+03 -3.17995200e-02  5.65595637e-01],201,972.7262174546378
747,747,[ 5.42985621e+04  1.58924583e+03 -3.17995200e-02  5.65595637e-01],894,994.09499811665
748,748,[ 5.42985621e+04  1.58924583e+03 -3.17995200e-02  5.65595637e-01],13,986.6244849453392
749,749,[ 5.42985621e+04  1.58924583e+03 -3.17995200e-02  5.65595637e-01],452,978.5559550506763
750,750,[ 5.42985621e+04  1.58924583e+03 -3.17995200e-02  5.65595637e-01],659,974.527757527481
751,751,[ 5.42985621e+04  1.58924583e+03 -3.17995200e-02  5.65595637e-01],974,987.1949554035501
752,752,[ 5.42985621e+04  1.58924583e+03 -3.17995200e-02  5.65595637e-01],157,981.8429197365938
753,753,[ 5.42985621e+04  1.58924583e+03 -3.17995200e-02  5.65595637e-01],198,988.1322690608173
754,754,[ 5.42985621e+04  1.58924583e+03 -3.17995200e-02  5.65595637e-01],478,982.0098645015322
755,755,[ 5.42985621e+04  1.58924583e+03 -3.17995200e-02  5.65595637e-01],258,977.802280611214
756,756,[ 5.42985621e+04  1.58924583e+03 -3.17995200e-02  5.65595637e-01],142,995.527734002766
757,757,[ 5.42985621e+04  1.58924583e+03 -3.17995200e-02  5.65595637e-01],602,985.2913552897154
758,758,[ 5.42985621e+04  1.58924583e+03 -3.17995200e-02  5.65595637e-01],62,981.7935708529712
759,759,[ 5.42985621e+04  1.58924583e+03 -3.17995200e-02  5.65595637e-01],702,993.7920277591562
760,760,[ 5.42985621e+04  1.58924583e+03 -3.17995200e-02  5.65595637e-01],795,953.9169297871005
761,761,[ 5.42985621e+04  1.58924583e+03 -3.17995200e-02  5.65595637e-01],63,992.7807436186953
762,762,[ 5.42985621e+04  1.58924583e+03 -3.17995200e-02  5.65595637e-01],78,993.8667505678022
763,763,[ 5.42985621e+04  1.58924583e+03 -3.17995200e-02  5.65595637e-01],290,994.8995223499024
764,764,[ 5.42985621e+04  1.58924583e+03 -3.17995200e-02  5.65595637e-01],853,994.1409660669088
765,765,[ 5.42985621e+04  1.58924583e+03 -3.17995200e-02  5.65595637e-01],381,983.8547980220305
766,766,[ 5.42985621e+04  1.58924583e+03 -3.17995200e-02  5.65595637e-01],254,947.6856369946312
767,767,[ 5.42985621e+04  1.58924583e+03 -3.17995200e-02  5.65595637e-01],978,996.2898995836397
768,768,[ 5.42985621e+04  1.58924583e+03 -3.17995200e-02  5.65595637e-01],884,991.9242592170555
769,769,[ 5.42985621e+04  1.58924583e+03 -3.17995200e-02  5.65595637e-01],512,982.3452518604537
770,770,[ 5.42985621e+04  1.58924583e+03 -3.17995200e-02  5.65595637e-01],115,996.5558550954274
771,771,[ 5.42985621e+04  1.58924583e+03 -3.17995200e-02  5.65595637e-01],47,978.4060983633905
772,772,[ 5.42985621e+04  1.58924583e+03 -3.17995200e-02  5.65595637e-01],742,984.3739421358688
773,773,[ 5.42985621e+04  1.58924583e+03 -3.17995200e-02  5.65595637e-01],895,962.3546958602791
774,774,[ 5.42985621e+04  1.58924583e+03 -3.17995200e-02  5.65595637e-01],54,961.086876229069
775,775,[ 5.42985621e+04  1.58924583e+03 -3.17995200e-02  5.65595637e-01],278,991.1418609865865
776,776,[ 5.42985621e+04  1.58924583e+03 -3.17995200e-02  5.65595637e-01],133,974.1310237949494
777,777,[ 5.42985621e+04  1.58924583e+03 -3.17995200e-02  5.65595637e-01],652,994.8238078463309
778,778,[ 5.42985621e+04  1.58924583e+03 -3.17995200e-02  5.65595637e-01],545,994.978410971533
779,779,[ 5.42985621e+04  1.58924583e+03 -3.17995200e-02  5.65595637e-01],749,985.6208527050359
780,780,[ 5.42985621e+04  1.58924583e+03 -3.17995200e-02  5.65595637e-01],82,991.0954050785984
781,781,[ 5.42985621e+04  1.58924583e+03 -3.17995200e-02  5.65595637e-01],877,987.2187845291977
782,782,[ 5.42985621e+04  1.58924583e+03 -3.17995200e-02  5.65595637e-01],382,993.6826687302834
783,783,[ 5.42985621e+04  1.58924583e+03 -3.17995200e-02  5.65595637e-01],75,984.5623183483128
784,784,[ 5.42985621e+04  1.58924583e+03 -3.17995200e-02  5.65595637e-01],771,994.1137214613323
785,785,[ 5.42985621e+04  1.58924583e+03 -3.17995200e-02  5.65595637e-01],950,994.4711940632222
786,786,[ 5.42985621e+04  1.58924583e+03 -3.17995200e-02  5.65595637e-01],319,994.552187197863
787,787,[ 5.42985621e+04  1.58924583e+03 -3.17995200e-02  5.65595637e-01],849,976.3954377429505
788,788,[ 5.42985621e+04  1.58924583e+03 -3.17995200e-02  5.65595637e-01],637,988.8550428441064
789,789,[ 5.42985621e+04  1.58924583e+03 -3.17995200e-02  5.65595637e-01],141,992.8789615624166
790,790,[ 5.42985621e+04  1.58924583e+03 -3.17995200e-02  5.65595637e-01],65,985.449410504536
791,791,[ 5.42985621e+04  1.58924583e+03 -3.17995200e-02  5.65595637e-01],150,971.4073591410746
792,792,[ 5.42985621e+04  1.58924583e+03 -3.17995200e-02  5.65595637e-01],908,985.4348234732614
793,793,[ 5.42985621e+04  1.58924583e+03 -3.17995200e-02  5.65595637e-01],316,980.8440244953617
794,794,[ 5.42985621e+04  1.58924583e+03 -3.17995200e-02  5.65595637e-01],264,983.8840394212548
795,795,[ 5.42985621e+04  1.58924583e+03 -3.17995200e-02  5.65595637e-01],27,979.6641528588619
796,796,[ 5.42985621e+04  1.58924583e+03 -3.17995200e-02  5.65595637e-01],755,997.0863091381922
797,797,[ 5.42985621e+04  1.58924583e+03 -3.17995200e-02  5.65595637e-01],386,987.7080664258962
798,798,[ 5.42985621e+04  1.58924583e+03 -3.17995200e-02  5.65595637e-01],911,993.6849890640848
799,799,[ 5.42985621e+04  1.58924583e+03 -3.17995200e-02  5.65595637e-01],26,985.382164601885
800,800,[ 5.42985621e+04  1.58924583e+03 -3.17995200e-02  5.65595637e-01],97,988.4159303903588
801,801,[ 5.42985621e+04  1.58924583e+03 -3.17995200e-02  5.65595637e-01],135,988.542482700627
802,802,[ 5.42985621e+04  1.58924583e+03 -3.17995200e-02  5.65595637e-01],346,994.2722332576898
803,803,[ 5.42985621e+04  1.58924583e+03 -3.17995200e-02  5.65595637e-01],83,995.3941138296485
804,804,[ 5.42985621e+04  1.58924583e+03 -3.17995200e-02  5.65595637e-01],464,995.5569868263868
805,805,[ 5.42985621e+04  1.58924583e+03 -3.17995200e-02  5.65595637e-01],105,995.759520865099
806,806,[ 5.42985621e+04  1.58924583e+03 -3.17995200e-02  5.65595637e-01],576,995.4126599361911
807,807,[ 5.42985621e+04  1.58924583e+03 -3.17995200e-02  5.65595637e-01],897,992.205491238501
808,808,[ 5.42985621e+04  1.58924583e+03 -3.17995200e-02  5.65595637e-01],365,995.8073482722696
809,809,[ 5.42985621e+04  1.58924583e+03 -3.17995200e-02  5.65595637e-01],671,996.8363469904368
810,810,[ 5.42985621e+04  1.58924583e+03 -3.17995200e-02  5.65595637e-01],595,989.6325903612196
811,811,[ 5.42985621e+04  1.58924583e+03 -3.17995200e-02  5.65595637e-01],951,995.6708201837813
812,812,[ 5.42985621e+04  1.58924583e+03 -3.17995200e-02  5.65595637e-01],1015,974.2553524878564
813,813,[ 5.42985621e+04  1.58924583e+03 -3.17995200e-02  5.65595637e-01],706,973.6950929468657
814,814,[ 5.42985621e+04  1.58924583e+03 -3.17995200e-02  5.65595637e-01],723,987.5169706083798
815,815,[ 5.42985621e+04  1.58924583e+03 -3.17995200e-02  5.65595637e-01],314,990.9249359500265
816,816,[ 5.42985621e+04  1.58924583e+03 -3.17995200e-02  5.65595637e-01],23,993.8028908343613
817,817,[ 5.42985621e+04  1.58924583e+03 -3.17995200e-02  5.65595637e-01],139,996.5274702537273
818,818,[ 5.42985621e+04  1.58924583e+03 -3.17995200e-02  5.65595637e-01],695,976.2877558994016
819,819,[ 5.42985621e+04  1.58924583e+03 -3.17995200e-02  5.65595637e-01],530,994.8855090282777
820,820,[ 5.42985621e+04  1.58924583e+03 -3.17995200e-02  5.65595637e-01],568,989.7147234606421
821,821,[ 5.42985621e+04  1.58924583e+03 -3.17995200e-02  5.65595637e-01],844,995.3121518069975
822,822,[ 5.42985621e+04  1.58924583e+03 -3.17995200e-02  5.65595637e-01],22,982.3627943714932
823,823,[ 5.42985621e+04  1.58924583e+03 -3.17995200e-02  5.65595637e-01],262,987.1436613762637
824,824,[ 5.42985621e+04  1.58924583e+03 -3.17995200e-02  5.65595637e-01],336,985.0125226237935
825,825,[ 5.42985621e+04  1.58924583e+03 -3.17995200e-02  5.65595637e-01],175,995.3222759683929
826,826,[ 5.42985621e+04  1.58924583e+03 -3.17995200e-02  5.65595637e-01],787,994.4842946720198
827,827,[ 5.42985621e+04  1.58924583e+03 -3.17995200e-02  5.65595637e-01],832,990.1398744026139
828,828,[ 5.42985621e+04  1.58924583e+03 -3.17995200e-02  5.65595637e-01],67,982.4954146225411
829,829,[ 5.42985621e+04  1.58924583e+03 -3.17995200e-02  5.65595637e-01],202,988.0349449429837
830,830,[ 5.42985621e+04  1.58924583e+03 -3.17995200e-02  5.65595637e-01],818,991.5758755466072
831,831,[ 5.42985621e+04  1.58924583e+03 -3.17995200e-02  5.65595637e-01],675,985.5445143957215
832,832,[ 5.42985621e+04  1.58924583e+03 -3.17995200e-02  5.65595637e-01],104,976.3565820467438
833,833,[ 5.42985621e+04  1.58924583e+03 -3.17995200e-02  5.65595637e-01],55,992.5561136590829
834,834,[ 5.42985621e+04  1.58924583e+03 -3.17995200e-02  5.65595637e-01],1005,988.6995321900248
835,835,[ 5.42985621e+04  1.58924583e+03 -3.17995200e-02  5.65595637e-01],889,991.7023670871813
836,836,[ 5.42985621e+04  1.58924583e+03 -3.17995200e-02  5.65595637e-01],95,995.4352841814881
837,837,[ 5.42985621e+04  1.58924583e+03 -3.17995200e-02  5.65595637e-01],846,989.6492507479954
838,838,[ 5.42985621e+04  1.58924583e+03 -3.17995200e-02  5.65595637e-01],415,993.5184560313578
839,839,[ 5.42985621e+04  1.58924583e+03 -3.17995200e-02  5.65595637e-01],268,989.6455353859355
840,840,[ 5.42985621e+04  1.58924583e+03 -3.17995200e-02  5.65595637e-01],856,987.5197692263575
841,841,[ 5.42985621e+04  1.58924583e+03 -3.17995200e-02  5.65595637e-01],648,980.4384321758195
842,842,[ 5.42985621e+04  1.58924583e+03 -3.17995200e-02  5.65595637e-01],185,993.0837995573925
843,843,[ 5.42985621e+04  1.58924583e+03 -3.17995200e-02  5.65595637e-01],20,968.290151088546
844,844,[ 5.42985621e+04  1.58924583e+03 -3.17995200e-02  5.65595637e-01],188,976.667836809339
845,845,[ 5.42985621e+04  1.58924583e+03 -3.17995200e-02  5.65595637e-01],77,996.5592552563885
846,846,[ 5.42985621e+04  1.58924583e+03 -3.17995200e-02  5.65595637e-01],94,975.9364387702284
847,847,[ 5.42985621e+04  1.58924583e+03 -3.17995200e-02  5.65595637e-01],208,987.9870108631613
848,848,[ 5.42985621e+04  1.58924583e+03 -3.17995200e-02  5.65595637e-01],623,991.120583704625
849,849,[ 5.42985621e+04  1.58924583e+03 -3.17995200e-02  5.65595637e-01],737,978.3041429762492
850,850,[ 5.42985621e+04  1.58924583e+03 -3.17995200e-02  5.65595637e-01],68,984.097635890525
851,851,[ 5.42985621e+04  1.58924583e+03 -3.17995200e-02  5.65595637e-01],467,959.054886285683
852,852,[ 5.42985621e+04  1.58924583e+03 -3.17995200e-02  5.65595637e-01],411,990.2925953795171
853,853,[ 5.42985621e+04  1.58924583e+03 -3.17995200e-02  5.65595637e-01],270,979.102915879505
854,854,[ 5.42985621e+04  1.58924583e+03 -3.17995200e-02  5.65595637e-01],46,989.3035593872161
855,855,[ 5.42985621e+04  1.58924583e+03 -3.17995200e-02  5.65595637e-01],627,993.8750610395232
856,856,[ 5.42985621e+04  1.58924583e+03 -3.17995200e-02  5.65595637e-01],106,975.5327967908198
857,857,[ 5.42985621e+04  1.58924583e+03 -3.17995200e-02  5.65595637e-01],197,994.4280885611714
858,858,[ 5.42985621e+04  1.58924583e+03 -3.17995200e-02  5.65595637e-01],1002,986.7124329608894
859,859,[ 5.42985621e+04  1.58924583e+03 -3.17995200e-02  5.65595637e-01],952,993.1501670069238
860,860,[ 5.42985621e+04  1.58924583e+03 -3.17995200e-02  5.65595637e-01],172,994.6569636362636
861,861,[ 5.42985621e+04  1.58924583e+03 -3.17995200e-02  5.65595637e-01],96,994.8720988131689
862,862,[ 5.42985621e+04  1.58924583e+03 -3.17995200e-02  5.65595637e-01],50,957.2976868487331
863,863,[ 5.42985621e+04  1.58924583e+03 -3.17995200e-02  5.65595637e-01],44,987.9819256708099
864,864,[ 5.42985621e+04  1.58924583e+03 -3.17995200e-02  5.65595637e-01],681,982.5921006263413
865,865,[ 5.42985621e+04  1.58924583e+03 -3.17995200e-02  5.65595637e-01],396,988.6331094853958
866,866,[ 5.42985621e+04  1.58924583e+03 -3.17995200e-02  5.65595637e-01],241,994.2313097296907
867,867,[ 5.42985621e+04  1.58924583e+03 -3.17995200e-02  5.65595637e-01],750,993.8848067400818
868,868,[ 5.42985621e+04  1.58924583e+03 -3.17995200e-02  5.65595637e-01],1000,986.7323887015662
869,869,[ 5.42985621e+04  1.58924583e+03 -3.17995200e-02  5.65595637e-01],476,991.7976541819625
870,870,[ 5.42985621e+04  1.58924583e+03 -3.17995200e-02  5.65595637e-01],79,966.1876421982582
871,871,[ 5.42985621e+04  1.58924583e+03 -3.17995200e-02  5.65595637e-01],591,994.2888234583806
872,872,[ 5.42985621e+04  1.58924583e+03 -3.17995200e-02  5.65595637e-01],351,983.9311339448776
873,873,[ 5.42985621e+04  1.58924583e+03 -3.17995200e-02  5.65595637e-01],812,983.8675824569151
874,874,[ 5.42985621e+04  1.58924583e+03 -3.17995200e-02  5.65595637e-01],776,994.6781271195047
875,875,[ 5.42985621e+04  1.58924583e+03 -3.17995200e-02  5.65595637e-01],260,993.5549401641276
876,876,[ 5.42985621e+04  1.58924583e+03 -3.17995200e-02  5.65595637e-01],475,984.3330174920602
877,877,[ 5.42985621e+04  1.58924583e+03 -3.17995200e-02  5.65595637e-01],18,978.5235544173844
878,878,[ 5.42985621e+04  1.58924583e+03 -3.17995200e-02  5.65595637e-01],341,984.8330505899511
879,879,[ 5.42985621e+04  1.58924583e+03 -3.17995200e-02  5.65595637e-01],813,968.6156789279046
880,880,[ 5.42985621e+04  1.58924583e+03 -3.17995200e-02  5.65595637e-01],24,984.4680245941736
881,881,[ 5.42985621e+04  1.58924583e+03 -3.17995200e-02  5.65595637e-01],961,964.0004558755671
882,882,[ 5.42985621e+04  1.58924583e+03 -3.17995200e-02  5.65595637e-01],183,990.3746181065768
883,883,[ 5.42985621e+04  1.58924583e+03 -3.17995200e-02  5.65595637e-01],340,980.7794006401679
884,884,[ 5.42985621e+04  1.58924583e+03 -3.17995200e-02  5.65595637e-01],170,978.8799533499788
885,885,[ 5.42985621e+04  1.58924583e+03 -3.17995200e-02  5.65595637e-01],9,992.122897584761
886,886,[ 5.42985621e+04  1.58924583e+03 -3.17995200e-02  5.65595637e-01],746,992.2974685796806
887,887,[ 5.42985621e+04  1.58924583e+03 -3.17995200e-02  5.65595637e-01],404,995.217615413845
888,888,[ 5.42985621e+04  1.58924583e+03 -3.17995200e-02  5.65595637e-01],166,980.5217801276565
889,889,[ 5.42985621e+04  1.58924583e+03 -3.17995200e-02  5.65595637e-01],149,975.9767684598772
890,890,[ 5.42985621e+04  1.58924583e+03 -3.17995200e-02  5.65595637e-01],51,987.1622558728766
891,891,[ 5.42985621e+04  1.58924583e+03 -3.17995200e-02  5.65595637e-01],699,985.7506098906953
892,892,[ 5.42985621e+04  1.58924583e+03 -3.17995200e-02  5.65595637e-01],153,989.2298054537569
893,893,[ 5.42985621e+04  1.58924583e+03 -3.17995200e-02  5.65595637e-01],31,984.6149399829263
894,894,[ 5.42985621e+04  1.58924583e+03 -3.17995200e-02  5.65595637e-01],187,980.2523076042963
895,895,[ 5.42985621e+04  1.58924583e+03 -3.17995200e-02  5.65595637e-01],378,978.679589371076
896,896,[ 5.42985621e+04  1.58924583e+03 -3.17995200e-02  5.65595637e-01],486,992.8511570542605
897,897,[ 5.42985621e+04  1.58924583e+03 -3.17995200e-02  5.65595637e-01],251,977.3538058297046
898,898,[ 5.42985621e+04  1.58924583e+03 -3.17995200e-02  5.65595637e-01],407,995.890043458801
899,899,[ 5.42985621e+04  1.58924583e+03 -3.17995200e-02  5.65595637e-01],199,983.6236439110196
900,900,[ 5.42985621e+04  1.58924583e+03 -3.17995200e-02  5.65595637e-01],791,990.2426907114614
901,901,[ 5.42985621e+04  1.58924583e+03 -3.17995200e-02  5.65595637e-01],89,993.1528872709163
902,902,[ 5.42985621e+04  1.58924583e+03 -3.17995200e-02  5.65595637e-01],670,989.3108643816778
903,903,[ 5.42985621e+04  1.58924583e+03 -3.17995200e-02  5.65595637e-01],92,994.9089213641163
904,904,[ 5.42985621e+04  1.58924583e+03 -3.17995200e-02  5.65595637e-01],1014,982.9511908362986
905,905,[ 5.42985621e+04  1.58924583e+03 -3.17995200e-02  5.65595637e-01],34,986.2784473025702
906,906,[ 5.42985621e+04  1.58924583e+03 -3.17995200e-02  5.65595637e-01],60,995.7723714595653
907,907,[ 5.42985621e+04  1.58924583e+03 -3.17995200e-02  5.65595637e-01],293,983.3633224728409
908,908,[ 5.42985621e+04  1.58924583e+03 -3.17995200e-02  5.65595637e-01],109,978.0306475590324
909,909,[ 5.42985621e+04  1.58924583e+03 -3.17995200e-02  5.65595637e-01],110,989.5767986882771
910,910,[ 5.42985621e+04  1.58924583e+03 -3.17995200e-02  5.65595637e-01],12,964.4222068242013
911,911,[ 5.42985621e+04  1.58924583e+03 -3.17995200e-02  5.65595637e-01],953,977.7755440435029
912,912,[ 5.42985621e+04  1.58924583e+03 -3.17995200e-02  5.65595637e-01],707,992.6406940535645
913,913,[ 5.42985621e+04  1.58924583e+03 -3.17995200e-02  5.65595637e-01],45,994.9657311522001
914,914,[ 5.42985621e+04  1.58924583e+03 -3.17995200e-02  5.65595637e-01],541,983.1539253453914
915,915,[ 5.42985621e+04  1.58924583e+03 -3.17995200e-02  5.65595637e-01],59,949.2255692215901
916,916,[ 5.42985621e+04  1.58924583e+03 -3.17995200e-02  5.65595637e-01],32,990.9049319565609
917,917,[ 5.42985621e+04  1.58924583e+03 -3.17995200e-02  5.65595637e-01],73,993.0025034567877
918,918,[ 5.42985621e+04  1.58924583e+03 -3.17995200e-02  5.65595637e-01],673,992.6368665789063
919,919,[ 5.42985621e+04  1.58924583e+03 -3.17995200e-02  5.65595637e-01],41,966.5521916960304
920,920,[ 5.42985621e+04  1.58924583e+03 -3.17995200e-02  5.65595637e-01],473,988.6188728101564
921,921,[ 5.42985621e+04  1.58924583e+03 -3.17995200e-02  5.65595637e-01],574,992.4912877488517
922,922,[ 5.42985621e+04  1.58924583e+03 -3.17995200e-02  5.65595637e-01],505,992.9369469791702
923,923,[ 5.42985621e+04  1.58924583e+03 -3.17995200e-02  5.65595637e-01],84,992.8174343179179
924,924,[ 5.42985621e+04  1.58924583e+03 -3.17995200e-02  5.65595637e-01],620,992.0746605873746
925,925,[ 5.42985621e+04  1.58924583e+03 -3.17995200e-02  5.65595637e-01],204,968.6799421724057
926,926,[ 5.42985621e+04  1.58924583e+03 -3.17995200e-02  5.65595637e-01],184,982.3792790928211
927,927,[ 5.42985621e+04  1.58924583e+03 -3.17995200e-02  5.65595637e-01],492,986.6327449279435
928,928,[ 5.42985621e+04  1.58924583e+03 -3.17995200e-02  5.65595637e-01],35,995.4587897909993
929,929,[ 5.42985621e+04  1.58924583e+03 -3.17995200e-02  5.65595637e-01],938,995.3107366410538
930,930,[ 5.42985621e+04  1.58924583e+03 -3.17995200e-02  5.65595637e-01],925,981.2619315154712
931,931,[ 5.42985621e+04  1.58924583e+03 -3.17995200e-02  5.65595637e-01],161,966.6472511366959
932,932,[ 5.42985621e+04  1.58924583e+03 -3.17995200e-02  5.65595637e-01],64,991.2698439275946
933,933,[ 5.42985621e+04  1.58924583e+03 -3.17995200e-02  5.65595637e-01],879,991.1889422168563
934,934,[ 5.42985621e+04  1.58924583e+03 -3.17995200e-02  5.65595637e-01],736,991.1819965763332
935,935,[ 5.42985621e+04  1.58924583e+03 -3.17995200e-02  5.65595637e-01],11,988.0270194159948
936,936,[ 5.42985621e+04  1.58924583e+03 -3.17995200e-02  5.65595637e-01],87,993.6031930586541
937,937,[ 5.42985621e+04  1.58924583e+03 -3.17995200e-02  5.65595637e-01],843,994.1402479016612
938,938,[ 5.42985621e+04  1.58924583e+03 -3.17995200e-02  5.65595637e-01],448,968.8742881185802
939,939,[ 5.42985621e+04  1.58924583e+03 -3.17995200e-02  5.65595637e-01],442,989.0796916885453
940,940,[ 5.42985621e+04  1.58924583e+03 -3.17995200e-02  5.65595637e-01],8,988.3981044120127
941,941,[ 5.42985621e+04  1.58924583e+03 -3.17995200e-02  5.65595637e-01],597,990.8466231770934
942,942,[ 5.42985621e+04  1.58924583e+03 -3.17995200e-02  5.65595637e-01],259,988.2272293534637
943,943,[ 5.42985621e+04  1.58924583e+03 -3.17995200e-02  5.65595637e-01],19,982.9903825417637
944,944,[ 5.42985621e+04  1.58924583e+03 -3.17995200e-02  5.65595637e-01],352,986.0382638518022
945,945,[ 5.42985621e+04  1.58924583e+03 -3.17995200e-02  5.65595637e-01],993,983.0569622299504
946,946,[ 5.42985621e+04  1.58924583e+03 -3.17995200e-02  5.65595637e-01],504,988.1959734743069
947,947,[ 5.42985621e+04  1.58924583e+03 -3.17995200e-02  5.65595637e-01],931,984.8705290253989
948,948,[ 5.42985621e+04  1.58924583e+03 -3.17995200e-02  5.65595637e-01],919,993.6958301512739
949,949,[ 5.42985621e+04  1.58924583e+03 -3.17995200e-02  5.65595637e-01],463,989.321738620267
950,950,[ 5.42985621e+04  1.58924583e+03 -3.17995200e-02  5.65595637e-01],870,978.3713141444476
951,951,[ 5.42985621e+04  1.58924583e+03 -3.17995200e-02  5.65595637e-01],57,977.1598514099912
952,952,[ 5.42985621e+04  1.58924583e+03 -3.17995200e-02  5.65595637e-01],29,974.7197100205154
953,953,[ 5.42985621e+04  1.58924583e+03 -3.17995200e-02  5.65595637e-01],88,970.6887636949372
954,954,[ 5.42985621e+04  1.58924583e+03 -3.17995200e-02  5.65595637e-01],499,991.5171900430361
955,955,[ 5.42985621e+04  1.58924583e+03 -3.17995200e-02  5.65595637e-01],99,992.3765817275639
956,956,[ 5.42985621e+04  1.58924583e+03 -3.17995200e-02  5.65595637e-01],572,986.7197760605469
957,957,[ 5.42985621e+04  1.58924583e+03 -3.17995200e-02  5.65595637e-01],145,988.2742512076763
958,958,[ 5.42985621e+04  1.58924583e+03 -3.17995200e-02  5.65595637e-01],573,986.9286064855147
959,959,[ 5.42985621e+04  1.58924583e+03 -3.17995200e-02  5.65595637e-01],102,995.4805688068965
960,960,[ 5.42985621e+04  1.58924583e+03 -3.17995200e-02  5.65595637e-01],910,995.1987346578306
961,961,[ 5.42985621e+04  1.58924583e+03 -3.17995200e-02  5.65595637e-01],33,973.4111205768766
962,962,[ 5.42985621e+04  1.58924583e+03 -3.17995200e-02  5.65595637e-01],103,990.6996729681009
963,963,[ 5.42985621e+04  1.58924583e+03 -3.17995200e-02  5.65595637e-01],353,981.1207817528517
964,964,[ 5.42985621e+04  1.58924583e+03 -3.17995200e-02  5.65595637e-01],881,991.3553739053715
965,965,[ 5.42985621e+04  1.58924583e+03 -3.17995200e-02  5.65595637e-01],616,995.0184018498015
966,966,[ 5.42985621e+04  1.58924583e+03 -3.17995200e-02  5.65595637e-01],669,985.0016323944039
967,967,[ 5.42985621e+04  1.58924583e+03 -3.17995200e-02  5.65595637e-01],969,983.2170846740003
968,968,[ 5.42985621e+04  1.58924583e+03 -3.17995200e-02  5.65595637e-01],562,988.8962264042808
969,969,[ 5.42985621e+04  1.58924583e+03 -3.17995200e-02  5.65595637e-01],267,963.1314676687296
970,970,[ 5.42985621e+04  1.58924583e+03 -3.17995200e-02  5.65595637e-01],773,992.770562618346
971,971,[ 5.42985621e+04  1.58924583e+03 -3.17995200e-02  5.65595637e-01],101,993.2788138053588
972,972,[ 5.42985621e+04  1.58924583e+03 -3.17995200e-02  5.65595637e-01],171,952.3872061996506
973,973,[ 5.42985621e+04  1.58924583e+03 -3.17995200e-02  5.65595637e-01],4,993.032304970792
974,974,[ 5.42985621e+04  1.58924583e+03 -3.17995200e-02  5.65595637e-01],7,980.1708975717622
975,975,[ 5.42985621e+04  1.58924583e+03 -3.17995200e-02  5.65595637e-01],58,987.9707369095944
976,976,[ 5.42985621e+04  1.58924583e+03 -3.17995200e-02  5.65595637e-01],606,992.1196492218068
977,977,[ 5.42985621e+04  1.58924583e+03 -3.17995200e-02  5.65595637e-01],285,987.3493008555236
978,978,[ 5.42985621e+04  1.58924583e+03 -3.17995200e-02  5.65595637e-01],517,979.0297483239679
979,979,[ 5.42985621e+04  1.58924583e+03 -3.17995200e-02  5.65595637e-01],734,992.8628081915759
980,980,[ 5.42985621e+04  1.58924583e+03 -3.17995200e-02  5.65595637e-01],774,992.705158629507
981,981,[ 5.42985621e+04  1.58924583e+03 -3.17995200e-02  5.65595637e-01],5,993.7894570321224
982,982,[ 5.42985621e+04  1.58924583e+03 -3.17995200e-02  5.65595637e-01],10,984.1974860045332
983,983,[ 5.42985621e+04  1.58924583e+03 -3.17995200e-02  5.65595637e-01],164,992.6272629430314
984,984,[ 5.42985621e+04  1.58924583e+03 -3.17995200e-02  5.65595637e-01],483,987.4638948573026
985,985,[ 5.42985621e+04  1.58924583e+03 -3.17995200e-02  5.65595637e-01],327,956.6095369494695
986,986,[ 5.42985621e+04  1.58924583e+03 -3.17995200e-02  5.65595637e-01],429,985.1748161373018
987,987,[ 5.42985621e+04  1.58924583e+03 -3.17995200e-02  5.65595637e-01],851,990.8073980300219
988,988,[ 5.42985621e+04  1.58924583e+03 -3.17995200e-02  5.65595637e-01],56,995.5804823647372
989,989,[ 5.42985621e+04  1.58924583e+03 -3.17995200e-02  5.65595637e-01],61,982.4325253520659
990,990,[ 5.42985621e+04  1.58924583e+03 -3.17995200e-02  5.65595637e-01],210,993.2438537951447
991,991,[ 5.42985621e+04  1.58924583e+03 -3.17995200e-02  5.65595637e-01],724,990.1682444265642
992,992,[ 5.42985621e+04  1.58924583e+03 -3.17995200e-02  5.65595637e-01],211,991.5548692510197
993,993,[ 5.42985621e+04  1.58924583e+03 -3.17995200e-02  5.65595637e-01],373,966.947459143248
994,994,[ 5.42985621e+04  1.58924583e+03 -3.17995200e-02  5.65595637e-01],111,995.8022981318378
995,995,[ 5.42985621e+04  1.58924583e+03 -3.17995200e-02  5.65595637e-01],862,987.6143549636602
996,996,[ 5.42985621e+04  1.58924583e+03 -3.17995200e-02  5.65595637e-01],253,987.6285633750563
997,997,[ 5.42985621e+04  1.58924583e+03 -3.17995200e-02  5.65595637e-01],985,989.4399605451388
998,998,[ 5.42985621e+04  1.58924583e+03 -3.17995200e-02  5.65595637e-01],127,993.4777593430624
999,999,[ 5.42985621e+04  1.58924583e+03 -3.17995200e-02  5.65595637e-01],388,994.6938206092084
1000,1000,[ 5.42985621e+04  1.58924583e+03 -3.17995200e-02  5.65595637e-01],540,974.3920263890897
1001,1001,[ 5.42985621e+04  1.58924583e+03 -3.17995200e-02  5.65595637e-01],731,981.9019391518158
1002,1002,[ 5.42985621e+04  1.58924583e+03 -3.17995200e-02  5.65595637e-01],432,974.7925791564465
1003,1003,[ 5.42985621e+04  1.58924583e+03 -3.17995200e-02  5.65595637e-01],49,985.2222078288743
1004,1004,[ 5.42985621e+04  1.58924583e+03 -3.17995200e-02  5.65595637e-01],715,988.7015286639892
1005,1005,[ 5.42985621e+04  1.58924583e+03 -3.17995200e-02  5.65595637e-01],760,976.0387895278778
1006,1006,[ 5.42985621e+04  1.58924583e+03 -3.17995200e-02  5.65595637e-01],108,994.0915441920506
1007,1007,[ 5.42985621e+04  1.58924583e+03 -3.17995200e-02  5.65595637e-01],972,993.6118682660391
1008,1008,[ 5.42985621e+04  1.58924583e+03 -3.17995200e-02  5.65595637e-01],303,994.0687706088605
1009,1009,[ 5.42985621e+04  1.58924583e+03 -3.17995200e-02  5.65595637e-01],915,992.4202790317718
1010,1010,[ 5.42985621e+04  1.58924583e+03 -3.17995200e-02  5.65595637e-01],53,992.4943621588616
1011,1011,[ 5.42985621e+04  1.58924583e+03 -3.17995200e-02  5.65595637e-01],766,987.1665933153095
1012,1012,[ 5.42985621e+04  1.58924583e+03 -3.17995200e-02  5.65595637e-01],155,986.9563398604312
1013,1013,[ 5.42985621e+04  1.58924583e+03 -3.17995200e-02  5.65595637e-01],107,992.6685338184543
1014,1014,[ 5.42985621e+04  1.58924583e+03 -3.17995200e-02  5.65595637e-01],81,971.145887865961
1015,1015,[ 5.42985621e+04  1.58924583e+03 -3.17995200e-02  5.65595637e-01],672,977.1513207439845
1016,1016,[ 5.42985621e+04  1.58924583e+03 -3.17995200e-02  5.65595637e-01],516,993.4429722365971
1017,1017,[ 5.42985621e+04  1.58924583e+03 -3.17995200e-02  5.65595637e-01],444,984.7089618148204
