,0,1,2,3
0,0,[-1.99804911e+03  3.48387145e+02 -2.82378244e-03 -1.31641694e+07],1090,1079.1867850135422
1,1,[-2.86462239e+03  3.42380831e+02 -4.00952997e-03 -1.31641694e+07],507,1089.006687051511
2,2,[-2.86270152e+03  3.42380514e+02 -4.06276981e-03 -1.31641694e+07],614,1088.0280345269489
3,3,[-2.06760038e+03  3.47386996e+02 -2.69046742e-03 -1.31641694e+07],116,1087.8789694387133
4,4,[-2.20931885e+03  3.46384986e+02 -3.14543443e-03 -1.31641694e+07],646,1092.587223663628
5,5,[-2.49948028e+03  3.44382665e+02 -3.75658140e-03 -1.31641694e+07],303,1093.8537232842662
6,6,[-2.52072246e+03  3.44383046e+02 -4.13026531e-03 -1.31641694e+07],115,1094.6189546705327
7,7,[-2.55642058e+03  3.44382659e+02 -4.00606495e-03 -1.31641694e+07],387,1094.5793860318015
8,8,[-2.27460516e+03  3.46385380e+02 -3.45844432e-03 -1.31641694e+07],342,1094.0143486496881
9,9,[-1.99135546e+03  3.48387351e+02 -2.90299964e-03 -1.31641694e+07],240,1094.6335201610418
10,10,[-2.38747891e+03  3.45384265e+02 -3.70399513e-03 -1.31641694e+07],301,1095.1299918147308
11,11,[-2.29801331e+03  3.46385017e+02 -3.58918722e-03 -1.31641694e+07],152,1094.506089369292
12,12,[-2.09568461e+03  3.47386159e+02 -3.01782509e-03 -1.31641694e+07],621,1093.3548816233204
13,13,[-2.62770982e+03  3.43381736e+02 -3.34475043e-03 -1.31641694e+07],1086,1084.8401883194206
14,14,[-2.81154620e+03  3.42380776e+02 -3.64383950e-03 -1.31641694e+07],356,1083.2879846430747
15,15,[-2.69566121e+03  3.43381995e+02 -3.60670036e-03 -1.31641694e+07],642,1081.6352090240186
16,16,[-2.84651336e+03  3.42381091e+02 -3.93426312e-03 -1.31641694e+07],338,1084.5015238476326
17,17,[-2.65546845e+03  3.43382032e+02 -3.99183138e-03 -1.31641694e+07],456,1091.0521149264712
18,18,[-2.86869325e+03  3.42380631e+02 -4.16134382e-03 -1.31641694e+07],1093,1092.1920734686137
19,19,[-2.57376995e+03  3.44383353e+02 -3.61965027e-03 -1.31641694e+07],965,1091.261753058783
20,20,[-2.54920122e+03  3.44382947e+02 -4.09995465e-03 -1.31641694e+07],831,1093.575917308882
21,21,[-2.43126768e+03  3.45384196e+02 -3.83681189e-03 -1.31641694e+07],205,1094.203611710569
22,22,[-2.13860520e+03  3.47386122e+02 -3.15357102e-03 -1.31641694e+07],932,1095.0585679756198
23,23,[-2.24875855e+03  3.46385055e+02 -3.17264204e-03 -1.31641694e+07],217,1094.3099196516994
24,24,[-2.63782061e+03  3.43381581e+02 -4.46365153e-03 -1.31641694e+07],758,1094.9688370762517
25,25,[-1.88423315e+03  3.49388311e+02 -2.72102160e-03 -1.31641694e+07],883,1095.078368526264
26,26,[-2.67425302e+03  3.43381758e+02 -3.98229831e-03 -1.31641694e+07],1046,1091.15208301169
27,27,[-2.48886247e+03  3.44383186e+02 -3.69581310e-03 -1.31641694e+07],445,1093.2117776028235
28,28,[-2.16830304e+03  3.47386344e+02 -3.29411369e-03 -1.31641694e+07],520,1094.676519123859
29,29,[-1.88893703e+03  3.49388564e+02 -2.71123710e-03 -1.31641694e+07],314,1095.1917486937589
30,30,[-2.00981974e+03  3.48387885e+02 -2.94083925e-03 -1.31641694e+07],487,1094.8059089662634
31,31,[-2.64450401e+03  3.43381617e+02 -3.74946571e-03 -1.31641694e+07],280,1090.5794604576606
32,32,[-2.43364832e+03  3.45383821e+02 -3.84424857e-03 -1.31641694e+07],429,1094.2676053753812
33,33,[-1.79573815e+03  3.50389693e+02 -2.69153132e-03 -1.31641694e+07],29,1094.240318944731
34,34,[-2.11467957e+03  3.47386832e+02 -2.95494430e-03 -1.31641694e+07],512,1093.3590256132998
35,35,[-1.99300067e+03  3.48387818e+02 -2.94855291e-03 -1.31641694e+07],634,1093.873397613421
36,36,[-2.43610304e+03  3.45384323e+02 -3.86771021e-03 -1.31641694e+07],393,1093.795906099408
37,37,[-2.20797293e+03  3.46385028e+02 -3.54333846e-03 -1.31641694e+07],1069,1094.482357394435
38,38,[-2.54729878e+03  3.44382964e+02 -3.69576505e-03 -1.31641694e+07],107,1091.531754763297
39,39,[-2.63663288e+03  3.43381566e+02 -4.27528947e-03 -1.31641694e+07],946,1093.2334637044305
40,40,[-2.49181348e+03  3.44382882e+02 -4.20347169e-03 -1.31641694e+07],452,1094.175923332055
41,41,[-2.44056452e+03  3.45383803e+02 -3.84852376e-03 -1.31641694e+07],441,1094.608829749069
42,42,[-2.66189139e+03  3.43382040e+02 -3.80839194e-03 -1.31641694e+07],480,1090.7663986338096
43,43,[-2.00590540e+03  3.48387344e+02 -2.92819046e-03 -1.31641694e+07],586,1094.649957650802
44,44,[-2.49374262e+03  3.44382693e+02 -4.15459667e-03 -1.31641694e+07],10,1094.7412252472454
45,45,[-2.09358220e+03  3.47386619e+02 -3.40574884e-03 -1.31641694e+07],91,1094.6881265180434
46,46,[-2.35443125e+03  3.45384174e+02 -3.38265494e-03 -1.31641694e+07],102,1092.046095134181
47,47,[-2.44506254e+03  3.44383107e+02 -4.29914386e-03 -1.31641694e+07],142,1094.476349778546
48,48,[-2.46083176e+03  3.44383276e+02 -4.37302004e-03 -1.31641694e+07],750,1094.3998136896068
49,49,[-2.16543460e+03  3.46385097e+02 -3.77224253e-03 -1.31641694e+07],233,1094.7737289246993
50,50,[-2.68810071e+03  3.43381540e+02 -3.91951289e-03 -1.31641694e+07],754,1091.0608517864787
51,51,[-2.00704222e+03  3.48387288e+02 -3.00575640e-03 -1.31641694e+07],742,1094.5501260877143
52,52,[-2.01636574e+03  3.48387511e+02 -3.05966017e-03 -1.31641694e+07],402,1094.546586060495
53,53,[-1.98636856e+03  3.48387316e+02 -3.00043127e-03 -1.31641694e+07],945,1094.1512878063972
54,54,[-2.54742584e+03  3.44382923e+02 -3.63107149e-03 -1.31641694e+07],237,1092.5120164818504
55,55,[-2.38323790e+03  3.45384251e+02 -3.69863239e-03 -1.31641694e+07],497,1093.7922327629542
56,56,[-2.36539306e+03  3.45384357e+02 -3.94608898e-03 -1.31641694e+07],410,1093.9868535939727
57,57,[-2.29533640e+03  3.46384928e+02 -3.53926932e-03 -1.31641694e+07],467,1095.015785425937
58,58,[-2.39460142e+03  3.45384223e+02 -3.54869708e-03 -1.31641694e+07],899,1093.5508930375306
59,59,[-2.61462090e+03  3.43381687e+02 -3.92759373e-03 -1.31641694e+07],284,1092.0112385666996
60,60,[-2.63275824e+03  3.43381618e+02 -4.50352143e-03 -1.31641694e+07],638,1094.7140167008565
61,61,[-2.00233018e+03  3.48387225e+02 -3.00230426e-03 -1.31641694e+07],361,1094.4978324360923
62,62,[-1.86845809e+03  3.49388326e+02 -2.50268447e-03 -1.31641694e+07],100,1093.0427727410745
63,63,[-1.98527071e+03  3.48387689e+02 -2.75698928e-03 -1.31641694e+07],275,1093.3402963996396
64,64,[-2.65457906e+03  3.42380831e+02 -5.11801540e-03 -1.31641694e+07],437,1093.53598656075
65,65,[-2.30265828e+03  3.46385098e+02 -3.60127405e-03 -1.31641694e+07],902,1094.6675619860525
66,66,[-2.87221765e+03  3.42380639e+02 -4.10598072e-03 -1.31641694e+07],762,1090.6128458954772
67,67,[-2.29786291e+03  3.46385033e+02 -3.46650084e-03 -1.31641694e+07],25,1093.8409880619297
68,68,[-2.10482041e+03  3.47386260e+02 -3.26574089e-03 -1.31641694e+07],454,1094.4881908822467
69,69,[-1.88279086e+03  3.49388618e+02 -2.62576616e-03 -1.31641694e+07],1073,1094.1359345346186
70,70,[-2.86709142e+03  3.42380729e+02 -3.95492430e-03 -1.31641694e+07],958,1090.3628273925472
71,71,[-2.41322958e+03  3.45383795e+02 -3.73739273e-03 -1.31641694e+07],327,1094.6947969831829
72,72,[-2.41855131e+03  3.45384783e+02 -3.76846178e-03 -1.31641694e+07],766,1094.2214161494037
73,73,[-2.84971218e+03  3.42380670e+02 -4.17306654e-03 -1.31641694e+07],22,1091.9700305935978
74,74,[-2.62769519e+03  3.43381561e+02 -4.06140659e-03 -1.31641694e+07],245,1093.0352200825848
75,75,[-2.40369821e+03  3.45383967e+02 -3.65854109e-03 -1.31641694e+07],271,1094.9056430641979
76,76,[-2.47326477e+03  3.44382697e+02 -4.21989100e-03 -1.31641694e+07],359,1093.2943319717824
77,77,[-2.79574468e+03  3.42381109e+02 -4.07718307e-03 -1.31641694e+07],666,1091.1600180097996
78,78,[-2.51797419e+03  3.44383301e+02 -3.90817867e-03 -1.31641694e+07],137,1094.6506895849668
79,79,[-2.18330255e+03  3.46385006e+02 -3.77709625e-03 -1.31641694e+07],295,1094.387451821824
80,80,[-2.40253776e+03  3.45384970e+02 -3.74942621e-03 -1.31641694e+07],160,1094.531275828233
81,81,[-2.68534474e+03  3.43381644e+02 -3.77650285e-03 -1.31641694e+07],548,1089.4578563324083
82,82,[-2.50120178e+03  3.44382802e+02 -3.76999494e-03 -1.31641694e+07],57,1093.3184050478983
83,83,[-2.43639615e+03  3.44382702e+02 -4.38054636e-03 -1.31641694e+07],552,1094.3475247734464
84,84,[-2.48866366e+03  3.44382664e+02 -4.29048325e-03 -1.31641694e+07],1009,1094.6236677091224
85,85,[-2.83134846e+03  3.42380753e+02 -4.07320634e-03 -1.31641694e+07],234,1089.9642430280255
86,86,[-2.50448321e+03  3.44382669e+02 -4.06467654e-03 -1.31641694e+07],417,1094.8438961931522
87,87,[-2.38018494e+03  3.45383798e+02 -3.85029848e-03 -1.31641694e+07],536,1094.5968557621916
88,88,[-2.49956309e+03  3.44382835e+02 -4.28589977e-03 -1.31641694e+07],415,1094.5982311656117
89,89,[-2.33813495e+03  3.45383914e+02 -3.28618387e-03 -1.31641694e+07],433,1092.2357682578538
90,90,[-2.51593468e+03  3.44382729e+02 -3.66947819e-03 -1.31641694e+07],199,1092.9766142404596
91,91,[-2.63374375e+03  3.43381605e+02 -4.47339679e-03 -1.31641694e+07],153,1095.1291277365394
92,92,[-2.09951466e+03  3.47386033e+02 -3.36811848e-03 -1.31641694e+07],95,1094.9694376335221
93,93,[-2.39491981e+03  3.45384526e+02 -3.39203034e-03 -1.31641694e+07],725,1093.4699290810142
94,94,[-2.64319601e+03  3.43381759e+02 -3.88134176e-03 -1.31641694e+07],488,1093.0260028048199
95,95,[-2.43689728e+03  3.45383768e+02 -3.62010489e-03 -1.31641694e+07],364,1094.98862843693
96,96,[-2.52140461e+03  3.44383036e+02 -4.20354598e-03 -1.31641694e+07],329,1094.6068589381919
97,97,[-2.40439933e+03  3.45383903e+02 -3.36135998e-03 -1.31641694e+07],218,1092.1749160265992
98,98,[-2.63114715e+03  3.43381605e+02 -3.93966815e-03 -1.31641694e+07],942,1093.4930076816204
99,99,[-2.00401535e+03  3.48387717e+02 -3.02190844e-03 -1.31641694e+07],471,1094.8842669678922
100,100,[-2.37012074e+03  3.45383973e+02 -3.83706873e-03 -1.31641694e+07],714,1095.081576288342
101,101,[-2.79595899e+03  3.42380541e+02 -3.97364041e-03 -1.31641694e+07],92,1089.4338031349696
102,102,[-2.28140591e+03  3.45383830e+02 -3.76859210e-03 -1.31641694e+07],24,1095.1278737065534
103,103,[-2.43691771e+03  3.45384272e+02 -3.80864170e-03 -1.31641694e+07],202,1094.3436904358741
104,104,[-1.86580299e+03  3.49388623e+02 -2.50049021e-03 -1.31641694e+07],122,1094.088504155815
105,105,[-2.79462633e+03  3.42380736e+02 -4.00678012e-03 -1.31641694e+07],879,1089.8927065357518
106,106,[-2.07292707e+03  3.47386068e+02 -3.20089610e-03 -1.31641694e+07],372,1094.7083769063747
107,107,[-2.38887489e+03  3.45383973e+02 -3.76994632e-03 -1.31641694e+07],602,1095.152693897318
108,108,[-2.51382089e+03  3.44382993e+02 -3.89082821e-03 -1.31641694e+07],258,1094.2239429404403
109,109,[-2.66936610e+03  3.43381563e+02 -3.89059270e-03 -1.31641694e+07],582,1089.916176729804
110,110,[-2.50935478e+03  3.44382854e+02 -3.76619694e-03 -1.31641694e+07],365,1092.1796301005102
111,111,[-2.41944832e+03  3.45383955e+02 -3.56171442e-03 -1.31641694e+07],193,1094.7949241719455
112,112,[-1.88945530e+03  3.49388568e+02 -2.69974213e-03 -1.31641694e+07],435,1094.5622520913391
113,113,[-2.80504979e+03  3.42380639e+02 -4.22149333e-03 -1.31641694e+07],618,1094.1264304396252
114,114,[-2.53447217e+03  3.44382873e+02 -3.71624246e-03 -1.31641694e+07],378,1094.2219876935046
115,115,[-2.42435222e+03  3.45384503e+02 -3.74348613e-03 -1.31641694e+07],346,1095.3428933700498
116,116,[-2.09097600e+03  3.47386172e+02 -3.26675759e-03 -1.31641694e+07],992,1095.4632554319264
117,117,[-2.80649785e+03  3.42380675e+02 -4.11421406e-03 -1.31641694e+07],118,1090.2149669584971
118,118,[-2.63593219e+03  3.43381596e+02 -4.39003945e-03 -1.31641694e+07],949,1094.9428162527345
119,119,[-2.33731797e+03  3.45384091e+02 -4.10588121e-03 -1.31641694e+07],127,1094.0940457246334
120,120,[-1.99970697e+03  3.48387578e+02 -2.82129970e-03 -1.31641694e+07],475,1094.2339022210158
121,121,[-2.22549355e+03  3.46384948e+02 -3.13937438e-03 -1.31641694e+07],623,1093.6347355342468
122,122,[-2.28264428e+03  3.46385438e+02 -3.49465800e-03 -1.31641694e+07],325,1094.965583737446
123,123,[-2.29385859e+03  3.46385493e+02 -3.50933583e-03 -1.31641694e+07],270,1093.97008859037
124,124,[-2.91689748e+03  3.42380769e+02 -4.41277643e-03 -1.31641694e+07],851,1092.6650227112125
125,125,[-2.54612682e+03  3.44382657e+02 -3.71250471e-03 -1.31641694e+07],299,1093.4195227778064
126,126,[-2.45551849e+03  3.44383249e+02 -4.23394530e-03 -1.31641694e+07],75,1094.827732275355
127,127,[-1.88604835e+03  3.49389523e+02 -2.68910337e-03 -1.31641694e+07],703,1094.9314687498852
128,128,[-2.80397336e+03  3.42380476e+02 -4.24900444e-03 -1.31641694e+07],859,1092.1829879009224
129,129,[-1.99179050e+03  3.48387256e+02 -2.90314464e-03 -1.31641694e+07],320,1094.2306570904539
130,130,[-1.80246663e+03  3.50389358e+02 -2.73084216e-03 -1.31641694e+07],183,1093.606473260073
131,131,[-2.71507489e+03  3.43381723e+02 -3.87443306e-03 -1.31641694e+07],449,1092.6380768657182
132,132,[-1.86331684e+03  3.49388222e+02 -2.49706835e-03 -1.31641694e+07],99,1092.6296329849763
133,133,[-2.25145733e+03  3.46385206e+02 -3.29019814e-03 -1.31641694e+07],803,1094.7593593558713
134,134,[-2.00381586e+03  3.48387387e+02 -2.89781285e-03 -1.31641694e+07],172,1094.34062781781
135,135,[-2.53780956e+03  3.44382721e+02 -3.70293405e-03 -1.31641694e+07],366,1094.2370745161218
136,136,[-2.79235305e+03  3.42380551e+02 -4.16566900e-03 -1.31641694e+07],368,1093.4693852463934
137,137,[-2.27466507e+03  3.46385126e+02 -3.50643833e-03 -1.31641694e+07],158,1095.0246410142963
138,138,[-2.01217585e+03  3.48388402e+02 -3.02281541e-03 -1.31641694e+07],953,1094.8387543351298
139,139,[-2.72731198e+03  3.43381768e+02 -3.79155084e-03 -1.31641694e+07],404,1091.7922852066472
140,140,[-2.07473398e+03  3.47386747e+02 -3.12406296e-03 -1.31641694e+07],832,1094.7901646962175
141,141,[-2.51873959e+03  3.44382707e+02 -4.22553178e-03 -1.31641694e+07],165,1094.842765383482
142,142,[-1.88477438e+03  3.49388505e+02 -2.68185247e-03 -1.31641694e+07],943,1095.12605887835
143,143,[-2.81142745e+03  3.42380670e+02 -3.78472447e-03 -1.31641694e+07],206,1090.537821714759
144,144,[-2.38143952e+03  3.45384030e+02 -3.65134093e-03 -1.31641694e+07],917,1094.2429297972574
145,145,[-2.34320952e+03  3.45383761e+02 -4.06539741e-03 -1.31641694e+07],86,1093.6985471389064
146,146,[-2.37355102e+03  3.45383812e+02 -3.41310566e-03 -1.31641694e+07],141,1093.1053135272887
147,147,[-2.84781307e+03  3.42380432e+02 -4.07720687e-03 -1.31641694e+07],149,1089.187640279476
148,148,[-2.08310842e+03  3.47386124e+02 -3.27565878e-03 -1.31641694e+07],138,1094.8373996562495
149,149,[-2.52065907e+03  3.44382726e+02 -4.14853158e-03 -1.31641694e+07],148,1094.8399227270043
150,150,[-2.42053613e+03  3.45384371e+02 -3.56673972e-03 -1.31641694e+07],846,1093.8696098025544
151,151,[-2.87109159e+03  3.42380688e+02 -4.16161104e-03 -1.31641694e+07],954,1092.6585689966628
152,152,[-2.27879643e+03  3.46385179e+02 -3.42889139e-03 -1.31641694e+07],1002,1095.3181065683839
153,153,[-2.38555387e+03  3.45383916e+02 -3.77663025e-03 -1.31641694e+07],157,1094.9891557273763
154,154,[-1.99175129e+03  3.48387159e+02 -2.65943764e-03 -1.31641694e+07],126,1093.8787817308162
155,155,[-2.80131874e+03  3.42380430e+02 -3.93744926e-03 -1.31641694e+07],255,1089.5768350694852
156,156,[-2.50964660e+03  3.44382691e+02 -4.19354127e-03 -1.31641694e+07],179,1093.9756309975905
157,157,[-2.47483092e+03  3.44382867e+02 -4.15501408e-03 -1.31641694e+07],443,1094.8306205344654
158,158,[-2.26107501e+03  3.45385054e+02 -3.74739724e-03 -1.31641694e+07],1023,1094.868458181167
159,159,[-2.84338685e+03  3.42380815e+02 -4.21359810e-03 -1.31641694e+07],391,1091.2590972898665
160,160,[-1.99950282e+03  3.48387148e+02 -2.90094028e-03 -1.31641694e+07],414,1095.0220085633086
161,161,[-2.19328903e+03  3.46385409e+02 -3.74856760e-03 -1.31641694e+07],247,1094.5128534258404
162,162,[-1.99367715e+03  3.48387834e+02 -2.82360771e-03 -1.31641694e+07],30,1094.5316933969268
163,163,[-2.63847688e+03  3.43381874e+02 -3.70597526e-03 -1.31641694e+07],282,1091.7443047237807
164,164,[-2.09442815e+03  3.47386149e+02 -3.39270509e-03 -1.31641694e+07],895,1094.6861586189154
165,165,[-2.36777197e+03  3.45384108e+02 -3.85208649e-03 -1.31641694e+07],957,1094.858054078018
166,166,[-2.68206289e+03  3.43381752e+02 -3.72850278e-03 -1.31641694e+07],197,1092.6649678128877
167,167,[-2.78809726e+03  3.42380546e+02 -4.38937422e-03 -1.31641694e+07],377,1093.4136115349968
168,168,[-2.18588048e+03  3.46385583e+02 -3.68596838e-03 -1.31641694e+07],891,1094.7809512259926
169,169,[-2.48959775e+03  3.44382657e+02 -4.32906684e-03 -1.31641694e+07],111,1094.7160512741227
170,170,[-2.38367828e+03  3.45384735e+02 -3.58904652e-03 -1.31641694e+07],188,1093.7726164912942
171,171,[-1.98449491e+03  3.48387469e+02 -2.78215307e-03 -1.31641694e+07],382,1094.3998303987767
172,172,[-2.20121106e+03  3.46385414e+02 -3.85534982e-03 -1.31641694e+07],140,1094.883910969335
173,173,[-2.20947827e+03  3.46385493e+02 -3.85558376e-03 -1.31641694e+07],412,1094.459817163154
174,174,[-2.45419755e+03  3.44382825e+02 -3.49428337e-03 -1.31641694e+07],508,1089.7729480330356
175,175,[-2.40009910e+03  3.45383873e+02 -3.71434042e-03 -1.31641694e+07],286,1094.086432363709
176,176,[-2.38479740e+03  3.44382727e+02 -4.11594865e-03 -1.31641694e+07],168,1093.87243164329
177,177,[-2.50002993e+03  3.44383300e+02 -4.15264533e-03 -1.31641694e+07],49,1094.4542595821172
178,178,[-2.69186563e+03  3.43381703e+02 -3.96991810e-03 -1.31641694e+07],501,1092.81208514597
179,179,[-2.08731365e+03  3.47386069e+02 -3.32778085e-03 -1.31641694e+07],384,1094.8188606685596
180,180,[-2.37143308e+03  3.45383796e+02 -4.04700575e-03 -1.31641694e+07],294,1094.134226519994
181,181,[-2.36934952e+03  3.45384213e+02 -3.95930838e-03 -1.31641694e+07],385,1094.1850897990007
182,182,[-2.47399576e+03  3.44383168e+02 -3.45215281e-03 -1.31641694e+07],249,1092.4113406316314
183,183,[-2.38457698e+03  3.45383942e+02 -3.90677093e-03 -1.31641694e+07],363,1094.888060901501
184,184,[-2.24522989e+03  3.46385209e+02 -3.69195905e-03 -1.31641694e+07],491,1094.2877984658933
185,185,[-2.64549826e+03  3.43381685e+02 -3.65737676e-03 -1.31641694e+07],133,1091.130234930774
186,186,[-2.64787285e+03  3.43381589e+02 -4.02588616e-03 -1.31641694e+07],238,1094.3030442226404
187,187,[-2.09526100e+03  3.47386214e+02 -3.52819595e-03 -1.31641694e+07],493,1094.4834146785174
188,188,[-2.47133766e+03  3.44382800e+02 -4.28745949e-03 -1.31641694e+07],229,1094.792203450903
189,189,[-2.37626011e+03  3.45385034e+02 -3.44073659e-03 -1.31641694e+07],918,1093.9168651673276
190,190,[-2.78988321e+03  3.42380666e+02 -3.89899544e-03 -1.31641694e+07],839,1089.4876386716367
191,191,[-2.45105992e+03  3.44382988e+02 -3.82630386e-03 -1.31641694e+07],44,1094.10646112495
192,192,[-2.23461034e+03  3.46385620e+02 -3.70400551e-03 -1.31641694e+07],354,1094.4443441459057
193,193,[-2.14102053e+03  3.47386245e+02 -3.14079904e-03 -1.31641694e+07],289,1094.953866068643
194,194,[-2.79291229e+03  3.42380680e+02 -4.12301597e-03 -1.31641694e+07],465,1088.9838793307265
195,195,[-2.77622378e+03  3.42380519e+02 -4.06748458e-03 -1.31641694e+07],819,1089.6875817928312
196,196,[-1.98833900e+03  3.48387149e+02 -2.73581977e-03 -1.31641694e+07],380,1094.1448007130045
197,197,[-1.99484843e+03  3.48388247e+02 -2.98576160e-03 -1.31641694e+07],169,1094.796183659647
198,198,[-2.38336823e+03  3.45384275e+02 -4.05929358e-03 -1.31641694e+07],619,1093.797021833351
199,199,[-2.01008526e+03  3.48387255e+02 -2.87216445e-03 -1.31641694e+07],60,1094.991620193377
200,200,[-2.88759689e+03  3.42380575e+02 -4.14014341e-03 -1.31641694e+07],522,1089.2641011603118
201,201,[-2.41185323e+03  3.45383978e+02 -3.62665827e-03 -1.31641694e+07],503,1094.4781390549444
202,202,[-2.09883396e+03  3.47386298e+02 -3.32185036e-03 -1.31641694e+07],106,1094.9661471496584
203,203,[-2.00430611e+03  3.48387246e+02 -2.98854154e-03 -1.31641694e+07],310,1093.7006756949
204,204,[-2.83874563e+03  3.42380670e+02 -4.29280588e-03 -1.31641694e+07],335,1091.6106590390818
205,205,[-2.54096345e+03  3.44382679e+02 -3.88149587e-03 -1.31641694e+07],319,1095.2650854845263
206,206,[-2.00736873e+03  3.48387361e+02 -2.97743537e-03 -1.31641694e+07],71,1094.8510530962778
207,207,[-2.40641040e+03  3.45383769e+02 -3.72990461e-03 -1.31641694e+07],630,1094.207775163837
208,208,[-2.78402878e+03  3.42380636e+02 -3.78225648e-03 -1.31641694e+07],45,1087.9632519023855
209,209,[-2.17339676e+03  3.46385748e+02 -3.58315282e-03 -1.31641694e+07],506,1093.6057920746734
210,210,[-2.00415881e+03  3.48388493e+02 -2.95963424e-03 -1.31641694e+07],376,1093.9863191342645
211,211,[-2.00221428e+03  3.48388115e+02 -2.84035698e-03 -1.31641694e+07],164,1093.1575096868353
212,212,[-2.84835072e+03  3.42380470e+02 -4.12766218e-03 -1.31641694e+07],425,1091.0212970556333
213,213,[-2.40748333e+03  3.45383969e+02 -3.51768663e-03 -1.31641694e+07],344,1094.581263073094
214,214,[-2.51941827e+03  3.44382735e+02 -4.28433754e-03 -1.31641694e+07],307,1093.5587902669388
215,215,[-1.99069414e+03  3.48387287e+02 -2.75830039e-03 -1.31641694e+07],399,1094.271612148618
216,216,[-2.79298268e+03  3.42380986e+02 -4.13401699e-03 -1.31641694e+07],28,1092.7926050558274
217,217,[-2.63046221e+03  3.43381704e+02 -4.53060435e-03 -1.31641694e+07],318,1095.249417432033
218,218,[-2.50730828e+03  3.44383465e+02 -4.07068361e-03 -1.31641694e+07],528,1094.979140618237
219,219,[-2.69902988e+03  3.43381820e+02 -3.96136557e-03 -1.31641694e+07],950,1091.535276607553
220,220,[-1.86608699e+03  3.49388396e+02 -2.62982755e-03 -1.31641694e+07],298,1094.175230378462
221,221,[-2.24266880e+03  3.46385303e+02 -3.64900180e-03 -1.31641694e+07],408,1094.5719229608007
222,222,[-2.26857028e+03  3.45384322e+02 -3.91661550e-03 -1.31641694e+07],937,1094.414022524879
223,223,[-2.81894803e+03  3.42380461e+02 -4.17845554e-03 -1.31641694e+07],524,1090.9629003706625
224,224,[-2.09434264e+03  3.47386009e+02 -3.20712633e-03 -1.31641694e+07],65,1094.5688893714628
225,225,[-2.50370171e+03  3.44383487e+02 -4.42504016e-03 -1.31641694e+07],598,1093.9937986712212
226,226,[-2.45768548e+03  3.44382917e+02 -4.37294639e-03 -1.31641694e+07],1081,1094.2292046446173
227,227,[-2.81017215e+03  3.42381168e+02 -4.10377669e-03 -1.31641694e+07],406,1091.4478441934707
228,228,[-2.10144746e+03  3.47386286e+02 -3.05251492e-03 -1.31641694e+07],78,1094.0828813358698
229,229,[-2.22950800e+03  3.46385970e+02 -3.64218733e-03 -1.31641694e+07],43,1094.7449557536934
230,230,[-1.70234987e+03  3.51391030e+02 -2.72218800e-03 -1.31641694e+07],336,1094.506264882184
231,231,[-2.66346529e+03  3.43382352e+02 -3.81432984e-03 -1.31641694e+07],829,1090.9480171768132
232,232,[-2.82300107e+03  3.42380929e+02 -4.16105412e-03 -1.31641694e+07],927,1092.560808101556
233,233,[-2.00690156e+03  3.48387409e+02 -3.01431194e-03 -1.31641694e+07],235,1095.1215998444573
234,234,[-2.12245460e+03  3.47386202e+02 -3.51220946e-03 -1.31641694e+07],1042,1095.0032160727656
235,235,[-2.64349432e+03  3.43381559e+02 -4.35810330e-03 -1.31641694e+07],745,1094.6368017254326
236,236,[-2.82252239e+03  3.42380619e+02 -4.26497733e-03 -1.31641694e+07],9,1093.0682479949853
237,237,[-2.37063664e+03  3.45383974e+02 -3.90946715e-03 -1.31641694e+07],400,1095.094774126874
238,238,[-2.17890250e+03  3.46385267e+02 -3.67206100e-03 -1.31641694e+07],847,1094.7568157923647
239,239,[-2.85811086e+03  3.42380426e+02 -4.07032157e-03 -1.31641694e+07],84,1089.8837030482919
240,240,[-2.00622580e+03  3.48387351e+02 -2.98475231e-03 -1.31641694e+07],515,1095.3258057854455
241,241,[-2.00329470e+03  3.48387292e+02 -2.99394442e-03 -1.31641694e+07],518,1094.0058013269902
242,242,[-2.67150268e+03  3.43381702e+02 -3.94979736e-03 -1.31641694e+07],478,1090.6717430450817
243,243,[-2.37077324e+03  3.45383876e+02 -3.33965440e-03 -1.31641694e+07],516,1094.1570567594397
244,244,[-2.48212346e+03  3.44382725e+02 -4.44483004e-03 -1.31641694e+07],6,1094.183691973485
245,245,[-2.28893256e+03  3.45384887e+02 -3.89083348e-03 -1.31641694e+07],397,1095.0479586747044
246,246,[-2.60821025e+03  3.43382049e+02 -3.88675929e-03 -1.31641694e+07],961,1092.9672765686332
247,247,[-2.18007736e+03  3.46385400e+02 -3.71979209e-03 -1.31641694e+07],867,1094.8119471800258
248,248,[-2.25624188e+03  3.45384116e+02 -4.07935076e-03 -1.31641694e+07],434,1094.4469891400086
249,249,[-2.19021243e+03  3.46385036e+02 -3.77476861e-03 -1.31641694e+07],999,1094.771049761852
250,250,[-2.68278766e+03  3.43381772e+02 -3.95718575e-03 -1.31641694e+07],41,1093.0998699739514
251,251,[-1.86764992e+03  3.49388604e+02 -2.59687697e-03 -1.31641694e+07],746,1094.4153039530268
252,252,[-1.89161297e+03  3.49389007e+02 -2.81417888e-03 -1.31641694e+07],96,1093.988961014908
253,253,[-1.99447105e+03  3.48387185e+02 -2.99264285e-03 -1.31641694e+07],1085,1093.9983694838688
254,254,[-2.66206275e+03  3.43381539e+02 -3.84088130e-03 -1.31641694e+07],447,1092.7006162788537
255,255,[-1.98247691e+03  3.48387781e+02 -2.85794408e-03 -1.31641694e+07],88,1094.8251235189578
256,256,[-2.46935649e+03  3.44383240e+02 -4.42810268e-03 -1.31641694e+07],87,1094.5297595470424
257,257,[-2.07322968e+03  3.47386396e+02 -3.38505333e-03 -1.31641694e+07],285,1094.5817424755865
258,258,[-2.00017424e+03  3.48387771e+02 -2.98470326e-03 -1.31641694e+07],651,1094.957336203564
259,259,[-2.64888116e+03  3.43381550e+02 -3.76197758e-03 -1.31641694e+07],257,1090.1591481385492
260,260,[-2.82448363e+03  3.42380442e+02 -3.95599357e-03 -1.31641694e+07],477,1088.5591890123064
261,261,[-2.99753194e+03  3.41379347e+02 -4.21157484e-03 -1.31641694e+07],213,1089.5143730755753
262,262,[-2.87309423e+03  3.42380696e+02 -4.22471929e-03 -1.31641694e+07],7,1092.216159043106
263,263,[-3.29685470e+03  3.40378283e+02 -5.20632196e-03 -1.31641694e+07],457,1093.5711400256
264,264,[-2.65706810e+03  3.43381552e+02 -3.92745469e-03 -1.31641694e+07],922,1093.2564952254725
265,265,[-2.42136601e+03  3.45383811e+02 -3.52013390e-03 -1.31641694e+07],833,1094.155617047224
266,266,[-2.30605399e+03  3.46384948e+02 -3.61904832e-03 -1.31641694e+07],221,1093.0199769119308
267,267,[-2.17569934e+03  3.46385751e+02 -3.84268142e-03 -1.31641694e+07],718,1093.4363981119352
268,268,[-2.82274961e+03  3.42380658e+02 -4.25516801e-03 -1.31641694e+07],845,1093.2495688870272
269,269,[-2.77379991e+03  3.42380586e+02 -4.31420909e-03 -1.31641694e+07],224,1092.2837444084284
270,270,[-1.99778136e+03  3.48387131e+02 -2.91578214e-03 -1.31641694e+07],112,1094.9118807122848
271,271,[-2.11050655e+03  3.47386223e+02 -3.40552676e-03 -1.31641694e+07],984,1095.0457790553023
272,272,[-2.25056033e+03  3.46385290e+02 -3.40315255e-03 -1.31641694e+07],682,1094.3553076023595
273,273,[-2.52391645e+03  3.44383020e+02 -3.67524103e-03 -1.31641694e+07],419,1092.2064462246929
274,274,[-2.10982894e+03  3.47386209e+02 -2.99531774e-03 -1.31641694e+07],774,1094.4501530135817
275,275,[-2.00150678e+03  3.48387150e+02 -3.00718232e-03 -1.31641694e+07],323,1095.0812807905572
276,276,[-2.30899145e+03  3.46385251e+02 -3.60976226e-03 -1.31641694e+07],500,1094.3114044482077
277,277,[-2.50341228e+03  3.44383549e+02 -4.41637348e-03 -1.31641694e+07],51,1094.3342779968395
278,278,[-2.24966191e+03  3.46385144e+02 -3.22971738e-03 -1.31641694e+07],529,1094.427601458254
279,279,[-2.49924201e+03  3.44382707e+02 -3.81875537e-03 -1.31641694e+07],513,1093.478557894456
280,280,[-2.01394572e+03  3.48387455e+02 -2.99890410e-03 -1.31641694e+07],52,1095.195570023163
281,281,[-2.16349452e+03  3.47386070e+02 -3.36550452e-03 -1.31641694e+07],311,1093.8605362841415
282,282,[-2.01466463e+03  3.48387211e+02 -2.91282849e-03 -1.31641694e+07],1058,1094.8024946762996
283,283,[-1.86276409e+03  3.49388407e+02 -2.49678730e-03 -1.31641694e+07],1054,1091.842717982942
284,284,[-2.69632280e+03  3.42380703e+02 -4.90898691e-03 -1.31641694e+07],162,1095.0850964217873
285,285,[-2.00812275e+03  3.48387682e+02 -3.05163134e-03 -1.31641694e+07],80,1094.5862929828504
286,286,[-2.11859664e+03  3.47386809e+02 -3.05744076e-03 -1.31641694e+07],256,1094.7815128869333
287,287,[-2.47938848e+03  3.44383651e+02 -3.47620212e-03 -1.31641694e+07],1034,1091.9369215667696
288,288,[-2.82584106e+03  3.42380503e+02 -4.14535146e-03 -1.31641694e+07],463,1092.399776244388
289,289,[-2.52818372e+03  3.44383054e+02 -3.83672471e-03 -1.31641694e+07],481,1094.7337027959115
290,290,[-2.57503716e+03  3.43382209e+02 -4.59737960e-03 -1.31641694e+07],448,1094.5027675362696
291,291,[-2.53956297e+03  3.44382672e+02 -4.31301239e-03 -1.31641694e+07],930,1093.6879573935487
292,292,[-2.84089391e+03  3.42381028e+02 -4.22331809e-03 -1.31641694e+07],312,1090.0210408822618
293,293,[-1.99753882e+03  3.48387112e+02 -2.89708503e-03 -1.31641694e+07],161,1094.486470383627
294,294,[-1.89449133e+03  3.49388288e+02 -2.81470959e-03 -1.31641694e+07],324,1094.7729724464123
295,295,[-1.89858794e+03  3.49388238e+02 -2.82870359e-03 -1.31641694e+07],626,1095.0220745644353
296,296,[-2.09765309e+03  3.47386142e+02 -2.90988440e-03 -1.31641694e+07],230,1091.179138664659
297,297,[-2.66765258e+03  3.43381593e+02 -3.95475364e-03 -1.31641694e+07],11,1094.3556271863383
298,298,[-2.26416198e+03  3.45384515e+02 -4.01622028e-03 -1.31641694e+07],290,1094.6702517217036
299,299,[-1.99513840e+03  3.48387221e+02 -2.83581662e-03 -1.31641694e+07],826,1094.9091446778416
300,300,[-2.85512892e+03  3.42380683e+02 -4.16977360e-03 -1.31641694e+07],61,1091.3921784048912
301,301,[-2.27965910e+03  3.45384062e+02 -3.77688029e-03 -1.31641694e+07],418,1095.3244683494443
302,302,[-1.79204136e+03  3.50389879e+02 -2.70467143e-03 -1.31641694e+07],888,1094.431381110721
303,303,[-2.27978827e+03  3.46384889e+02 -3.42622458e-03 -1.31641694e+07],610,1095.3520689872507
304,304,[-2.63351544e+03  3.43382242e+02 -3.66441714e-03 -1.31641694e+07],842,1090.8338608786087
305,305,[-2.11296522e+03  3.47386717e+02 -3.10216245e-03 -1.31641694e+07],68,1094.311247716356
306,306,[-2.34858997e+03  3.45383926e+02 -4.09167277e-03 -1.31641694e+07],768,1094.0474551603786
307,307,[-2.48554778e+03  3.44382756e+02 -4.31399985e-03 -1.31641694e+07],875,1094.680322093458
308,308,[-2.66432396e+03  3.43381735e+02 -3.93279430e-03 -1.31641694e+07],293,1092.300726667232
309,309,[-2.45525328e+03  3.44383242e+02 -3.66719196e-03 -1.31641694e+07],706,1093.1192830772038
310,310,[-1.99470912e+03  3.48387231e+02 -2.95768427e-03 -1.31641694e+07],570,1094.701275559823
311,311,[-2.26910570e+03  3.45383761e+02 -3.81667418e-03 -1.31641694e+07],533,1094.5394631704667
312,312,[-2.00453831e+03  3.48387158e+02 -2.96882222e-03 -1.31641694e+07],187,1094.517468567491
313,313,[-2.81361119e+03  3.42380467e+02 -4.23642446e-03 -1.31641694e+07],37,1092.4990236955161
314,314,[-2.00000238e+03  3.48387428e+02 -2.92312735e-03 -1.31641694e+07],201,1095.201531116669
315,315,[-2.11931093e+03  3.47386686e+02 -3.52847473e-03 -1.31641694e+07],603,1094.4192396357093
316,316,[-2.51651222e+03  3.44382678e+02 -4.39241654e-03 -1.31641694e+07],691,1093.1127233705317
317,317,[-2.81257973e+03  3.42380468e+02 -4.17558262e-03 -1.31641694e+07],47,1090.9814057907765
318,318,[-1.97901850e+03  3.48387648e+02 -2.91870628e-03 -1.31641694e+07],460,1094.676007945975
319,319,[-2.01273863e+03  3.48387148e+02 -3.20882790e-03 -1.31641694e+07],890,1094.7005035439486
320,320,[-2.18567588e+03  3.46385101e+02 -3.79899914e-03 -1.31641694e+07],947,1094.8950617682085
321,321,[-2.24049480e+03  3.46385183e+02 -3.35750836e-03 -1.31641694e+07],791,1092.6430891870295
322,322,[-1.86560519e+03  3.49388404e+02 -2.61192685e-03 -1.31641694e+07],756,1094.1952962446353
323,323,[-2.00107889e+03  3.48387215e+02 -3.02440185e-03 -1.31641694e+07],661,1094.5515997369341
324,324,[-2.18463492e+03  3.46385145e+02 -3.84464686e-03 -1.31641694e+07],173,1094.5126578762506
325,325,[-2.50315926e+03  3.44382829e+02 -3.90049878e-03 -1.31641694e+07],374,1094.9284393019275
326,326,[-2.33439178e+03  3.45384374e+02 -3.28274742e-03 -1.31641694e+07],1050,1091.8696105621293
327,327,[-2.00393217e+03  3.48387243e+02 -2.97489636e-03 -1.31641694e+07],458,1095.0621033712882
328,328,[-2.51151252e+03  3.44382901e+02 -4.37030704e-03 -1.31641694e+07],855,1093.5271893966767
329,329,[-2.00654003e+03  3.48387197e+02 -2.83617837e-03 -1.31641694e+07],177,1094.9795098254392
330,330,[-2.31792628e+03  3.45384001e+02 -3.30296662e-03 -1.31641694e+07],438,1093.1233034512993
331,331,[-2.45160948e+03  3.44382688e+02 -4.33746051e-03 -1.31641694e+07],274,1094.3851575937038
332,332,[-2.50751696e+03  3.44382786e+02 -4.37156494e-03 -1.31641694e+07],248,1093.9760265070888
333,333,[-2.32623431e+03  3.45383784e+02 -3.27514391e-03 -1.31641694e+07],1071,1092.259846540371
334,334,[-2.31512910e+03  3.45384268e+02 -3.46996489e-03 -1.31641694e+07],192,1093.9714409992948
335,335,[-2.20171809e+03  3.46385468e+02 -3.77988939e-03 -1.31641694e+07],505,1094.7006182606394
336,336,[-2.20563740e+03  3.46385350e+02 -3.75456857e-03 -1.31641694e+07],841,1094.6492662330477
337,337,[-2.75163935e+03  3.42380607e+02 -3.81209889e-03 -1.31641694e+07],483,1090.8607723373655
338,338,[-1.99225575e+03  3.48387389e+02 -2.97600377e-03 -1.31641694e+07],350,1095.2982260710407
339,339,[-2.29626916e+03  3.45384105e+02 -3.81737445e-03 -1.31641694e+07],612,1093.0163662827501
340,340,[-2.68777123e+03  3.43381608e+02 -3.92906850e-03 -1.31641694e+07],1033,1092.0884228220598
341,341,[-2.63890314e+03  3.43382307e+02 -3.88001029e-03 -1.31641694e+07],302,1093.09060238573
342,342,[-2.01209900e+03  3.48387214e+02 -2.93603611e-03 -1.31641694e+07],278,1095.3291039657952
343,343,[-2.51976029e+03  3.44383083e+02 -4.33938845e-03 -1.31641694e+07],514,1094.2804204256609
344,344,[-2.00353694e+03  3.48388108e+02 -2.90815695e-03 -1.31641694e+07],556,1094.6804670906713
345,345,[-2.58728110e+03  3.43382057e+02 -3.80594296e-03 -1.31641694e+07],315,1093.0819919424237
346,346,[-2.11313731e+03  3.47386039e+02 -3.39034227e-03 -1.31641694e+07],1000,1094.94412266307
347,347,[-2.03607219e+03  3.48387384e+02 -3.18391045e-03 -1.31641694e+07],951,1093.4872281735916
348,348,[-2.25488563e+03  3.46384916e+02 -3.13561336e-03 -1.31641694e+07],251,1092.8771840728864
349,349,[-2.25249349e+03  3.46385109e+02 -3.20397300e-03 -1.31641694e+07],222,1094.3461391925855
350,350,[-1.88315221e+03  3.49388340e+02 -2.74969718e-03 -1.31641694e+07],821,1094.4376346934496
351,351,[-2.45433550e+03  3.44382938e+02 -4.47163575e-03 -1.31641694e+07],525,1092.8022038822305
352,352,[-1.88798327e+03  3.49388277e+02 -2.67520594e-03 -1.31641694e+07],962,1094.3892939158657
353,353,[-2.59342815e+03  3.43381633e+02 -3.80973270e-03 -1.31641694e+07],710,1091.468567243053
354,354,[-2.11281137e+03  3.47386043e+02 -3.15916623e-03 -1.31641694e+07],816,1094.740635536955
355,355,[-2.69660676e+03  3.43381631e+02 -4.76462709e-03 -1.31641694e+07],747,1094.2933548931153
356,356,[-2.20195961e+03  3.46385273e+02 -3.71552958e-03 -1.31641694e+07],476,1095.313129063266
357,357,[-2.34082667e+03  3.45384040e+02 -3.16916768e-03 -1.31641694e+07],453,1091.8791966049098
358,358,[-2.80118752e+03  3.42380942e+02 -4.10041052e-03 -1.31641694e+07],171,1092.0830894217
359,359,[-2.37947526e+03  3.45383843e+02 -3.65188322e-03 -1.31641694e+07],48,1095.0365692895991
360,360,[-2.00389405e+03  3.48387433e+02 -3.01839612e-03 -1.31641694e+07],688,1094.345484779013
361,361,[-2.19647141e+03  3.46385585e+02 -3.77805511e-03 -1.31641694e+07],913,1095.0822447613175
362,362,[-2.40584016e+03  3.45383778e+02 -3.32241107e-03 -1.31641694e+07],352,1091.9444629847437
363,363,[-2.06237602e+03  3.47386161e+02 -3.24866683e-03 -1.31641694e+07],575,1094.7650251900952
364,364,[-2.01498208e+03  3.48387804e+02 -3.12849085e-03 -1.31641694e+07],79,1094.9795226154406
365,365,[-2.64227360e+03  3.42380627e+02 -5.25170843e-03 -1.31641694e+07],388,1094.9565088306185
366,366,[-2.27711137e+03  3.45384316e+02 -4.05300308e-03 -1.31641694e+07],542,1094.880214476392
367,367,[-2.61951730e+03  3.43381868e+02 -3.84765133e-03 -1.31641694e+07],331,1091.7283015340083
368,368,[-2.49225778e+03  3.44383213e+02 -3.96346790e-03 -1.31641694e+07],843,1094.8743503791636
369,369,[-2.51383678e+03  3.44383185e+02 -4.32811132e-03 -1.31641694e+07],935,1093.6215620221885
370,370,[-1.80049199e+03  3.50389416e+02 -2.74510197e-03 -1.31641694e+07],421,1093.1725509522805
371,371,[-2.81299435e+03  3.42380672e+02 -4.21746348e-03 -1.31641694e+07],446,1092.142564604189
372,372,[-1.99028359e+03  3.48387479e+02 -2.89136352e-03 -1.31641694e+07],639,1094.9617983269002
373,373,[-2.46144498e+03  3.44383289e+02 -4.47379375e-03 -1.31641694e+07],1026,1094.2142736967498
374,374,[-2.30743630e+03  3.45383794e+02 -4.05127132e-03 -1.31641694e+07],511,1094.4576734921995
375,375,[-1.86209521e+03  3.49388282e+02 -2.50673184e-03 -1.31641694e+07],1013,1092.3837552799355
376,376,[-1.98433792e+03  3.48387239e+02 -2.91607927e-03 -1.31641694e+07],442,1094.6864114544446
377,377,[-2.25027804e+03  3.45383882e+02 -4.14525348e-03 -1.31641694e+07],531,1094.7959129079377
378,378,[-2.01912749e+03  3.48387451e+02 -2.99002816e-03 -1.31641694e+07],297,1094.949387599356
379,379,[-2.94254983e+03  3.41379520e+02 -4.11225377e-03 -1.31641694e+07],272,1090.4278224289965
380,380,[-2.17939565e+03  3.46385025e+02 -3.81693523e-03 -1.31641694e+07],699,1094.7227012200206
381,381,[-1.89742517e+03  3.49388466e+02 -2.87458806e-03 -1.31641694e+07],83,1092.8707890179269
382,382,[-1.99815402e+03  3.48387800e+02 -2.80480513e-03 -1.31641694e+07],349,1094.7918145499204
383,383,[-1.87190583e+03  3.49388710e+02 -2.63857283e-03 -1.31641694e+07],360,1094.3369688108792
384,384,[-2.29536265e+03  3.45384502e+02 -4.17295406e-03 -1.31641694e+07],103,1094.7733299908434
385,385,[-2.09991017e+03  3.46385023e+02 -3.41819918e-03 -1.31641694e+07],134,1094.772449821326
386,386,[-2.46288546e+03  3.44383049e+02 -3.50901214e-03 -1.31641694e+07],852,1092.446572262425
387,387,[-2.54301929e+03  3.41379327e+02 -5.18202842e-03 -1.31641694e+07],532,1095.3343082657375
388,388,[-2.11689368e+03  3.46384995e+02 -3.53095231e-03 -1.31641694e+07],383,1094.386272487794
389,389,[-2.00957641e+03  3.48388117e+02 -3.29188015e-03 -1.31641694e+07],277,1094.23723685144
390,390,[-2.22032308e+03  3.46384883e+02 -3.23201876e-03 -1.31641694e+07],778,1093.920770532896
391,391,[-1.86905848e+03  3.49388345e+02 -2.59871845e-03 -1.31641694e+07],587,1094.814324591688
392,392,[-2.47328839e+03  3.44383252e+02 -4.51333188e-03 -1.31641694e+07],466,1093.4683635908984
393,393,[-2.19346649e+03  3.46384914e+02 -3.76517886e-03 -1.31641694e+07],1082,1095.1618369274186
394,394,[-2.77546386e+03  3.42381137e+02 -4.12686661e-03 -1.31641694e+07],276,1092.8983942002187
395,395,[-1.99736625e+03  3.48387194e+02 -3.01667627e-03 -1.31641694e+07],305,1094.2267594781956
396,396,[-2.30335576e+03  3.45384034e+02 -3.86749798e-03 -1.31641694e+07],23,1093.7326073406816
397,397,[-2.27278935e+03  3.45383796e+02 -3.74310197e-03 -1.31641694e+07],674,1094.6173345145783
398,398,[-2.80668898e+03  3.42380702e+02 -4.01321175e-03 -1.31641694e+07],1070,1089.9212267257017
399,399,[-2.79316011e+03  3.42380682e+02 -4.35923803e-03 -1.31641694e+07],650,1094.677653365126
400,400,[-2.18291525e+03  3.46384980e+02 -3.77902813e-03 -1.31641694e+07],186,1094.6275294874138
401,401,[-2.35246764e+03  3.44382901e+02 -4.37091187e-03 -1.31641694e+07],830,1094.1211803785002
402,402,[-2.01145299e+03  3.48387234e+02 -3.00601648e-03 -1.31641694e+07],472,1095.1120810738394
403,403,[-2.80907739e+03  3.42380744e+02 -4.07839687e-03 -1.31641694e+07],585,1092.063232465724
404,404,[-2.73922183e+03  3.42380498e+02 -4.69097195e-03 -1.31641694e+07],355,1094.8653831111767
405,405,[-2.56155591e+03  3.43381977e+02 -4.65464319e-03 -1.31641694e+07],413,1094.1166564903479
406,406,[-1.79602645e+03  3.50389604e+02 -2.73167620e-03 -1.31641694e+07],1097,1094.6580414028665
407,407,[-2.66979806e+03  3.43381820e+02 -3.85483388e-03 -1.31641694e+07],184,1092.7826594164992
408,408,[-1.87760076e+03  3.49388238e+02 -2.70583087e-03 -1.31641694e+07],701,1094.66967455665
409,409,[-2.20807014e+03  3.46386140e+02 -3.85299071e-03 -1.31641694e+07],343,1093.6036023794065
410,410,[-2.01108681e+03  3.48387780e+02 -3.07451875e-03 -1.31641694e+07],820,1095.0913060986707
411,411,[-2.60153876e+03  3.43382244e+02 -3.72856571e-03 -1.31641694e+07],541,1090.5996811294622
412,412,[-2.34694119e+03  3.45383912e+02 -3.68087531e-03 -1.31641694e+07],569,1094.786579487538
413,413,[-2.59348852e+03  3.42381413e+02 -5.16672159e-03 -1.31641694e+07],662,1094.2929928020164
414,414,[-2.19796303e+03  3.46385117e+02 -3.79673990e-03 -1.31641694e+07],215,1094.8121985198327
415,415,[-2.23857019e+03  3.46385009e+02 -3.32930726e-03 -1.31641694e+07],907,1094.9960317905038
416,416,[-2.80883241e+03  3.42380624e+02 -4.07207063e-03 -1.31641694e+07],32,1092.4605947192645
417,417,[-1.99275097e+03  3.48387471e+02 -2.85641813e-03 -1.31641694e+07],611,1095.0011891224744
418,418,[-2.27056282e+03  3.45384214e+02 -4.13120531e-03 -1.31641694e+07],692,1094.4966691168415
419,419,[-2.51084644e+03  3.44382712e+02 -4.24488754e-03 -1.31641694e+07],741,1094.5561397301174
420,420,[-1.87211850e+03  3.49388549e+02 -2.57238284e-03 -1.31641694e+07],780,1093.7577603563352
421,421,[-1.97774612e+03  3.48387215e+02 -2.78201818e-03 -1.31641694e+07],827,1094.3777104771543
422,422,[-2.11467085e+03  3.47386099e+02 -3.44651507e-03 -1.31641694e+07],994,1094.1145414781433
423,423,[-1.90069099e+03  3.49388419e+02 -2.83164020e-03 -1.31641694e+07],605,1093.965829177058
424,424,[-2.64730357e+03  3.43382149e+02 -3.69528509e-03 -1.31641694e+07],144,1091.8482762778171
425,425,[-2.51225271e+03  3.44382891e+02 -3.83156056e-03 -1.31641694e+07],33,1094.6829241996982
426,426,[-2.00149177e+03  3.48387860e+02 -2.98007339e-03 -1.31641694e+07],751,1093.5059786356644
427,427,[-2.25869207e+03  3.46384940e+02 -3.65136581e-03 -1.31641694e+07],389,1094.223787499223
428,428,[-2.78126663e+03  3.42380574e+02 -3.74436897e-03 -1.31641694e+07],135,1088.7230503005726
429,429,[-2.49407418e+03  3.44382940e+02 -3.87156297e-03 -1.31641694e+07],914,1095.1924411438092
430,430,[-2.50138499e+03  3.44383325e+02 -4.62219439e-03 -1.31641694e+07],938,1093.1760191138283
431,431,[-2.20078074e+03  3.46384932e+02 -3.83525753e-03 -1.31641694e+07],120,1094.0236604926902
432,432,[-2.35286480e+03  3.45384310e+02 -3.22973596e-03 -1.31641694e+07],904,1092.3478877162129
433,433,[-2.73077390e+03  3.42380553e+02 -4.88032099e-03 -1.31641694e+07],898,1094.9927158199355
434,434,[-2.21442170e+03  3.46385401e+02 -3.83407996e-03 -1.31641694e+07],129,1094.615303119318
435,435,[-2.36834654e+03  3.44382748e+02 -4.25295476e-03 -1.31641694e+07],226,1094.9517813523776
436,436,[-1.86377012e+03  3.49389492e+02 -2.56438092e-03 -1.31641694e+07],395,1093.2429952938526
437,437,[-2.00774047e+03  3.48387280e+02 -3.04748687e-03 -1.31641694e+07],108,1095.0812441218504
438,438,[-2.46636785e+03  3.44382674e+02 -4.40968604e-03 -1.31641694e+07],427,1094.4514515313024
439,439,[-2.56520707e+03  3.43381566e+02 -4.78355754e-03 -1.31641694e+07],737,1094.045836321803
440,440,[-1.86604954e+03  3.49388470e+02 -2.49573830e-03 -1.31641694e+07],114,1092.0057093861478
441,441,[-1.87699443e+03  3.49388666e+02 -2.71037602e-03 -1.31641694e+07],72,1095.1408916591836
442,442,[-2.30883128e+03  3.45384611e+02 -3.84068466e-03 -1.31641694e+07],474,1094.3585112070477
443,443,[-2.49868065e+03  3.44382932e+02 -4.23875346e-03 -1.31641694e+07],373,1094.8182038867958
444,444,[-2.84959825e+03  3.42380508e+02 -4.15518868e-03 -1.31641694e+07],579,1091.4540279071482
445,445,[-2.00799348e+03  3.48387313e+02 -2.92886259e-03 -1.31641694e+07],207,1095.2349807345506
446,446,[-2.00671451e+03  3.48387401e+02 -2.99376015e-03 -1.31641694e+07],1065,1094.3775340283935
447,447,[-1.88656228e+03  3.49388266e+02 -2.67142864e-03 -1.31641694e+07],21,1094.5989727881197
448,448,[-1.87113996e+03  3.49388810e+02 -2.60596986e-03 -1.31641694e+07],461,1094.5253338583036
449,449,[-2.01189982e+03  3.48387258e+02 -3.00931524e-03 -1.31641694e+07],722,1094.8848348764025
450,450,[-1.89112475e+03  3.49388509e+02 -2.79719349e-03 -1.31641694e+07],322,1093.7504549106357
451,451,[-2.74602236e+03  3.43381679e+02 -3.79926967e-03 -1.31641694e+07],996,1093.1451261637587
452,452,[-1.99715017e+03  3.48387194e+02 -2.96625019e-03 -1.31641694e+07],537,1095.1417005525916
453,453,[-1.90111545e+03  3.49388360e+02 -2.84946501e-03 -1.31641694e+07],815,1094.4000355836674
454,454,[-2.54322885e+03  3.44382653e+02 -4.01393569e-03 -1.31641694e+07],941,1095.0758851606017
455,455,[-2.63290371e+03  3.43381630e+02 -3.67596687e-03 -1.31641694e+07],181,1090.52550670782
456,456,[-2.53087059e+03  3.44382767e+02 -3.99541104e-03 -1.31641694e+07],1014,1095.2860589285037
457,457,[-1.89780962e+03  3.49388738e+02 -2.81282679e-03 -1.31641694e+07],244,1094.577248198219
458,458,[-1.88776068e+03  3.49389001e+02 -2.66261664e-03 -1.31641694e+07],1004,1094.4565149081832
459,459,[-2.80510843e+03  3.42380576e+02 -4.12915787e-03 -1.31641694e+07],886,1092.498572636935
460,460,[-2.48758333e+03  3.44382859e+02 -4.28098100e-03 -1.31641694e+07],40,1094.474944445342
461,461,[-2.30909303e+03  3.45383862e+02 -3.88338722e-03 -1.31641694e+07],620,1094.2019799983764
462,462,[-2.40842168e+03  3.45383908e+02 -3.58663650e-03 -1.31641694e+07],220,1093.6730093786423
463,463,[-1.98770263e+03  3.48387237e+02 -2.83131971e-03 -1.31641694e+07],770,1094.5254196891515
464,464,[-2.21410895e+03  3.46384891e+02 -3.82208601e-03 -1.31641694e+07],981,1093.5548849174377
465,465,[-2.49282401e+03  3.44383068e+02 -4.33219872e-03 -1.31641694e+07],690,1094.733347657498
466,466,[-2.48337576e+03  3.44382675e+02 -3.87629053e-03 -1.31641694e+07],963,1094.3217962353588
467,467,[-2.49066615e+03  3.44382677e+02 -3.93937474e-03 -1.31641694e+07],489,1095.0908217282954
468,468,[-2.20359000e+03  3.46385507e+02 -3.81476760e-03 -1.31641694e+07],753,1094.1069012411888
469,469,[-1.79334591e+03  3.50389741e+02 -2.73021563e-03 -1.31641694e+07],1052,1094.0998995692728
470,470,[-2.48182070e+03  3.44382886e+02 -3.49274771e-03 -1.31641694e+07],243,1091.0940000830483
471,471,[-1.87171490e+03  3.49388489e+02 -2.60144697e-03 -1.31641694e+07],752,1094.9748037334234
472,472,[-2.51085973e+03  3.44383254e+02 -4.32822554e-03 -1.31641694e+07],265,1094.3012032098638
473,473,[-2.24434463e+03  3.45383850e+02 -4.13286046e-03 -1.31641694e+07],53,1093.7200665896564
474,474,[-1.87281261e+03  3.49388556e+02 -2.60476347e-03 -1.31641694e+07],617,1094.2213813358082
475,475,[-2.49455171e+03  3.44382739e+02 -3.70475122e-03 -1.31641694e+07],743,1094.9312580838307
476,476,[-2.54036171e+03  3.44382989e+02 -4.27172528e-03 -1.31641694e+07],196,1094.4023409718475
477,477,[-2.27780772e+03  3.45383813e+02 -4.16775881e-03 -1.31641694e+07],543,1094.5817070992673
478,478,[-2.27257926e+03  3.45383855e+02 -4.00356560e-03 -1.31641694e+07],69,1094.6215686265193
479,479,[-2.77443278e+03  3.42380451e+02 -3.93590933e-03 -1.31641694e+07],180,1090.0822835768379
480,480,[-1.98992738e+03  3.48387367e+02 -2.81391107e-03 -1.31641694e+07],919,1095.1378467593993
481,481,[-2.17737995e+03  3.46385073e+02 -3.74151389e-03 -1.31641694e+07],113,1094.5253790833797
482,482,[-1.89749194e+03  3.49388625e+02 -2.83780156e-03 -1.31641694e+07],509,1094.017414863053
483,483,[-1.86625866e+03  3.49388223e+02 -2.59360376e-03 -1.31641694e+07],734,1094.4379283982191
484,484,[-2.97114902e+03  3.41379339e+02 -4.19497886e-03 -1.31641694e+07],835,1086.0881180268216
485,485,[-2.94830578e+03  3.41379368e+02 -4.22609772e-03 -1.31641694e+07],593,1088.1291123461733
486,486,[-2.79799893e+03  3.42380540e+02 -4.04205847e-03 -1.31641694e+07],401,1091.4558772333774
487,487,[-2.66772139e+03  3.43381997e+02 -4.18131527e-03 -1.31641694e+07],599,1095.1974433876155
488,488,[-2.55883661e+03  3.44382687e+02 -3.91638821e-03 -1.31641694e+07],405,1094.9829085411018
489,489,[-2.53262260e+03  3.44383299e+02 -4.08036786e-03 -1.31641694e+07],705,1094.167781629503
490,490,[-1.90792579e+03  3.49388753e+02 -2.89124125e-03 -1.31641694e+07],422,1092.798710959708
491,491,[-2.38209010e+03  3.45384459e+02 -3.56593067e-03 -1.31641694e+07],550,1094.7646364395146
492,492,[-2.78804415e+03  3.42381079e+02 -3.97024702e-03 -1.31641694e+07],1077,1091.3812603419772
493,493,[-2.18587081e+03  3.46384958e+02 -3.62660664e-03 -1.31641694e+07],1048,1094.752652709229
494,494,[-2.49811588e+03  3.44382881e+02 -4.39164022e-03 -1.31641694e+07],502,1093.9693497728265
495,495,[-2.51220803e+03  3.44383290e+02 -4.42407588e-03 -1.31641694e+07],468,1093.765405462038
496,496,[-1.98451273e+03  3.48388082e+02 -2.80350027e-03 -1.31641694e+07],191,1094.0226893812699
497,497,[-2.69132526e+03  3.42380709e+02 -4.92044769e-03 -1.31641694e+07],727,1095.0916005715521
498,498,[-2.61542542e+03  3.43381968e+02 -4.99005091e-03 -1.31641694e+07],808,1093.084325012881
499,499,[-2.22321717e+03  3.46385612e+02 -3.68972580e-03 -1.31641694e+07],469,1094.048832979181
500,500,[-2.22317844e+03  3.46385169e+02 -3.22818592e-03 -1.31641694e+07],119,1094.5506076501451
501,501,[-2.28357047e+03  3.45384231e+02 -4.04068322e-03 -1.31641694e+07],1031,1094.7736541344188
502,502,[-1.88812560e+03  3.49388488e+02 -2.83473326e-03 -1.31641694e+07],715,1094.1099758537923
503,503,[-1.88638406e+03  3.49389019e+02 -2.78813816e-03 -1.31641694e+07],104,1094.7112195625225
504,504,[-2.63346984e+03  3.43381562e+02 -4.03530115e-03 -1.31641694e+07],549,1092.5718121524835
505,505,[-2.28041852e+03  3.45383921e+02 -4.08420352e-03 -1.31641694e+07],175,1094.4391509641384
506,506,[-2.26514115e+03  3.45383983e+02 -4.04837810e-03 -1.31641694e+07],228,1094.6879789110926
507,507,[-2.00320928e+03  3.48387300e+02 -2.99540079e-03 -1.31641694e+07],809,1095.4829778749481
508,508,[-2.34186973e+03  3.45384315e+02 -3.44376134e-03 -1.31641694e+07],755,1094.7865228144663
509,509,[-2.22829767e+03  3.45384490e+02 -4.07918047e-03 -1.31641694e+07],915,1094.1258798426068
510,510,[-2.21027242e+03  3.46384915e+02 -3.87051736e-03 -1.31641694e+07],738,1094.0602827850712
511,511,[-2.41780121e+03  3.45384443e+02 -3.64549156e-03 -1.31641694e+07],1094,1094.3660305004614
512,512,[-1.99129097e+03  3.48387099e+02 -2.84192464e-03 -1.31641694e+07],551,1095.1911022895417
513,513,[-2.28725655e+03  3.45383924e+02 -4.16412681e-03 -1.31641694e+07],858,1094.5482024861728
514,514,[-2.01263681e+03  3.48387918e+02 -3.16225889e-03 -1.31641694e+07],521,1094.4246177158527
515,515,[-1.99408675e+03  3.48387715e+02 -2.80426335e-03 -1.31641694e+07],735,1094.6225666606317
516,516,[-1.98748376e+03  3.48387735e+02 -2.80484325e-03 -1.31641694e+07],645,1094.6207371353212
517,517,[-2.48608769e+03  3.44382712e+02 -4.36507205e-03 -1.31641694e+07],510,1093.8813200842606
518,518,[-1.90334024e+03  3.49388290e+02 -2.82592082e-03 -1.31641694e+07],534,1094.6216801378735
519,519,[-1.99156613e+03  3.48387106e+02 -2.78417149e-03 -1.31641694e+07],499,1093.779075053726
520,520,[-2.00295692e+03  3.48387218e+02 -2.97780926e-03 -1.31641694e+07],306,1095.2192705365255
521,521,[-2.00546716e+03  3.48387519e+02 -3.08026447e-03 -1.31641694e+07],439,1094.069860053805
522,522,[-2.12759964e+03  3.46385698e+02 -3.57417707e-03 -1.31641694e+07],1007,1094.712179186397
523,523,[-1.88361191e+03  3.49388667e+02 -2.68963551e-03 -1.31641694e+07],825,1093.8158720960064
524,524,[-2.31671271e+03  3.45384890e+02 -3.91268604e-03 -1.31641694e+07],431,1094.668130555148
525,525,[-1.79108761e+03  3.50389525e+02 -2.71554302e-03 -1.31641694e+07],1078,1094.4067840361722
526,526,[-1.70609426e+03  3.51392222e+02 -2.75964674e-03 -1.31641694e+07],496,1093.8675229044493
527,527,[-1.87019951e+03  3.49388678e+02 -2.55826436e-03 -1.31641694e+07],772,1093.731711093351
528,528,[-2.49265644e+03  3.44383133e+02 -3.85295846e-03 -1.31641694e+07],853,1094.672752313021
529,529,[-2.21296701e+03  3.46385325e+02 -3.71641035e-03 -1.31641694e+07],482,1094.5496637805181
530,530,[-1.90632681e+03  3.49388436e+02 -2.83469117e-03 -1.31641694e+07],8,1093.3625232060917
531,531,[-1.79324299e+03  3.50389479e+02 -2.67558690e-03 -1.31641694e+07],802,1094.3564808953035
532,532,[-1.87239599e+03  3.49388791e+02 -2.61722969e-03 -1.31641694e+07],241,1094.3381140020488
533,533,[-2.60248569e+03  3.43381687e+02 -4.74641474e-03 -1.31641694e+07],657,1094.48347492145
534,534,[-2.48849888e+03  3.44383044e+02 -4.46716581e-03 -1.31641694e+07],807,1094.0555113355258
535,535,[-2.36899931e+03  3.45383866e+02 -3.53607145e-03 -1.31641694e+07],658,1093.4618397548054
536,536,[-1.98133168e+03  3.48387218e+02 -2.82531176e-03 -1.31641694e+07],253,1094.9994244392446
537,537,[-2.21754372e+03  3.46384993e+02 -3.88209216e-03 -1.31641694e+07],539,1094.187859711941
538,538,[-2.51326383e+03  3.44382965e+02 -4.43132885e-03 -1.31641694e+07],225,1093.493688109052
539,539,[-2.69720785e+03  3.43381916e+02 -4.01314301e-03 -1.31641694e+07],252,1093.9952378398664
540,540,[-1.97558668e+03  3.48388200e+02 -2.72510580e-03 -1.31641694e+07],56,1093.3931349901072
541,541,[-2.47002188e+03  3.44383140e+02 -4.38655349e-03 -1.31641694e+07],210,1094.2766955029954
542,542,[-2.47696616e+03  3.44382731e+02 -4.44093864e-03 -1.31641694e+07],1024,1094.3859521115085
543,543,[-1.98236950e+03  3.48387479e+02 -2.78584664e-03 -1.31641694e+07],887,1094.1422965978693
544,544,[-2.81350071e+03  3.42381121e+02 -4.15090093e-03 -1.31641694e+07],967,1088.946862676724
545,545,[-2.37849842e+03  3.44383338e+02 -3.98997654e-03 -1.31641694e+07],332,1093.4928614529995
546,546,[-2.27973553e+03  3.45383935e+02 -3.72674741e-03 -1.31641694e+07],156,1093.7133613194512
547,547,[-2.20549756e+03  3.46386146e+02 -3.80153524e-03 -1.31641694e+07],1035,1093.930583981609
548,548,[-2.40268130e+03  3.45384065e+02 -3.60595210e-03 -1.31641694e+07],334,1095.0174381852048
549,549,[-2.65034169e+03  3.43381646e+02 -3.99996998e-03 -1.31641694e+07],123,1094.086802662341
550,550,[-2.50596205e+03  3.44382687e+02 -4.36379762e-03 -1.31641694e+07],494,1094.1125413299822
551,551,[-2.51149940e+03  3.44382858e+02 -4.32278384e-03 -1.31641694e+07],749,1094.0734790769902
552,552,[-2.19308991e+03  3.46385492e+02 -3.70128688e-03 -1.31641694e+07],423,1095.0120691842656
553,553,[-1.87292125e+03  3.49388297e+02 -2.67284898e-03 -1.31641694e+07],940,1093.3703184620815
554,554,[-2.46871674e+03  3.44382977e+02 -4.61993658e-03 -1.31641694e+07],1021,1092.4147286093955
555,555,[-2.48375492e+03  3.44382813e+02 -4.43902600e-03 -1.31641694e+07],1083,1093.3802519303258
556,556,[-1.78934809e+03  3.50389327e+02 -2.66918307e-03 -1.31641694e+07],776,1094.4197872806578
557,557,[-2.77105509e+03  3.42380627e+02 -4.12710319e-03 -1.31641694e+07],1095,1092.4000735194902
558,558,[-2.00586389e+03  3.48387852e+02 -2.99356749e-03 -1.31641694e+07],903,1093.8925350994402
559,559,[-2.25597631e+03  3.45383801e+02 -4.12443087e-03 -1.31641694e+07],547,1093.0697215866796
560,560,[-2.06921755e+03  3.47386252e+02 -3.45394911e-03 -1.31641694e+07],966,1093.0596671053017
561,561,[-1.98233329e+03  3.48387484e+02 -2.79069071e-03 -1.31641694e+07],390,1091.6066080706144
562,562,[-2.62299772e+03  3.43382052e+02 -3.89761906e-03 -1.31641694e+07],189,1089.7948229691203
563,563,[-1.89419330e+03  3.49388393e+02 -2.79089026e-03 -1.31641694e+07],1091,1090.748398564504
564,564,[-2.30932103e+03  3.45383909e+02 -3.78407679e-03 -1.31641694e+07],729,1091.011734685567
565,565,[-2.27037184e+03  3.46385071e+02 -3.35924488e-03 -1.31641694e+07],594,1093.2748239260566
566,566,[-2.65258201e+03  3.43381896e+02 -3.82612215e-03 -1.31641694e+07],580,1091.3497559735658
567,567,[-1.89153572e+03  3.49388668e+02 -2.76771324e-03 -1.31641694e+07],1087,1092.7862224246715
568,568,[-2.16611705e+03  3.47386620e+02 -3.42856080e-03 -1.31641694e+07],1066,1091.8368234277664
569,569,[-2.00109384e+03  3.48387691e+02 -2.78643679e-03 -1.31641694e+07],558,1094.2757679295503
570,570,[-1.98645892e+03  3.48387250e+02 -2.74704321e-03 -1.31641694e+07],871,1094.4857820484144
571,571,[-1.99556856e+03  3.48387097e+02 -2.91373706e-03 -1.31641694e+07],517,1093.639106387796
572,572,[-2.50533180e+03  3.44382801e+02 -4.23865402e-03 -1.31641694e+07],154,1093.7754082185693
573,573,[-1.87309449e+03  3.49389453e+02 -2.56350476e-03 -1.31641694e+07],760,1091.9636504246757
574,574,[-1.87889063e+03  3.49388247e+02 -2.68707416e-03 -1.31641694e+07],1096,1093.6315931850183
575,575,[-2.50829572e+03  3.44382794e+02 -4.23992180e-03 -1.31641694e+07],35,1094.3875816913385
576,576,[-1.79433405e+03  3.50389785e+02 -2.72556613e-03 -1.31641694e+07],693,1093.7533210119177
577,577,[-1.87031348e+03  3.49388955e+02 -2.62457904e-03 -1.31641694e+07],654,1093.7943228969166
578,578,[-1.86893582e+03  3.49388769e+02 -2.60742227e-03 -1.31641694e+07],176,1093.5867985260725
579,579,[-2.52270326e+03  3.44382687e+02 -4.39922780e-03 -1.31641694e+07],150,1094.2098127789616
580,580,[-2.33188213e+03  3.45384086e+02 -4.00122633e-03 -1.31641694e+07],969,1093.9102697531396
581,581,[-1.88209282e+03  3.49388487e+02 -2.68747262e-03 -1.31641694e+07],526,1093.8497495610213
582,582,[-1.78884831e+03  3.50389590e+02 -2.70836138e-03 -1.31641694e+07],812,1094.9569917432896
583,583,[-2.46402897e+03  3.44383041e+02 -4.59055618e-03 -1.31641694e+07],678,1093.3466110663703
584,584,[-2.20713073e+03  3.46386176e+02 -3.68990466e-03 -1.31641694e+07],900,1093.5939840769845
585,585,[-1.87596621e+03  3.49388256e+02 -2.58502899e-03 -1.31641694e+07],649,1094.2951552429686
586,586,[-2.07084739e+03  3.47386438e+02 -3.28375386e-03 -1.31641694e+07],281,1095.1309955333672
587,587,[-2.26296037e+03  3.45384169e+02 -4.04745001e-03 -1.31641694e+07],5,1094.327609288356
588,588,[-2.30642124e+03  3.45383882e+02 -4.40499599e-03 -1.31641694e+07],581,1092.5629659191356
589,589,[-2.23552140e+03  3.46385592e+02 -3.09617173e-03 -1.31641694e+07],663,1092.5857495640562
590,590,[-1.88314402e+03  3.49389054e+02 -2.72999467e-03 -1.31641694e+07],67,1093.566194442438
591,591,[-2.29455949e+03  3.45384377e+02 -4.34865210e-03 -1.31641694e+07],1027,1093.6611900808487
592,592,[-2.49883678e+03  3.44382746e+02 -4.49863860e-03 -1.31641694e+07],606,1091.9152645420454
593,593,[-2.00823043e+03  3.48387649e+02 -2.89296995e-03 -1.31641694e+07],1010,1094.1227115669112
594,594,[-1.86635172e+03  3.49388292e+02 -2.53183099e-03 -1.31641694e+07],924,1093.9116289281812
595,595,[-2.28567305e+03  3.45384239e+02 -4.19373840e-03 -1.31641694e+07],1092,1092.9239260588874
596,596,[-2.13249479e+03  3.47386332e+02 -3.45635896e-03 -1.31641694e+07],1019,1093.7246791344623
597,597,[-1.86510967e+03  3.49388377e+02 -2.50073012e-03 -1.31641694e+07],901,1092.7224645997853
598,598,[-2.14707480e+03  3.46385224e+02 -3.66311107e-03 -1.31641694e+07],848,1094.667283395543
599,599,[-2.25310990e+03  3.45383899e+02 -3.97754629e-03 -1.31641694e+07],1043,1094.1185787987636
600,600,[-1.89183467e+03  3.49388282e+02 -2.76654239e-03 -1.31641694e+07],985,1092.4681747677803
601,601,[-1.86948318e+03  3.49388437e+02 -2.56638944e-03 -1.31641694e+07],928,1093.512012663449
602,602,[-1.98771088e+03  3.48387304e+02 -2.84267782e-03 -1.31641694e+07],523,1094.9614765636038
603,603,[-1.89482089e+03  3.49388417e+02 -2.83177582e-03 -1.31641694e+07],604,1094.4768804358926
604,604,[-2.52160172e+03  3.43381547e+02 -4.68964552e-03 -1.31641694e+07],1074,1093.8139324689876
605,605,[-1.87478211e+03  3.49388341e+02 -2.57747060e-03 -1.31641694e+07],700,1094.2438687635552
606,606,[-2.00951029e+03  3.48387112e+02 -2.93430213e-03 -1.31641694e+07],982,1093.83890082295
607,607,[-2.02221991e+03  3.48387190e+02 -3.04098872e-03 -1.31641694e+07],675,1092.3877169035543
608,608,[-2.30238110e+03  3.45384046e+02 -4.37341359e-03 -1.31641694e+07],198,1091.6749689146818
609,609,[-2.22373623e+03  3.46385155e+02 -3.04158058e-03 -1.31641694e+07],36,1093.2234143057822
610,610,[-2.55992278e+03  3.43381707e+02 -4.80803683e-03 -1.31641694e+07],577,1094.4924241675822
611,611,[-2.28563779e+03  3.45383807e+02 -4.06641720e-03 -1.31641694e+07],55,1094.2647048934207
612,612,[-2.61098889e+03  3.43381930e+02 -4.71772501e-03 -1.31641694e+07],863,1094.434273634718
613,613,[-2.70059225e+03  3.43381721e+02 -3.81183410e-03 -1.31641694e+07],800,1091.5499720379794
614,614,[-2.22395635e+03  3.46385365e+02 -3.34654776e-03 -1.31641694e+07],519,1095.481514121646
615,615,[-2.26785214e+03  3.46385183e+02 -3.58112994e-03 -1.31641694e+07],1088,1092.7273317580534
616,616,[-2.29863394e+03  3.45383817e+02 -4.21925931e-03 -1.31641694e+07],572,1092.0508212964592
617,617,[-1.87686937e+03  3.49388499e+02 -2.59759923e-03 -1.31641694e+07],170,1094.1494873360728
618,618,[-1.87145384e+03  3.49388299e+02 -2.62191856e-03 -1.31641694e+07],495,1094.9501103184296
619,619,[-2.25347210e+03  3.45384321e+02 -4.01237329e-03 -1.31641694e+07],1016,1094.714714021968
620,620,[-2.15180377e+03  3.46385511e+02 -3.84442308e-03 -1.31641694e+07],420,1094.1758892201854
621,621,[-2.20858502e+03  3.46385164e+02 -3.52825698e-03 -1.31641694e+07],960,1095.3149796082528
622,622,[-2.32262219e+03  3.45384154e+02 -3.33699227e-03 -1.31641694e+07],576,1093.3729373342867
623,623,[-1.78862673e+03  3.50389567e+02 -2.68694940e-03 -1.31641694e+07],911,1094.9284462269427
624,624,[-1.80127039e+03  3.50389495e+02 -2.76796375e-03 -1.31641694e+07],450,1091.0300294269862
625,625,[-2.25745735e+03  3.45384385e+02 -4.05434078e-03 -1.31641694e+07],711,1093.2955199415471
626,626,[-1.86810368e+03  3.49388632e+02 -2.55675456e-03 -1.31641694e+07],856,1094.506467908595
627,627,[-2.52538220e+03  3.44383143e+02 -4.33511077e-03 -1.31641694e+07],897,1092.9389340749055
628,628,[-2.32188479e+03  3.45384003e+02 -4.07218358e-03 -1.31641694e+07],1059,1092.5164914313048
629,629,[-1.87077524e+03  3.49389380e+02 -2.50591027e-03 -1.31641694e+07],811,1092.0843370744067
630,630,[-2.49997839e+03  3.43381930e+02 -4.67709877e-03 -1.31641694e+07],695,1094.6886083830811
631,631,[-2.24886200e+03  3.45383790e+02 -4.02476919e-03 -1.31641694e+07],1012,1093.4375010843567
632,632,[-1.79781780e+03  3.50389419e+02 -2.71991654e-03 -1.31641694e+07],396,1092.5019048642148
633,633,[-1.86896443e+03  3.49388581e+02 -2.52706225e-03 -1.31641694e+07],527,1090.8066544022145
634,634,[-1.89006400e+03  3.49388666e+02 -2.82039825e-03 -1.31641694e+07],596,1095.1730840116425
635,635,[-2.35264064e+03  3.44382725e+02 -4.39856468e-03 -1.31641694e+07],1089,1092.811558843659
636,636,[-1.91992252e+03  3.49388308e+02 -3.14623365e-03 -1.31641694e+07],933,1091.0367323597766
637,637,[-1.86594428e+03  3.49388240e+02 -2.52398974e-03 -1.31641694e+07],473,1093.0242962066538
638,638,[-1.86413475e+03  3.49388364e+02 -2.63441604e-03 -1.31641694e+07],1062,1095.0842973965105
639,639,[-2.00786617e+03  3.48387333e+02 -3.10049714e-03 -1.31641694e+07],795,1094.376521851985
640,640,[-2.13653933e+03  3.46384976e+02 -3.50144966e-03 -1.31641694e+07],546,1092.6553430390043
641,641,[-1.87142064e+03  3.49388403e+02 -2.54453316e-03 -1.31641694e+07],723,1093.4992781510757
642,642,[-1.88036675e+03  3.49388246e+02 -2.74513086e-03 -1.31641694e+07],203,1095.3013340378936
643,643,[-2.39129250e+03  3.45383811e+02 -4.08644044e-03 -1.31641694e+07],145,1091.9987835843517
644,644,[-2.14652923e+03  3.46385236e+02 -3.68097634e-03 -1.31641694e+07],1018,1092.9034278885244
645,645,[-1.87496008e+03  3.49388254e+02 -2.58829238e-03 -1.31641694e+07],1075,1094.06186568489
646,646,[-1.99021021e+03  3.48387495e+02 -2.94477702e-03 -1.31641694e+07],291,1095.4033593396043
647,647,[-2.11244393e+03  3.47386376e+02 -3.50728317e-03 -1.31641694e+07],894,1093.1436798624497
648,648,[-2.52070709e+03  3.44383010e+02 -4.58604902e-03 -1.31641694e+07],794,1092.8071506335266
649,649,[-1.97955410e+03  3.48387498e+02 -2.80147402e-03 -1.31641694e+07],1005,1093.8618256572295
650,650,[-1.98105606e+03  3.48387275e+02 -2.76401623e-03 -1.31641694e+07],462,1094.3047903117392
651,651,[-2.01865028e+03  3.48387183e+02 -3.02991881e-03 -1.31641694e+07],787,1094.5835597840671
652,652,[-2.34084460e+03  3.45384606e+02 -3.95820373e-03 -1.31641694e+07],1006,1092.0065050448757
653,653,[-1.98375002e+03  3.48387314e+02 -2.92023226e-03 -1.31641694e+07],667,1093.328667103779
654,654,[-1.87625048e+03  3.49388358e+02 -2.58018812e-03 -1.31641694e+07],591,1093.872728814543
655,655,[-1.88841087e+03  3.49388812e+02 -2.77848404e-03 -1.31641694e+07],655,1093.6469122476244
656,656,[-2.28451107e+03  3.45384536e+02 -4.16695550e-03 -1.31641694e+07],689,1092.7974275843599
657,657,[-2.47134665e+03  3.44382743e+02 -4.06513257e-03 -1.31641694e+07],571,1094.002014020326
658,658,[-1.86861443e+03  3.49388847e+02 -2.63351648e-03 -1.31641694e+07],959,1093.9998776708344
659,659,[-2.20862024e+03  3.46384952e+02 -3.83862737e-03 -1.31641694e+07],121,1093.390626189404
660,660,[-2.27836507e+03  3.45383894e+02 -4.05729807e-03 -1.31641694e+07],574,1092.6864180898556
661,661,[-1.87651303e+03  3.49388639e+02 -2.59268122e-03 -1.31641694e+07],1056,1094.4617776205237
662,662,[-1.86885898e+03  3.49388247e+02 -2.61996747e-03 -1.31641694e+07],998,1094.2733103587093
663,663,[-2.41525996e+03  3.45383786e+02 -3.88888383e-03 -1.31641694e+07],779,1093.847686908754
664,664,[-2.30326372e+03  3.45384112e+02 -4.07749710e-03 -1.31641694e+07],968,1092.6962075694346
665,665,[-2.00112844e+03  3.48387403e+02 -2.73026826e-03 -1.31641694e+07],670,1093.0986617969822
666,666,[-1.78590697e+03  3.50389524e+02 -2.68465558e-03 -1.31641694e+07],369,1095.0319229528116
667,667,[-2.51803674e+03  3.44383001e+02 -4.38000303e-03 -1.31641694e+07],730,1093.6697747121423
668,668,[-2.32742679e+03  3.45383954e+02 -3.86730637e-03 -1.31641694e+07],1017,1093.500277416277
669,669,[-2.79852255e+03  3.42380648e+02 -3.91915906e-03 -1.31641694e+07],964,1090.848097911018
670,670,[-2.11490116e+03  3.47386373e+02 -3.02553354e-03 -1.31641694e+07],130,1093.6224523365124
671,671,[-2.00786425e+03  3.48387435e+02 -2.95182349e-03 -1.31641694e+07],209,1092.711769616
672,672,[-1.79472269e+03  3.50390459e+02 -2.73266288e-03 -1.31641694e+07],409,1092.2327170579704
673,673,[-1.98586913e+03  3.48387282e+02 -2.66409184e-03 -1.31641694e+07],1079,1092.4111441451516
674,674,[-1.86764867e+03  3.49389364e+02 -2.57510088e-03 -1.31641694e+07],1030,1094.309742932676
675,675,[-2.01224839e+03  3.48387153e+02 -2.99120767e-03 -1.31641694e+07],828,1093.7972029087061
676,676,[-2.50233693e+03  3.44382765e+02 -4.30398323e-03 -1.31641694e+07],584,1093.092354398448
677,677,[-1.86468908e+03  3.49388693e+02 -2.49935994e-03 -1.31641694e+07],1064,1092.173193671968
678,678,[-2.00484228e+03  3.48387208e+02 -2.92518558e-03 -1.31641694e+07],739,1093.8671101649109
679,679,[-2.33972593e+03  3.44383643e+02 -4.41243520e-03 -1.31641694e+07],921,1091.4934981178608
680,680,[-2.34969719e+03  3.45383852e+02 -4.05575920e-03 -1.31641694e+07],799,1092.9148533987513
681,681,[-2.80109587e+03  3.42380784e+02 -4.20283058e-03 -1.31641694e+07],578,1092.4604296058396
682,682,[-1.98729807e+03  3.48387379e+02 -2.78669160e-03 -1.31641694e+07],1032,1094.5572026230573
683,683,[-2.27625052e+03  3.46384934e+02 -3.35632484e-03 -1.31641694e+07],1060,1092.0634021931542
684,684,[-1.70732374e+03  3.51391240e+02 -2.77444282e-03 -1.31641694e+07],20,1092.9065063909645
685,685,[-2.51674301e+03  3.44382960e+02 -3.52911668e-03 -1.31641694e+07],263,1092.0813666683557
686,686,[-2.11826435e+03  3.47386876e+02 -3.28451225e-03 -1.31641694e+07],590,1093.197706086842
687,687,[-1.90536101e+03  3.49388350e+02 -2.84134511e-03 -1.31641694e+07],214,1091.6086152825922
688,688,[-1.87647856e+03  3.49388614e+02 -2.74934265e-03 -1.31641694e+07],726,1094.3983130414513
689,689,[-2.46149991e+03  3.44382957e+02 -3.48892918e-03 -1.31641694e+07],944,1093.64199300954
690,690,[-2.37329622e+03  3.45384991e+02 -4.00666696e-03 -1.31641694e+07],464,1094.1700018192535
691,691,[-2.37779506e+03  3.45383804e+02 -3.96800168e-03 -1.31641694e+07],58,1094.476635787348
692,692,[-2.41419610e+03  3.45383954e+02 -3.78208516e-03 -1.31641694e+07],882,1094.262814591217
693,693,[-2.54632060e+03  3.44383361e+02 -3.73472603e-03 -1.31641694e+07],997,1093.872853794365
694,694,[-1.96142623e+03  3.48387349e+02 -2.51546027e-03 -1.31641694e+07],64,1091.6595701462022
695,695,[-2.58314451e+03  3.44383359e+02 -3.96181670e-03 -1.31641694e+07],775,1093.7407014055655
696,696,[-2.47025912e+03  3.45384480e+02 -3.68791399e-03 -1.31641694e+07],1047,1092.961476082579
697,697,[-2.37312123e+03  3.45384055e+02 -4.02560390e-03 -1.31641694e+07],1051,1091.6237058404215
698,698,[-2.77969644e+03  3.42380444e+02 -4.12592979e-03 -1.31641694e+07],713,1090.163475016134
699,699,[-2.41916874e+03  3.45383863e+02 -3.70975408e-03 -1.31641694e+07],328,1094.3523770144427
700,700,[-2.54834185e+03  3.44382759e+02 -4.22496651e-03 -1.31641694e+07],1001,1093.8056590151307
701,701,[-2.75569928e+03  3.43381863e+02 -4.51684047e-03 -1.31641694e+07],1041,1094.2873179464557
702,702,[-2.66886527e+03  3.43382138e+02 -3.68294693e-03 -1.31641694e+07],601,1091.1029171083921
703,703,[-2.42301487e+03  3.45384075e+02 -3.67344523e-03 -1.31641694e+07],1008,1094.9027694786469
704,704,[-2.41378386e+03  3.45384289e+02 -4.04765443e-03 -1.31641694e+07],426,1093.4776458526892
705,705,[-2.22885631e+03  3.46385105e+02 -3.14777383e-03 -1.31641694e+07],929,1094.1149777875994
706,706,[-2.63434449e+03  3.43381576e+02 -3.96094813e-03 -1.31641694e+07],668,1094.4861542398398
707,707,[-2.58800200e+03  3.44382717e+02 -4.28715456e-03 -1.31641694e+07],641,1092.5756938548404
708,708,[-2.30512364e+03  3.46385327e+02 -3.45839667e-03 -1.31641694e+07],955,1092.166515490836
709,709,[-2.53739492e+03  3.44382901e+02 -3.56438889e-03 -1.31641694e+07],538,1092.9783143959557
710,710,[-2.01277432e+03  3.48387389e+02 -2.93068284e-03 -1.31641694e+07],98,1094.4048905218676
711,711,[-2.35979001e+03  3.45384132e+02 -3.98793622e-03 -1.31641694e+07],545,1093.7496285720235
712,712,[-2.41109912e+03  3.45384406e+02 -3.84767089e-03 -1.31641694e+07],976,1093.4792648771313
713,713,[-2.56757109e+03  3.44382754e+02 -3.75390328e-03 -1.31641694e+07],347,1093.5279373242101
714,714,[-2.53855106e+03  3.44382667e+02 -3.92472900e-03 -1.31641694e+07],712,1094.9744627931073
715,715,[-2.13730669e+03  3.47386041e+02 -3.40366306e-03 -1.31641694e+07],279,1094.0895889939602
716,716,[-2.41332818e+03  3.45383997e+02 -3.89451405e-03 -1.31641694e+07],704,1092.750607560038
717,717,[-2.59641366e+03  3.44383180e+02 -3.82883161e-03 -1.31641694e+07],1037,1093.3524794808875
718,718,[-2.42253448e+03  3.45384769e+02 -3.65724036e-03 -1.31641694e+07],93,1094.5716193128198
719,719,[-2.12556873e+03  3.47387019e+02 -3.22673198e-03 -1.31641694e+07],136,1092.7484219642117
720,720,[-2.47455193e+03  3.45383998e+02 -3.68131327e-03 -1.31641694e+07],392,1092.7431253863538
721,721,[-1.99996140e+03  3.48387593e+02 -2.89721445e-03 -1.31641694e+07],535,1093.041490934102
722,722,[-2.10722834e+03  3.47386162e+02 -2.93559349e-03 -1.31641694e+07],771,1094.195565442975
723,723,[-2.54623686e+03  3.44383170e+02 -4.28595543e-03 -1.31641694e+07],765,1093.710467566943
724,724,[-2.43670237e+03  3.45384236e+02 -3.72052749e-03 -1.31641694e+07],631,1093.2728528303153
725,725,[-2.55533658e+03  3.44383531e+02 -3.87809723e-03 -1.31641694e+07],267,1094.984306364363
726,726,[-2.52210243e+03  3.44383069e+02 -3.51397490e-03 -1.31641694e+07],814,1093.5587507717566
727,727,[-2.44852328e+03  3.45383891e+02 -3.63113416e-03 -1.31641694e+07],923,1094.1042151237039
728,728,[-2.24296087e+03  3.46384930e+02 -3.57478828e-03 -1.31641694e+07],1036,1092.593284160214
729,729,[-2.54216327e+03  3.44382863e+02 -3.73920387e-03 -1.31641694e+07],125,1093.912756939338
730,730,[-2.59234419e+03  3.44383084e+02 -3.80323981e-03 -1.31641694e+07],167,1093.6180230103253
731,731,[-2.56325648e+03  3.44383506e+02 -4.28964199e-03 -1.31641694e+07],792,1092.9684104453763
732,732,[-2.44050533e+03  3.45383901e+02 -3.97957995e-03 -1.31641694e+07],906,1092.5256333504751
733,733,[-2.52048754e+03  3.44382813e+02 -3.48785276e-03 -1.31641694e+07],540,1092.2778293979595
734,734,[-2.69996570e+03  3.43382217e+02 -3.97327453e-03 -1.31641694e+07],659,1094.1253249611123
735,735,[-2.37562802e+03  3.45383888e+02 -4.01234243e-03 -1.31641694e+07],991,1094.0690250186751
736,736,[-2.46416912e+03  3.45384026e+02 -3.99073922e-03 -1.31641694e+07],555,1091.4254017668825
737,737,[-2.45254824e+03  3.45384628e+02 -3.56849881e-03 -1.31641694e+07],980,1094.2222856106023
738,738,[-2.64122005e+03  3.43381757e+02 -3.90339163e-03 -1.31641694e+07],622,1094.0751034047603
739,739,[-2.45591794e+03  3.45384004e+02 -3.69725496e-03 -1.31641694e+07],553,1093.5914791532507
740,740,[-2.56378545e+03  3.44382692e+02 -4.12571923e-03 -1.31641694e+07],530,1092.587829259942
741,741,[-2.39931739e+03  3.45383935e+02 -3.37868103e-03 -1.31641694e+07],834,1094.2602802869565
742,742,[-2.22554760e+03  3.46385320e+02 -3.32553494e-03 -1.31641694e+07],1025,1095.1167885495518
743,743,[-2.36202696e+03  3.45383926e+02 -3.98196655e-03 -1.31641694e+07],34,1094.1483926993528
744,744,[-2.55509137e+03  3.44382821e+02 -4.28019792e-03 -1.31641694e+07],12,1093.192597573794
745,745,[-2.55465963e+03  3.44382800e+02 -3.72016727e-03 -1.31641694e+07],717,1094.633841520092
746,746,[-2.70413948e+03  3.43381613e+02 -4.05149716e-03 -1.31641694e+07],939,1094.6088130665016
747,747,[-2.57084430e+03  3.44382679e+02 -4.23995247e-03 -1.31641694e+07],849,1094.4038997928685
748,748,[-2.46780090e+03  3.45383895e+02 -3.94678885e-03 -1.31641694e+07],759,1091.9064347203039
749,749,[-2.52452950e+03  3.44382707e+02 -3.55609328e-03 -1.31641694e+07],925,1093.9669412248895
750,750,[-2.55036783e+03  3.44382714e+02 -3.90266645e-03 -1.31641694e+07],583,1095.1227487869153
751,751,[-2.47801562e+03  3.44382700e+02 -4.12149718e-03 -1.31641694e+07],63,1094.2384274739488
752,752,[-2.55368821e+03  3.44382715e+02 -4.37091205e-03 -1.31641694e+07],934,1094.155684233897
753,753,[-2.72126243e+03  3.43381744e+02 -4.06383657e-03 -1.31641694e+07],653,1094.1634633112321
754,754,[-2.54189049e+03  3.44383215e+02 -3.69272570e-03 -1.31641694e+07],844,1095.1174205162845
755,755,[-2.57044810e+03  3.44383261e+02 -4.27957443e-03 -1.31641694e+07],82,1094.0787182873373
756,756,[-2.54112317e+03  3.44383280e+02 -4.32776851e-03 -1.31641694e+07],817,1094.4662246088221
757,757,[-2.99736859e+03  3.41379354e+02 -4.60950945e-03 -1.31641694e+07],1084,1091.9849228308703
758,758,[-2.41923566e+03  3.45383833e+02 -3.63994966e-03 -1.31641694e+07],625,1095.2417265452677
759,759,[-2.41042381e+03  3.45384219e+02 -4.08424983e-03 -1.31641694e+07],76,1093.347586853272
760,760,[-2.56363789e+03  3.44382695e+02 -4.37031002e-03 -1.31641694e+07],565,1093.8770392735566
761,761,[-2.76550521e+03  3.42380879e+02 -4.18933691e-03 -1.31641694e+07],724,1092.9226677559966
762,762,[-2.38623278e+03  3.45383808e+02 -3.72143661e-03 -1.31641694e+07],804,1095.0787594869175
763,763,[-2.40860366e+03  3.45383793e+02 -3.68513704e-03 -1.31641694e+07],264,1092.7271553545218
764,764,[-2.41466308e+03  3.45383910e+02 -3.72006353e-03 -1.31641694e+07],1068,1090.9800222560384
765,765,[-2.45570994e+03  3.44382744e+02 -3.73262376e-03 -1.31641694e+07],268,1093.4593009716484
766,766,[-2.21971144e+03  3.46385024e+02 -3.28814938e-03 -1.31641694e+07],767,1095.0599570965355
767,767,[-2.41679132e+03  3.45384219e+02 -4.12541344e-03 -1.31641694e+07],436,1093.2432396387296
768,768,[-2.38901328e+03  3.45384543e+02 -4.00694527e-03 -1.31641694e+07],873,1094.4881866963838
769,769,[-2.07367969e+03  3.47386165e+02 -2.72773454e-03 -1.31641694e+07],782,1091.3016211317633
770,770,[-2.47734928e+03  3.44383109e+02 -4.08139502e-03 -1.31641694e+07],39,1094.1732308625303
771,771,[-2.47604798e+03  3.44382994e+02 -4.16403890e-03 -1.31641694e+07],896,1093.4598926141875
772,772,[-2.12823957e+03  3.47386898e+02 -3.30444492e-03 -1.31641694e+07],609,1094.021047111475
773,773,[-2.50029818e+03  3.44382798e+02 -3.46678395e-03 -1.31641694e+07],892,1092.371778267034
774,774,[-2.36782950e+03  3.45383880e+02 -3.96581433e-03 -1.31641694e+07],1057,1094.5536053235285
775,775,[-2.25888146e+03  3.46384881e+02 -3.59190269e-03 -1.31641694e+07],27,1093.5334331667307
776,776,[-2.38535490e+03  3.45384150e+02 -4.05555799e-03 -1.31641694e+07],993,1093.9484636398154
777,777,[-2.56177868e+03  3.44383631e+02 -3.64356102e-03 -1.31641694e+07],686,1091.9305528863015
778,778,[-2.19435221e+03  3.46385696e+02 -3.28813885e-03 -1.31641694e+07],744,1094.3342325411052
779,779,[-2.50830050e+03  3.44382668e+02 -4.45683374e-03 -1.31641694e+07],430,1093.6260227484097
780,780,[-2.64234041e+03  3.43382377e+02 -4.57728045e-03 -1.31641694e+07],370,1094.259504700883
781,781,[-2.90180311e+03  3.42380634e+02 -4.22282872e-03 -1.31641694e+07],1055,1092.2259971289657
782,782,[-2.50179666e+03  3.44382994e+02 -3.74743375e-03 -1.31641694e+07],211,1093.236944523475
783,783,[-2.67371009e+03  3.43381932e+02 -4.54847010e-03 -1.31641694e+07],451,1093.107979927375
784,784,[-2.51405806e+03  3.44382691e+02 -4.24864941e-03 -1.31641694e+07],647,1090.9971834851533
785,785,[-2.96816859e+03  3.42380487e+02 -5.21841611e-03 -1.31641694e+07],1038,1091.8042201445262
786,786,[-2.70258455e+03  3.43381710e+02 -3.83722217e-03 -1.31641694e+07],805,1091.1856190484364
787,787,[-2.72533896e+03  3.43381678e+02 -3.90814026e-03 -1.31641694e+07],330,1093.6706357202997
788,788,[-2.42846550e+03  3.45384268e+02 -3.38028797e-03 -1.31641694e+07],309,1089.4945037934867
789,789,[-2.02962614e+03  3.48387692e+02 -3.46772884e-03 -1.31641694e+07],983,1089.4098694244717
790,790,[-2.61240149e+03  3.43381591e+02 -3.73131429e-03 -1.31641694e+07],889,1092.273306318627
791,791,[-2.61268300e+03  3.43381883e+02 -4.25040519e-03 -1.31641694e+07],316,1094.469848707283
792,792,[-2.51644223e+03  3.44382664e+02 -4.41783883e-03 -1.31641694e+07],783,1093.4134235516167
793,793,[-2.54582548e+03  3.44382753e+02 -4.52525016e-03 -1.31641694e+07],146,1092.982316690283
794,794,[-2.49725627e+03  3.44382681e+02 -3.68045661e-03 -1.31641694e+07],250,1093.6772095054907
795,795,[-2.09813332e+03  3.47386382e+02 -3.12642586e-03 -1.31641694e+07],665,1093.7158006259579
796,796,[-2.55760153e+03  3.44382968e+02 -4.52329007e-03 -1.31641694e+07],676,1091.255222272594
797,797,[-2.65115387e+03  3.43382023e+02 -4.59053100e-03 -1.31641694e+07],341,1092.903833110019
798,798,[-1.97209791e+03  3.48387229e+02 -2.57373854e-03 -1.31641694e+07],498,1090.935056955219
799,799,[-2.62339790e+03  3.43381658e+02 -3.99651978e-03 -1.31641694e+07],854,1093.5895672389495
800,800,[-2.43449455e+03  3.45383986e+02 -3.62174196e-03 -1.31641694e+07],345,1093.7798302322533
801,801,[-2.26053541e+03  3.46385420e+02 -3.55390577e-03 -1.31641694e+07],559,1092.3768549010395
802,802,[-2.58893933e+03  3.44382774e+02 -3.75945766e-03 -1.31641694e+07],236,1094.0095932534284
803,803,[-2.35326352e+03  3.45384207e+02 -3.77109994e-03 -1.31641694e+07],560,1094.8840564002676
804,804,[-2.38316156e+03  3.45384314e+02 -4.14640882e-03 -1.31641694e+07],857,1093.2691276406695
805,805,[-2.42336923e+03  3.45384100e+02 -4.12325999e-03 -1.31641694e+07],62,1093.1299674271759
806,806,[-2.65831160e+03  3.43381637e+02 -3.85819327e-03 -1.31641694e+07],721,1090.7651646613233
807,807,[-2.59603858e+03  3.44383592e+02 -3.89891732e-03 -1.31641694e+07],1067,1094.0003861423984
808,808,[-2.59668275e+03  3.44382677e+02 -4.15560425e-03 -1.31641694e+07],74,1094.1028352886476
809,809,[-2.44689472e+03  3.45383799e+02 -3.73639284e-03 -1.31641694e+07],1044,1094.0812908810622
810,810,[-2.66042580e+03  3.43381622e+02 -3.80745367e-03 -1.31641694e+07],1015,1091.3398291710298
811,811,[-2.54399119e+03  3.44383058e+02 -3.65886000e-03 -1.31641694e+07],94,1093.7416226334628
812,812,[-2.45812647e+03  3.45384066e+02 -3.72470532e-03 -1.31641694e+07],637,1093.8672224511686
813,813,[-2.47040430e+03  3.45383854e+02 -3.55034450e-03 -1.31641694e+07],266,1092.7532105479445
814,814,[-2.79286222e+03  3.42380567e+02 -4.17763521e-03 -1.31641694e+07],339,1093.4329449062539
815,815,[-2.44049779e+03  3.45383961e+02 -3.60689865e-03 -1.31641694e+07],1063,1094.187641416379
816,816,[-2.74107297e+03  3.43382201e+02 -4.55671105e-03 -1.31641694e+07],1072,1094.4048464413593
817,817,[-2.44422863e+03  3.45384046e+02 -4.07492777e-03 -1.31641694e+07],793,1093.3134174016718
818,818,[-2.80799030e+03  3.42380821e+02 -3.98365252e-03 -1.31641694e+07],709,1089.8632261641426
819,819,[-2.10836140e+03  3.47386559e+02 -3.05243540e-03 -1.31641694e+07],90,1094.7243932606714
820,820,[-2.40154592e+03  3.45383820e+02 -3.69772498e-03 -1.31641694e+07],731,1094.2769234116613
821,821,[-2.95022854e+03  3.42380688e+02 -5.01928788e-03 -1.31641694e+07],246,1094.4093117798113
822,822,[-2.79541167e+03  3.42380646e+02 -3.99409054e-03 -1.31641694e+07],696,1092.0975945428218
823,823,[-2.50061117e+03  3.45384000e+02 -3.62096475e-03 -1.31641694e+07],850,1092.8388237176753
824,824,[-2.58650168e+03  3.44383010e+02 -4.12284971e-03 -1.31641694e+07],627,1090.226938418331
825,825,[-2.60057964e+03  3.43382402e+02 -3.98869158e-03 -1.31641694e+07],926,1094.0247942209874
826,826,[-2.66179767e+03  3.43381659e+02 -4.00481444e-03 -1.31641694e+07],1049,1094.502174884282
827,827,[-2.92465977e+03  3.42380503e+02 -5.15496339e-03 -1.31641694e+07],595,1094.257942865568
828,828,[-2.70230492e+03  3.43381709e+02 -4.69710384e-03 -1.31641694e+07],761,1093.5944200687802
829,829,[-2.72282436e+03  3.43381630e+02 -4.00841216e-03 -1.31641694e+07],680,1094.6435960039385
830,830,[-2.63087870e+03  3.43381587e+02 -3.94301296e-03 -1.31641694e+07],684,1094.3017406323029
831,831,[-2.42634364e+03  3.45383803e+02 -3.68637339e-03 -1.31641694e+07],797,1095.2676567343235
832,832,[-2.56794582e+03  3.44383028e+02 -4.29613911e-03 -1.31641694e+07],644,1094.8652927306443
833,833,[-2.00697448e+03  3.48387371e+02 -2.89620068e-03 -1.31641694e+07],394,1094.5756499385252
834,834,[-2.35721997e+03  3.45383921e+02 -3.33698668e-03 -1.31641694e+07],348,1093.362300604471
835,835,[-2.58477331e+03  3.44382983e+02 -4.29057922e-03 -1.31641694e+07],381,1094.124830599144
836,836,[-2.57591956e+03  3.44382952e+02 -4.35425330e-03 -1.31641694e+07],995,1092.6891019119867
837,837,[-2.79619551e+03  3.43381831e+02 -3.86997583e-03 -1.31641694e+07],884,1091.8818117596356
838,838,[-2.81387976e+03  3.42380620e+02 -4.04050620e-03 -1.31641694e+07],990,1091.8306779997308
839,839,[-2.55710106e+03  3.44382851e+02 -4.05766920e-03 -1.31641694e+07],823,1094.7418408717042
840,840,[-2.61783094e+03  3.44382810e+02 -4.29342746e-03 -1.31641694e+07],178,1092.7027159317345
841,841,[-2.27172873e+03  3.46385314e+02 -3.39451557e-03 -1.31641694e+07],635,1094.4386275756272
842,842,[-2.68589530e+03  3.43381685e+02 -4.06104486e-03 -1.31641694e+07],648,1094.4887973568793
843,843,[-2.41330219e+03  3.45384040e+02 -3.72027079e-03 -1.31641694e+07],351,1094.3835539810136
844,844,[-2.56320100e+03  3.44382828e+02 -4.11619662e-03 -1.31641694e+07],490,1093.3276632987233
845,845,[-2.40513116e+03  3.45383793e+02 -3.65101100e-03 -1.31641694e+07],656,1094.569526077956
846,846,[-2.10228517e+03  3.47386478e+02 -3.08371882e-03 -1.31641694e+07],862,1094.8360528332066
847,847,[-2.60201269e+03  3.44382734e+02 -4.13260633e-03 -1.31641694e+07],216,1094.6237667082437
848,848,[-2.41268581e+03  3.45383773e+02 -3.79168455e-03 -1.31641694e+07],567,1093.826081937424
849,849,[-2.41209982e+03  3.45384284e+02 -3.71929694e-03 -1.31641694e+07],1003,1093.3485574051713
850,850,[-2.51498263e+03  3.44382733e+02 -3.51239871e-03 -1.31641694e+07],407,1092.950265328302
851,851,[-2.66099669e+03  3.43382027e+02 -4.58948489e-03 -1.31641694e+07],956,1094.9113037284621
852,852,[-2.27556594e+03  3.46385016e+02 -3.57552777e-03 -1.31641694e+07],813,1094.3390966970262
853,853,[-2.26682451e+03  3.46385063e+02 -3.55826625e-03 -1.31641694e+07],716,1094.0197317875666
854,854,[-2.40215025e+03  3.45384420e+02 -3.40454961e-03 -1.31641694e+07],874,1093.0835120985764
855,855,[-2.51251007e+03  3.44382664e+02 -3.80009826e-03 -1.31641694e+07],719,1094.4558281273783
856,856,[-2.12298780e+03  3.47386445e+02 -3.39430940e-03 -1.31641694e+07],720,1093.7492268502378
857,857,[-2.45430288e+03  3.45383806e+02 -3.75396499e-03 -1.31641694e+07],860,1093.0514102924876
858,858,[-2.52535927e+03  3.44382799e+02 -3.80465270e-03 -1.31641694e+07],615,1094.0723329320851
859,859,[-2.41742314e+03  3.45383970e+02 -3.65556333e-03 -1.31641694e+07],763,1094.8986516961822
860,860,[-2.42972827e+03  3.45384016e+02 -3.76131182e-03 -1.31641694e+07],597,1092.742701089609
861,861,[-2.43508140e+03  3.45383873e+02 -3.73341588e-03 -1.31641694e+07],671,1092.0277705652643
862,862,[-2.39416137e+03  3.45383979e+02 -3.27321515e-03 -1.31641694e+07],840,1092.7935502143348
863,863,[-2.39844876e+03  3.45383907e+02 -3.50623030e-03 -1.31641694e+07],872,1093.7884210058364
864,864,[-2.45151156e+03  3.45384666e+02 -3.73923062e-03 -1.31641694e+07],254,1092.200586067603
865,865,[-2.16138862e+03  3.47386437e+02 -3.22037836e-03 -1.31641694e+07],664,1092.2090728053174
866,866,[-2.83716643e+03  3.42380668e+02 -4.12016865e-03 -1.31641694e+07],836,1091.5169927542229
867,867,[-2.52573909e+03  3.44382718e+02 -3.84714455e-03 -1.31641694e+07],660,1094.6155213744344
868,868,[-2.45949379e+03  3.45383787e+02 -3.91381626e-03 -1.31641694e+07],876,1091.1296745141392
869,869,[-2.38200011e+03  3.45383854e+02 -3.73508147e-03 -1.31641694e+07],124,1090.507352215592
870,870,[-2.81044492e+03  3.42380528e+02 -4.04704848e-03 -1.31641694e+07],166,1092.1632104091586
871,871,[-2.65064870e+03  3.43381566e+02 -4.60484307e-03 -1.31641694e+07],880,1093.8923610551105
872,872,[-2.44444240e+03  3.45383983e+02 -3.90026751e-03 -1.31641694e+07],151,1092.7012089459042
873,873,[-2.58364955e+03  3.44383543e+02 -4.16150590e-03 -1.31641694e+07],640,1093.242940764441
874,874,[-2.54113703e+03  3.44383018e+02 -3.47725256e-03 -1.31641694e+07],916,1092.7495516869028
875,875,[-2.38968688e+03  3.45384070e+02 -3.81871995e-03 -1.31641694e+07],936,1094.4875622584045
876,876,[-2.23479151e+03  3.46385437e+02 -3.68470251e-03 -1.31641694e+07],321,1092.6818531933434
877,877,[-2.41194549e+03  3.45383866e+02 -4.01704376e-03 -1.31641694e+07],948,1091.6524459135724
878,878,[-2.10024794e+03  3.47386440e+02 -2.86914349e-03 -1.31641694e+07],131,1092.5238867409505
879,879,[-2.08636878e+03  3.47386522e+02 -3.03569877e-03 -1.31641694e+07],132,1094.9625973182071
880,880,[-2.39342732e+03  3.45383893e+02 -4.11870803e-03 -1.31641694e+07],1028,1092.6592462627727
881,881,[-2.42912516e+03  3.45383824e+02 -3.76685237e-03 -1.31641694e+07],728,1092.2329021664816
882,882,[-2.74127834e+03  3.43381878e+02 -3.99192068e-03 -1.31641694e+07],1039,1093.5489801673887
883,883,[-1.99766607e+03  3.48387445e+02 -2.88921280e-03 -1.31641694e+07],740,1095.2403973870687
884,884,[-2.37689430e+03  3.45384107e+02 -4.12987573e-03 -1.31641694e+07],4,1092.8622282864462
885,885,[-2.43025923e+03  3.45383830e+02 -3.86801117e-03 -1.31641694e+07],589,1092.2922938282952
886,886,[-2.24580757e+03  3.46384903e+02 -3.25476343e-03 -1.31641694e+07],707,1094.1770491519342
887,887,[-2.09566501e+03  3.47386082e+02 -2.88682737e-03 -1.31641694e+07],504,1093.9842086972933
888,888,[-2.48505711e+03  3.44382675e+02 -4.05682912e-03 -1.31641694e+07],588,1094.4935563223494
889,889,[-2.47956084e+03  3.44382987e+02 -4.38034255e-03 -1.31641694e+07],232,1093.1144370192928
890,890,[-2.49849174e+03  3.44383367e+02 -3.68942935e-03 -1.31641694e+07],1076,1094.4720413298276
891,891,[-2.34277418e+03  3.45383768e+02 -3.56697017e-03 -1.31641694e+07],1061,1094.7955131924184
892,892,[-2.40138727e+03  3.45384280e+02 -3.67881692e-03 -1.31641694e+07],732,1093.2223114913375
893,893,[-2.42089581e+03  3.45383892e+02 -3.97765753e-03 -1.31641694e+07],878,1092.439230194567
894,894,[-2.56733437e+03  3.44382779e+02 -3.64562548e-03 -1.31641694e+07],628,1093.6819018085264
895,895,[-2.50926934e+03  3.44382994e+02 -3.73275677e-03 -1.31641694e+07],54,1094.8015964876827
896,896,[-2.64081465e+03  3.43381547e+02 -4.90512499e-03 -1.31641694e+07],632,1093.2285681782917
897,897,[-2.46157792e+03  3.44383009e+02 -4.33470468e-03 -1.31641694e+07],313,1093.748061909531
898,898,[-2.10140184e+03  3.47386336e+02 -3.06670546e-03 -1.31641694e+07],459,1094.23070394104
899,899,[-2.61117762e+03  3.43381657e+02 -4.10909643e-03 -1.31641694e+07],1053,1095.087640244255
900,900,[-2.61890949e+03  3.43381742e+02 -4.70348302e-03 -1.31641694e+07],600,1093.864669109357
901,901,[-2.54526146e+03  3.44382783e+02 -4.40053565e-03 -1.31641694e+07],416,1093.8289221201535
902,902,[-2.41401873e+03  3.45383877e+02 -3.79791412e-03 -1.31641694e+07],681,1095.0808642128807
903,903,[-2.60934892e+03  3.43381571e+02 -3.85808263e-03 -1.31641694e+07],386,1093.9385769558146
904,904,[-2.73490682e+03  3.43381588e+02 -4.53848246e-03 -1.31641694e+07],893,1094.2320996032931
905,905,[-2.46333579e+03  3.45383848e+02 -3.96272380e-03 -1.31641694e+07],952,1090.7320551246544
906,906,[-2.72729589e+03  3.43381848e+02 -3.98518468e-03 -1.31641694e+07],554,1093.4081981849479
907,907,[-2.63367987e+03  3.44382748e+02 -3.80877514e-03 -1.31641694e+07],182,1094.2709352921922
908,908,[-2.40347902e+03  3.45383859e+02 -3.65343247e-03 -1.31641694e+07],673,1092.175124233637
909,909,[-2.55637744e+03  3.43382314e+02 -4.64824603e-03 -1.31641694e+07],920,1091.613933004911
910,910,[-2.79856154e+03  3.42380975e+02 -3.88266552e-03 -1.31641694e+07],557,1090.2531236896948
911,911,[-2.17131075e+03  3.46385700e+02 -3.43862006e-03 -1.31641694e+07],288,1093.752968393633
912,912,[-2.02180554e+03  3.48387906e+02 -3.39257555e-03 -1.31641694e+07],607,1091.7996034813223
913,913,[-2.82447018e+03  3.42380600e+02 -4.84913646e-03 -1.31641694e+07],1080,1094.3978734006137
914,914,[-2.49722088e+03  3.44382958e+02 -3.66274146e-03 -1.31641694e+07],375,1094.2352029994433
915,915,[-2.26712398e+03  3.46385026e+02 -3.69923119e-03 -1.31641694e+07],801,1094.0776611399524
916,916,[-2.28643137e+03  3.46384958e+02 -3.71376833e-03 -1.31641694e+07],773,1092.6444988192554
917,917,[-2.25937067e+03  3.46385330e+02 -3.32766001e-03 -1.31641694e+07],1020,1094.8479461199279
918,918,[-2.45836062e+03  3.44383088e+02 -3.75350512e-03 -1.31641694e+07],432,1094.742261588931
919,919,[-2.40430596e+03  3.45383975e+02 -3.98121124e-03 -1.31641694e+07],308,1094.1290137597039
920,920,[-2.14024868e+03  3.47385991e+02 -3.28466483e-03 -1.31641694e+07],986,1092.4010186084658
921,921,[-2.52778729e+03  3.44383031e+02 -3.61190679e-03 -1.31641694e+07],885,1093.5911301708136
922,922,[-1.99321427e+03  3.48387686e+02 -2.96799157e-03 -1.31641694e+07],269,1094.5769835359827
923,923,[-2.37889899e+03  3.45383799e+02 -4.03771956e-03 -1.31641694e+07],733,1093.427994745706
924,924,[-2.39566730e+03  3.45383934e+02 -4.11011243e-03 -1.31641694e+07],790,1093.8364063252252
925,925,[-2.35146636e+03  3.45383923e+02 -3.95199202e-03 -1.31641694e+07],333,1093.3470298144646
926,926,[-2.51656643e+03  3.44382775e+02 -3.73778833e-03 -1.31641694e+07],89,1092.9324733129913
927,927,[-2.24115873e+03  3.46386002e+02 -3.21527580e-03 -1.31641694e+07],881,1094.6389262734908
928,928,[-2.33609670e+03  3.45384313e+02 -4.27375980e-03 -1.31641694e+07],672,1093.8187356060434
929,929,[-2.57177140e+03  3.44382655e+02 -4.35296853e-03 -1.31641694e+07],781,1093.501760545464
930,930,[-2.55046260e+03  3.44382763e+02 -3.76488600e-03 -1.31641694e+07],262,1094.5246248320063
931,931,[-2.77297850e+03  3.42380548e+02 -3.99680797e-03 -1.31641694e+07],1040,1091.4369569815867
932,932,[-2.67741071e+03  3.43381586e+02 -4.28703762e-03 -1.31641694e+07],865,1095.2579215833928
933,933,[-2.37902365e+03  3.45383955e+02 -3.74022969e-03 -1.31641694e+07],1011,1093.7201754065275
934,934,[-2.38737684e+03  3.45383872e+02 -3.99041368e-03 -1.31641694e+07],273,1093.3359532532813
935,935,[-2.13845822e+03  3.47386460e+02 -3.34106398e-03 -1.31641694e+07],864,1094.3834242234955
936,936,[-2.77916742e+03  3.42380566e+02 -4.10604514e-03 -1.31641694e+07],18,1092.643596320235
937,937,[-2.10086565e+03  3.47386023e+02 -3.09363086e-03 -1.31641694e+07],128,1094.6689863041267
938,938,[-2.37635617e+03  3.45383888e+02 -3.98016783e-03 -1.31641694e+07],110,1094.2345043868472
939,939,[-2.26709568e+03  3.46385191e+02 -4.12473205e-03 -1.31641694e+07],908,1093.3515841083633
940,940,[-2.26554228e+03  3.46386031e+02 -3.54835043e-03 -1.31641694e+07],97,1093.9629603124692
941,941,[-2.70542358e+03  3.43381598e+02 -4.04728597e-03 -1.31641694e+07],677,1094.1851043189567
942,942,[-2.63503233e+03  3.43382046e+02 -4.08303080e-03 -1.31641694e+07],708,1094.9788171381751
943,943,[-2.39732310e+03  3.45383956e+02 -4.01612013e-03 -1.31641694e+07],870,1094.852412138456
944,944,[-2.62763852e+03  3.43381639e+02 -4.67652852e-03 -1.31641694e+07],371,1093.5554712004798
945,945,[-2.56093936e+03  3.44382673e+02 -3.75584770e-03 -1.31641694e+07],822,1095.097665235858
946,946,[-2.34985544e+03  3.45383971e+02 -3.46245113e-03 -1.31641694e+07],340,1095.1428961935005
947,947,[-2.40403723e+03  3.45383993e+02 -3.76857749e-03 -1.31641694e+07],629,1094.4716734364113
948,948,[-2.28228330e+03  3.46384917e+02 -3.55110304e-03 -1.31641694e+07],358,1092.6385933386528
949,949,[-2.43013754e+03  3.45384060e+02 -3.69035474e-03 -1.31641694e+07],685,1094.9409820191347
950,950,[-2.47326990e+03  3.44382717e+02 -3.61607453e-03 -1.31641694e+07],683,1094.6725477537707
951,951,[-2.52407254e+03  3.44383228e+02 -4.06724072e-03 -1.31641694e+07],403,1094.416626128828
952,952,[-2.30563400e+03  3.46384914e+02 -3.72265966e-03 -1.31641694e+07],616,1092.4184757716112
953,953,[-2.11849166e+03  3.47386267e+02 -3.25348361e-03 -1.31641694e+07],46,1094.868061260768
954,954,[-2.50014818e+03  3.44383364e+02 -3.66481241e-03 -1.31641694e+07],861,1094.8333946141522
955,955,[-2.41555626e+03  3.45383868e+02 -3.83927676e-03 -1.31641694e+07],59,1093.4987056925522
956,956,[-2.53989912e+03  3.44382850e+02 -4.50458374e-03 -1.31641694e+07],652,1092.7742003873998
957,957,[-2.13487501e+03  3.47386098e+02 -3.13673970e-03 -1.31641694e+07],440,1094.7998433403445
958,958,[-2.65092737e+03  3.43382088e+02 -4.05297495e-03 -1.31641694e+07],643,1095.063323602687
959,959,[-2.43283415e+03  3.45383931e+02 -4.05256538e-03 -1.31641694e+07],757,1093.636017121582
960,960,[-2.22248083e+03  3.46385661e+02 -3.83408604e-03 -1.31641694e+07],73,1093.754272879638
961,961,[-2.36859425e+03  3.45384026e+02 -3.49102521e-03 -1.31641694e+07],573,1094.6161960700829
962,962,[-2.36562747e+03  3.45384820e+02 -3.44723019e-03 -1.31641694e+07],362,1094.405956982769
963,963,[-2.38847557e+03  3.45383827e+02 -3.80639845e-03 -1.31641694e+07],287,1094.1693838886176
964,964,[-2.40326517e+03  3.45384061e+02 -3.81373299e-03 -1.31641694e+07],777,1093.6155812303982
965,965,[-2.02869543e+03  3.48387476e+02 -3.01945425e-03 -1.31641694e+07],592,1095.2699088918814
966,966,[-2.72708175e+03  3.42380771e+02 -4.17825446e-03 -1.31641694e+07],748,1093.9293289853151
967,967,[-2.50605579e+03  3.44382974e+02 -4.05230775e-03 -1.31641694e+07],837,1093.981578604831
968,968,[-2.52368449e+03  3.44382989e+02 -4.49495671e-03 -1.31641694e+07],979,1093.624006951607
969,969,[-2.10369659e+03  3.47386183e+02 -2.96473783e-03 -1.31641694e+07],357,1093.8684838787897
970,970,[-3.63851734e+03  3.38376216e+02 -5.16950275e-03 -1.31641694e+07],326,1083.9447531227231
971,971,[-2.81928776e+03  3.42380470e+02 -3.83281549e-03 -1.31641694e+07],424,1087.1301952397214
972,972,[-3.04461897e+03  3.41379691e+02 -4.48221542e-03 -1.31641694e+07],1029,1088.4577463411824
973,973,[-2.83121316e+03  3.42380710e+02 -4.13390570e-03 -1.31641694e+07],283,1088.0909327554236
974,974,[-2.78112028e+03  3.42380617e+02 -4.09984034e-03 -1.31641694e+07],568,1086.5454426730178
975,975,[-2.99286412e+03  3.41379405e+02 -4.73122343e-03 -1.31641694e+07],838,1088.6996020087968
976,976,[-2.69717106e+03  3.43381806e+02 -4.26066159e-03 -1.31641694e+07],785,1093.4884598869946
977,977,[-2.63338460e+03  3.43381632e+02 -4.18529692e-03 -1.31641694e+07],912,1090.2165931462127
978,978,[-2.57340930e+03  3.43381612e+02 -4.48923525e-03 -1.31641694e+07],1045,1090.5491325300115
979,979,[-2.67189766e+03  3.43382175e+02 -4.09417692e-03 -1.31641694e+07],139,1091.8807508455861
980,980,[-2.74649006e+03  3.43381848e+02 -4.31471482e-03 -1.31641694e+07],163,1093.3801813233877
981,981,[-2.56402169e+03  3.44382922e+02 -3.94069452e-03 -1.31641694e+07],367,1094.1721597107635
982,982,[-2.66194968e+03  3.43382018e+02 -4.68994001e-03 -1.31641694e+07],608,1093.8040208341881
983,983,[-2.57209220e+03  3.44382697e+02 -4.33114150e-03 -1.31641694e+07],694,1093.1168597003232
984,984,[-2.53893661e+03  3.44382936e+02 -4.21904884e-03 -1.31641694e+07],877,1094.559126267265
985,985,[-2.47117712e+03  3.44382700e+02 -4.38443160e-03 -1.31641694e+07],697,1093.821344043479
986,986,[-2.70865358e+03  3.43381910e+02 -3.98766085e-03 -1.31641694e+07],909,1092.296701133968
987,987,[-2.76899065e+03  3.42381314e+02 -3.98684167e-03 -1.31641694e+07],204,1090.1492937277758
988,988,[-2.37947441e+03  3.45383990e+02 -3.65405111e-03 -1.31641694e+07],687,1091.0888530421025
989,989,[-2.41819649e+03  3.45383881e+02 -3.62734921e-03 -1.31641694e+07],561,1091.429727548735
990,990,[-2.58018558e+03  3.44383521e+02 -4.16111904e-03 -1.31641694e+07],613,1092.8581472833393
991,991,[-2.70648631e+03  3.43381616e+02 -4.61687360e-03 -1.31641694e+07],219,1093.3821605219405
992,992,[-2.00278961e+03  3.48387838e+02 -2.86875584e-03 -1.31641694e+07],38,1094.9431371219493
993,993,[-2.09621977e+03  3.47386427e+02 -2.85774186e-03 -1.31641694e+07],866,1093.2040704725152
994,994,[-2.66033901e+03  3.43381666e+02 -4.59077958e-03 -1.31641694e+07],679,1094.2461184308352
995,995,[-2.63396565e+03  3.43381701e+02 -4.97830622e-03 -1.31641694e+07],353,1092.8663373671302
996,996,[-2.50208579e+03  3.44382947e+02 -4.37657153e-03 -1.31641694e+07],486,1094.1913520774249
997,997,[-2.44008107e+03  3.45383911e+02 -4.02148133e-03 -1.31641694e+07],444,1093.5458979777932
998,998,[-2.25356809e+03  3.46385744e+02 -3.15422878e-03 -1.31641694e+07],227,1093.6271818018377
999,999,[-2.12776056e+03  3.47386389e+02 -3.17736887e-03 -1.31641694e+07],931,1094.609095551673
1000,1000,[-2.55869603e+03  3.44382964e+02 -4.19338163e-03 -1.31641694e+07],989,1094.4178192036077
1001,1001,[-2.61562347e+03  3.43381965e+02 -4.96432636e-03 -1.31641694e+07],736,1093.525955549402
1002,1002,[-2.38765338e+03  3.45383930e+02 -3.78269178e-03 -1.31641694e+07],300,1094.8325804577707
1003,1003,[-2.41412369e+03  3.45384144e+02 -3.41867679e-03 -1.31641694e+07],492,1092.783500552405
1004,1004,[-2.11008731e+03  3.47386263e+02 -3.10285234e-03 -1.31641694e+07],566,1094.1823680008602
1005,1005,[-2.38243497e+03  3.45383779e+02 -4.11268643e-03 -1.31641694e+07],810,1093.6755279003762
1006,1006,[-2.55340919e+03  3.44382731e+02 -4.42684004e-03 -1.31641694e+07],769,1093.670334538454
1007,1007,[-2.27595614e+03  3.46385695e+02 -3.59668914e-03 -1.31641694e+07],19,1094.0344624789566
1008,1008,[-2.49985322e+03  3.44382993e+02 -3.61336061e-03 -1.31641694e+07],159,1093.5089244404255
1009,1009,[-2.39461508e+03  3.45384536e+02 -3.72323178e-03 -1.31641694e+07],796,1095.0049785735293
1010,1010,[-2.41975953e+03  3.45384133e+02 -4.03175931e-03 -1.31641694e+07],786,1093.8372466874198
1011,1011,[-2.42697738e+03  3.45384132e+02 -3.96914066e-03 -1.31641694e+07],296,1092.2083830746913
1012,1012,[-2.00854916e+03  3.48387472e+02 -2.87909936e-03 -1.31641694e+07],77,1093.733144617857
1013,1013,[-2.39516507e+03  3.45383956e+02 -3.54162715e-03 -1.31641694e+07],26,1094.3638380040354
1014,1014,[-2.56551815e+03  3.44383322e+02 -4.16545829e-03 -1.31641694e+07],185,1094.184588890201
1015,1015,[-2.26283225e+03  3.46385388e+02 -3.56998560e-03 -1.31641694e+07],868,1093.026215032104
1016,1016,[-2.41903662e+03  3.45383999e+02 -3.96966375e-03 -1.31641694e+07],702,1093.7653466632687
1017,1017,[-2.39645632e+03  3.45384163e+02 -3.43094389e-03 -1.31641694e+07],470,1093.6171543128744
1018,1018,[-2.12203952e+03  3.47386671e+02 -2.93627989e-03 -1.31641694e+07],988,1093.6904647322472
1019,1019,[-2.41713052e+03  3.45383856e+02 -4.09650103e-03 -1.31641694e+07],50,1093.830229569923
1020,1020,[-2.29857157e+03  3.46385216e+02 -3.48070936e-03 -1.31641694e+07],17,1092.3484405985366
1021,1021,[-2.27012681e+03  3.46385091e+02 -3.59310081e-03 -1.31641694e+07],636,1093.9605532807097
1022,1022,[-2.68009474e+03  3.43381615e+02 -3.81626972e-03 -1.31641694e+07],624,1090.6185694229061
1023,1023,[-2.39913458e+03  3.45383838e+02 -3.63788776e-03 -1.31641694e+07],212,1094.817519753356
1024,1024,[-2.41368674e+03  3.45383832e+02 -4.05967736e-03 -1.31641694e+07],564,1093.985220039224
1025,1025,[-2.53063302e+03  3.44383030e+02 -4.23605711e-03 -1.31641694e+07],784,1093.3601468601714
1026,1026,[-2.42147337e+03  3.45384029e+02 -3.64456008e-03 -1.31641694e+07],317,1094.374116956925
1027,1027,[-2.68481905e+03  3.43381800e+02 -4.00851046e-03 -1.31641694e+07],764,1093.8400859189599
1028,1028,[-2.41526959e+03  3.45383832e+02 -3.64558776e-03 -1.31641694e+07],223,1092.5949952905098
1029,1029,[-2.48275122e+03  3.45384149e+02 -3.69261479e-03 -1.31641694e+07],231,1091.8474069054319
1030,1030,[-2.00803353e+03  3.48387409e+02 -2.94455250e-03 -1.31641694e+07],798,1093.5985072422927
1031,1031,[-2.24690555e+03  3.46385431e+02 -3.17035965e-03 -1.31641694e+07],337,1094.0904620782296
1032,1032,[-2.35834120e+03  3.45383852e+02 -3.99231402e-03 -1.31641694e+07],669,1093.582869914331
1033,1033,[-2.45895739e+03  3.45384311e+02 -3.66067904e-03 -1.31641694e+07],304,1094.4342299701034
1034,1034,[-2.37256835e+03  3.45383858e+02 -3.41187500e-03 -1.31641694e+07],633,1094.5271050896208
1035,1035,[-2.50705546e+03  3.44382687e+02 -4.36672116e-03 -1.31641694e+07],42,1093.9715261911747
1036,1036,[-2.43728804e+03  3.45384016e+02 -3.85193515e-03 -1.31641694e+07],806,1093.4238166411935
1037,1037,[-2.56862193e+03  3.44382732e+02 -3.85645876e-03 -1.31641694e+07],563,1093.4725202557527
1038,1038,[-2.73969101e+03  3.42380671e+02 -4.31617297e-03 -1.31641694e+07],905,1093.1345865287537
1039,1039,[-2.30884571e+03  3.46385690e+02 -3.67179607e-03 -1.31641694e+07],242,1092.5894316905783
1040,1040,[-2.28713229e+03  3.46385232e+02 -3.99873454e-03 -1.31641694e+07],1022,1092.2152875378308
1041,1041,[-2.13049513e+03  3.47386928e+02 -2.93028222e-03 -1.31641694e+07],66,1093.5203644458984
1042,1042,[-2.59744919e+03  3.44383274e+02 -3.82268667e-03 -1.31641694e+07],411,1094.6362914713623
1043,1043,[-2.75552038e+03  3.43381886e+02 -4.64512047e-03 -1.31641694e+07],31,1093.8258686432414
1044,1044,[-2.71918005e+03  3.43381812e+02 -4.69901375e-03 -1.31641694e+07],978,1093.0300476314217
1045,1045,[-2.52934541e+03  3.44382769e+02 -3.47030979e-03 -1.31641694e+07],143,1091.79724530911
1046,1046,[-2.41331603e+03  3.45383956e+02 -3.64109895e-03 -1.31641694e+07],455,1095.240302752304
1047,1047,[-2.69751608e+03  3.43381730e+02 -4.63193883e-03 -1.31641694e+07],869,1093.5318911032186
1048,1048,[-2.27613993e+03  3.46384919e+02 -3.60411427e-03 -1.31641694e+07],379,1094.1106274109445
1049,1049,[-2.70578909e+03  3.43382029e+02 -3.95302068e-03 -1.31641694e+07],70,1092.931730225515
1050,1050,[-2.42127126e+03  3.45383945e+02 -3.48068022e-03 -1.31641694e+07],910,1094.4568358431561
1051,1051,[-2.66195305e+03  3.43381885e+02 -4.58267424e-03 -1.31641694e+07],824,1093.5314580097543
1052,1052,[-2.57405964e+03  3.44382738e+02 -4.26306012e-03 -1.31641694e+07],977,1094.1607773392575
1053,1053,[-2.82905549e+03  3.42380446e+02 -4.17284169e-03 -1.31641694e+07],117,1092.4900296531462
1054,1054,[-2.58866427e+03  3.44382804e+02 -3.96638588e-03 -1.31641694e+07],698,1094.5344075917174
1055,1055,[-2.66169703e+03  3.43381594e+02 -4.58707530e-03 -1.31641694e+07],259,1093.1626639623094
1056,1056,[-2.43327122e+03  3.45384268e+02 -3.87112755e-03 -1.31641694e+07],987,1093.6277998685675
1057,1057,[-2.40134500e+03  3.45384238e+02 -3.52289279e-03 -1.31641694e+07],479,1093.220901918594
1058,1058,[-2.70273749e+03  3.43381985e+02 -4.23126334e-03 -1.31641694e+07],292,1094.5350116245538
1059,1059,[-2.56926210e+03  3.44383527e+02 -4.09727633e-03 -1.31641694e+07],85,1093.7471296564972
1060,1060,[-2.44050807e+03  3.45383807e+02 -3.74029638e-03 -1.31641694e+07],398,1093.5773249673837
1061,1061,[-1.98574801e+03  3.48387098e+02 -2.74617746e-03 -1.31641694e+07],109,1092.5267216431616
1062,1062,[-1.99958419e+03  3.48387177e+02 -2.87996340e-03 -1.31641694e+07],105,1093.7178081077425
1063,1063,[-2.61689887e+03  3.44383211e+02 -4.22661397e-03 -1.31641694e+07],239,1093.0110490777818
1064,1064,[-2.71430695e+03  3.43382114e+02 -4.48423785e-03 -1.31641694e+07],818,1093.5920049025958
1065,1065,[-1.88030839e+03  3.49388360e+02 -2.58023874e-03 -1.31641694e+07],562,1094.204391555178
1066,1066,[-2.53084346e+03  3.44382909e+02 -3.73465972e-03 -1.31641694e+07],174,1093.9024460294675
1067,1067,[-2.54159145e+03  3.44382660e+02 -4.48298223e-03 -1.31641694e+07],195,1093.0383494253933
1068,1068,[-2.55512889e+03  3.44382903e+02 -4.43948296e-03 -1.31641694e+07],155,1093.2559064634609
1069,1069,[-2.47594788e+03  3.44382810e+02 -4.06231688e-03 -1.31641694e+07],261,1095.1590881353645
1070,1070,[-1.98486091e+03  3.48388063e+02 -2.74885226e-03 -1.31641694e+07],788,1094.3050941705294
1071,1071,[-2.12268623e+03  3.47385988e+02 -3.34203238e-03 -1.31641694e+07],190,1094.4464227786348
1072,1072,[-2.59472102e+03  3.43381972e+02 -4.81559033e-03 -1.31641694e+07],81,1093.0021228109172
1073,1073,[-2.39578812e+03  3.45384149e+02 -3.53595938e-03 -1.31641694e+07],101,1095.0743356452535
1074,1074,[-2.78143949e+03  3.42380506e+02 -4.72203120e-03 -1.31641694e+07],789,1093.8104678186096
1075,1075,[-2.04749491e+03  3.47386186e+02 -3.64454993e-03 -1.31641694e+07],200,1093.68878835571
1076,1076,[-2.03794820e+03  3.48387369e+02 -3.88572524e-03 -1.31641694e+07],147,1092.5549805466142
1077,1077,[-2.42273292e+03  3.45383977e+02 -3.96716247e-03 -1.31641694e+07],1,1094.1111070064399
1078,1078,[-2.08852319e+03  3.47386138e+02 -3.07342076e-03 -1.31641694e+07],194,1094.023629298026
1079,1079,[-2.50068397e+03  3.44382676e+02 -4.42309992e-03 -1.31641694e+07],544,1093.5988335350005
1080,1080,[-2.50501225e+03  3.44382807e+02 -4.33785511e-03 -1.31641694e+07],428,1092.3870852923974
1081,1081,[-2.69875885e+03  3.43381562e+02 -4.59861304e-03 -1.31641694e+07],975,1094.664395641142
1082,1082,[-1.98830072e+03  3.48387824e+02 -2.79659028e-03 -1.31641694e+07],260,1094.3153429134277
1083,1083,[-2.48252138e+03  3.44382903e+02 -4.36199680e-03 -1.31641694e+07],972,1093.94931947867
1084,1084,[-2.54223508e+03  3.44382808e+02 -4.52747989e-03 -1.31641694e+07],485,1093.3011446670666
1085,1085,[-2.37613943e+03  3.45383777e+02 -3.52359829e-03 -1.31641694e+07],973,1094.5991294617083
1086,1086,[-2.10274424e+03  3.47386393e+02 -3.10876291e-03 -1.31641694e+07],2,1095.3145901503435
1087,1087,[-2.53476002e+03  3.44382866e+02 -4.59501200e-03 -1.31641694e+07],208,1093.9065972699702
1088,1088,[-2.44146111e+03  3.44382716e+02 -4.41922695e-03 -1.31641694e+07],3,1093.7779134933414
1089,1089,[-1.87179038e+03  3.49388254e+02 -2.52755481e-03 -1.31641694e+07],971,1093.7234787575162
1090,1090,[-2.14322432e+03  3.47386458e+02 -3.18177922e-03 -1.31641694e+07],974,1095.5060367380238
1091,1091,[-2.08086075e+03  3.47386183e+02 -3.48424499e-03 -1.31641694e+07],484,1093.9142236911598
1092,1092,[-2.51088242e+03  3.44382669e+02 -4.47491210e-03 -1.31641694e+07],13,1093.832911614283
1093,1093,[-2.58422407e+03  3.43381538e+02 -4.69724264e-03 -1.31641694e+07],16,1095.277352436017
1094,1094,[-1.98495886e+03  3.48387379e+02 -2.77430052e-03 -1.31641694e+07],970,1094.0747358642961
1095,1095,[-2.59319846e+03  3.43381664e+02 -4.75663334e-03 -1.31641694e+07],14,1093.939312007747
1096,1096,[-2.48396592e+03  3.44382715e+02 -4.28905840e-03 -1.31641694e+07],15,1093.8752636602505
1097,1097,[-2.40917416e+03  3.45383945e+02 -3.77020877e-03 -1.31641694e+07],0,1094.290521719401
