,0,1,2,3
0,0,[ 5.42985621e+04  1.58924583e+03 -3.17995200e-02  5.65595637e-01],749,1569.530267391389
1,1,[ 5.42985621e+04  1.58924583e+03 -3.17995200e-02  5.65595637e-01],889,1585.5425903465732
2,2,[ 5.42985621e+04  1.58924583e+03 -3.17995200e-02  5.65595637e-01],156,1588.495841574302
3,3,[ 5.42985621e+04  1.58924583e+03 -3.17995200e-02  5.65595637e-01],688,1577.2884613680544
4,4,[ 5.42985621e+04  1.58924583e+03 -3.17995200e-02  5.65595637e-01],715,1558.1363072731722
5,5,[ 5.42985621e+04  1.58924583e+03 -3.17995200e-02  5.65595637e-01],151,1573.8847155930312
6,6,[ 5.42985621e+04  1.58924583e+03 -3.17995200e-02  5.65595637e-01],897,1580.6401895187441
7,7,[ 5.42985621e+04  1.58924583e+03 -3.17995200e-02  5.65595637e-01],1074,1584.0213693529795
8,8,[ 5.42985621e+04  1.58924583e+03 -3.17995200e-02  5.65595637e-01],840,1588.8064123719716
9,9,[ 5.42985621e+04  1.58924583e+03 -3.17995200e-02  5.65595637e-01],657,1580.8049140935727
10,10,[ 5.42985621e+04  1.58924583e+03 -3.17995200e-02  5.65595637e-01],404,1558.4946380491308
11,11,[ 5.42985621e+04  1.58924583e+03 -3.17995200e-02  5.65595637e-01],377,1575.6449671913815
12,12,[ 5.42985621e+04  1.58924583e+03 -3.17995200e-02  5.65595637e-01],669,1580.4638258118644
13,13,[ 5.42985621e+04  1.58924583e+03 -3.17995200e-02  5.65595637e-01],260,1587.78736970914
14,14,[ 5.42985621e+04  1.58924583e+03 -3.17995200e-02  5.65595637e-01],656,1590.270285343143
15,15,[ 5.42985621e+04  1.58924583e+03 -3.17995200e-02  5.65595637e-01],1003,1581.9265462936526
16,16,[ 5.42985621e+04  1.58924583e+03 -3.17995200e-02  5.65595637e-01],870,1563.5703221495792
17,17,[ 5.42985621e+04  1.58924583e+03 -3.17995200e-02  5.65595637e-01],1025,1578.9923064078805
18,18,[ 5.42985621e+04  1.58924583e+03 -3.17995200e-02  5.65595637e-01],506,1585.7614156661368
19,19,[ 5.42985621e+04  1.58924583e+03 -3.17995200e-02  5.65595637e-01],1050,1589.1365180087914
20,20,[ 5.42985621e+04  1.58924583e+03 -3.17995200e-02  5.65595637e-01],744,1586.0863812324567
21,21,[ 5.42985621e+04  1.58924583e+03 -3.17995200e-02  5.65595637e-01],179,1587.5759257502734
22,22,[ 5.42985621e+04  1.58924583e+03 -3.17995200e-02  5.65595637e-01],137,1579.1582973871186
23,23,[ 5.42985621e+04  1.58924583e+03 -3.17995200e-02  5.65595637e-01],219,1585.1545584841188
24,24,[ 5.42985621e+04  1.58924583e+03 -3.17995200e-02  5.65595637e-01],720,1589.2443256856425
25,25,[ 5.42985621e+04  1.58924583e+03 -3.17995200e-02  5.65595637e-01],813,1589.2977912202582
26,26,[ 5.42985621e+04  1.58924583e+03 -3.17995200e-02  5.65595637e-01],483,1586.9319205601464
27,27,[ 5.42985621e+04  1.58924583e+03 -3.17995200e-02  5.65595637e-01],448,1585.7964503003282
28,28,[ 5.42985621e+04  1.58924583e+03 -3.17995200e-02  5.65595637e-01],647,1578.425627885367
29,29,[ 5.42985621e+04  1.58924583e+03 -3.17995200e-02  5.65595637e-01],719,1582.3571587921483
30,30,[ 5.42985621e+04  1.58924583e+03 -3.17995200e-02  5.65595637e-01],537,1590.2261909681977
31,31,[ 5.42985621e+04  1.58924583e+03 -3.17995200e-02  5.65595637e-01],835,1590.1500340432665
32,32,[ 5.42985621e+04  1.58924583e+03 -3.17995200e-02  5.65595637e-01],579,1590.827356692974
33,33,[ 5.42985621e+04  1.58924583e+03 -3.17995200e-02  5.65595637e-01],708,1580.4670859797282
34,34,[ 5.42985621e+04  1.58924583e+03 -3.17995200e-02  5.65595637e-01],365,1578.9091108263058
35,35,[ 5.42985621e+04  1.58924583e+03 -3.17995200e-02  5.65595637e-01],517,1591.0400778159462
36,36,[ 5.42985621e+04  1.58924583e+03 -3.17995200e-02  5.65595637e-01],753,1589.313642845949
37,37,[ 5.42985621e+04  1.58924583e+03 -3.17995200e-02  5.65595637e-01],35,1578.8728204687213
38,38,[ 5.42985621e+04  1.58924583e+03 -3.17995200e-02  5.65595637e-01],700,1588.6129319323086
39,39,[ 5.42985621e+04  1.58924583e+03 -3.17995200e-02  5.65595637e-01],409,1587.279238044977
40,40,[ 5.42985621e+04  1.58924583e+03 -3.17995200e-02  5.65595637e-01],668,1585.5576070941725
41,41,[ 5.42985621e+04  1.58924583e+03 -3.17995200e-02  5.65595637e-01],312,1588.6217985091766
42,42,[ 5.42985621e+04  1.58924583e+03 -3.17995200e-02  5.65595637e-01],487,1589.611170827005
43,43,[ 5.42985621e+04  1.58924583e+03 -3.17995200e-02  5.65595637e-01],362,1587.3223081013246
44,44,[ 5.42985621e+04  1.58924583e+03 -3.17995200e-02  5.65595637e-01],1079,1582.797191068949
45,45,[ 5.42985621e+04  1.58924583e+03 -3.17995200e-02  5.65595637e-01],1038,1583.9364781888899
46,46,[ 5.42985621e+04  1.58924583e+03 -3.17995200e-02  5.65595637e-01],814,1590.8637735944055
47,47,[ 5.42985621e+04  1.58924583e+03 -3.17995200e-02  5.65595637e-01],881,1589.4939026407085
48,48,[ 5.42985621e+04  1.58924583e+03 -3.17995200e-02  5.65595637e-01],1007,1579.490686304976
49,49,[ 5.42985621e+04  1.58924583e+03 -3.17995200e-02  5.65595637e-01],46,1579.7946148275612
50,50,[ 5.42985621e+04  1.58924583e+03 -3.17995200e-02  5.65595637e-01],806,1588.0790883543527
51,51,[ 5.42985621e+04  1.58924583e+03 -3.17995200e-02  5.65595637e-01],911,1588.2484677319878
52,52,[ 5.42985621e+04  1.58924583e+03 -3.17995200e-02  5.65595637e-01],736,1584.7162507903265
53,53,[ 5.42985621e+04  1.58924583e+03 -3.17995200e-02  5.65595637e-01],1311,1589.3348374876803
54,54,[ 5.42985621e+04  1.58924583e+03 -3.17995200e-02  5.65595637e-01],417,1575.0503877243025
55,55,[ 5.42985621e+04  1.58924583e+03 -3.17995200e-02  5.65595637e-01],32,1579.9369931350006
56,56,[ 5.42985621e+04  1.58924583e+03 -3.17995200e-02  5.65595637e-01],746,1587.4228758710558
57,57,[ 5.42985621e+04  1.58924583e+03 -3.17995200e-02  5.65595637e-01],873,1590.1098916989076
58,58,[ 5.42985621e+04  1.58924583e+03 -3.17995200e-02  5.65595637e-01],1285,1587.644765837126
59,59,[ 5.42985621e+04  1.58924583e+03 -3.17995200e-02  5.65595637e-01],827,1576.792787755349
60,60,[ 5.42985621e+04  1.58924583e+03 -3.17995200e-02  5.65595637e-01],847,1573.3309879934322
61,61,[ 5.42985621e+04  1.58924583e+03 -3.17995200e-02  5.65595637e-01],172,1574.3701928043936
62,62,[ 5.42985621e+04  1.58924583e+03 -3.17995200e-02  5.65595637e-01],667,1585.581047897716
63,63,[ 5.42985621e+04  1.58924583e+03 -3.17995200e-02  5.65595637e-01],373,1584.9882625523705
64,64,[ 5.42985621e+04  1.58924583e+03 -3.17995200e-02  5.65595637e-01],1184,1565.7451985654304
65,65,[ 5.42985621e+04  1.58924583e+03 -3.17995200e-02  5.65595637e-01],834,1571.1390377098376
66,66,[ 5.42985621e+04  1.58924583e+03 -3.17995200e-02  5.65595637e-01],869,1568.434467759953
67,67,[ 5.42985621e+04  1.58924583e+03 -3.17995200e-02  5.65595637e-01],459,1579.539125785499
68,68,[ 5.42985621e+04  1.58924583e+03 -3.17995200e-02  5.65595637e-01],694,1583.22842782282
69,69,[ 5.42985621e+04  1.58924583e+03 -3.17995200e-02  5.65595637e-01],743,1585.0479348766883
70,70,[ 5.42985621e+04  1.58924583e+03 -3.17995200e-02  5.65595637e-01],113,1569.8181604518045
71,71,[ 5.42985621e+04  1.58924583e+03 -3.17995200e-02  5.65595637e-01],684,1569.113516027024
72,72,[ 5.42985621e+04  1.58924583e+03 -3.17995200e-02  5.65595637e-01],721,1577.6987463193332
73,73,[ 5.42985621e+04  1.58924583e+03 -3.17995200e-02  5.65595637e-01],501,1584.2085523482833
74,74,[ 5.42985621e+04  1.58924583e+03 -3.17995200e-02  5.65595637e-01],217,1585.5015840302945
75,75,[ 5.42985621e+04  1.58924583e+03 -3.17995200e-02  5.65595637e-01],1166,1581.6850149753016
76,76,[ 5.42985621e+04  1.58924583e+03 -3.17995200e-02  5.65595637e-01],824,1570.7714438793316
77,77,[ 5.42985621e+04  1.58924583e+03 -3.17995200e-02  5.65595637e-01],895,1563.1224214677086
78,78,[ 5.42985621e+04  1.58924583e+03 -3.17995200e-02  5.65595637e-01],1035,1571.2198695948312
79,79,[ 5.42985621e+04  1.58924583e+03 -3.17995200e-02  5.65595637e-01],727,1576.023211186434
80,80,[ 5.42985621e+04  1.58924583e+03 -3.17995200e-02  5.65595637e-01],523,1583.7647400997512
81,81,[ 5.42985621e+04  1.58924583e+03 -3.17995200e-02  5.65595637e-01],372,1584.190365798291
82,82,[ 5.42985621e+04  1.58924583e+03 -3.17995200e-02  5.65595637e-01],1051,1562.5988449147537
83,83,[ 5.42985621e+04  1.58924583e+03 -3.17995200e-02  5.65595637e-01],609,1562.5846666918032
84,84,[ 5.42985621e+04  1.58924583e+03 -3.17995200e-02  5.65595637e-01],1323,1569.006017984979
85,85,[ 5.42985621e+04  1.58924583e+03 -3.17995200e-02  5.65595637e-01],713,1576.8459845345574
86,86,[ 5.42985621e+04  1.58924583e+03 -3.17995200e-02  5.65595637e-01],363,1581.2824676802375
87,87,[ 5.42985621e+04  1.58924583e+03 -3.17995200e-02  5.65595637e-01],1103,1578.3844314421294
88,88,[ 5.42985621e+04  1.58924583e+03 -3.17995200e-02  5.65595637e-01],1333,1566.3098639582988
89,89,[ 5.42985621e+04  1.58924583e+03 -3.17995200e-02  5.65595637e-01],600,1557.1172618433538
90,90,[ 5.42985621e+04  1.58924583e+03 -3.17995200e-02  5.65595637e-01],518,1560.9943402182791
91,91,[ 5.42985621e+04  1.58924583e+03 -3.17995200e-02  5.65595637e-01],354,1578.791844828014
92,92,[ 5.42985621e+04  1.58924583e+03 -3.17995200e-02  5.65595637e-01],735,1582.5011659151614
93,93,[ 5.42985621e+04  1.58924583e+03 -3.17995200e-02  5.65595637e-01],912,1582.3949882451786
94,94,[ 5.42985621e+04  1.58924583e+03 -3.17995200e-02  5.65595637e-01],1178,1565.2069418368612
95,95,[ 5.42985621e+04  1.58924583e+03 -3.17995200e-02  5.65595637e-01],898,1551.6986670885
96,96,[ 5.42985621e+04  1.58924583e+03 -3.17995200e-02  5.65595637e-01],225,1574.334685127356
97,97,[ 5.42985621e+04  1.58924583e+03 -3.17995200e-02  5.65595637e-01],262,1589.516102230138
98,98,[ 5.42985621e+04  1.58924583e+03 -3.17995200e-02  5.65595637e-01],725,1583.6957162093247
99,99,[ 5.42985621e+04  1.58924583e+03 -3.17995200e-02  5.65595637e-01],1322,1589.3101425439913
100,100,[ 5.42985621e+04  1.58924583e+03 -3.17995200e-02  5.65595637e-01],382,1586.80988945433
101,101,[ 5.42985621e+04  1.58924583e+03 -3.17995200e-02  5.65595637e-01],1028,1575.2602770836888
102,102,[ 5.42985621e+04  1.58924583e+03 -3.17995200e-02  5.65595637e-01],799,1581.0011479699594
103,103,[ 5.42985621e+04  1.58924583e+03 -3.17995200e-02  5.65595637e-01],896,1589.1019172949586
104,104,[ 5.42985621e+04  1.58924583e+03 -3.17995200e-02  5.65595637e-01],1017,1588.3465821069792
105,105,[ 5.42985621e+04  1.58924583e+03 -3.17995200e-02  5.65595637e-01],311,1589.6068682583443
106,106,[ 5.42985621e+04  1.58924583e+03 -3.17995200e-02  5.65595637e-01],732,1587.5252333070964
107,107,[ 5.42985621e+04  1.58924583e+03 -3.17995200e-02  5.65595637e-01],601,1569.9547098483047
108,108,[ 5.42985621e+04  1.58924583e+03 -3.17995200e-02  5.65595637e-01],346,1576.8870199807354
109,109,[ 5.42985621e+04  1.58924583e+03 -3.17995200e-02  5.65595637e-01],453,1577.3806965503086
110,110,[ 5.42985621e+04  1.58924583e+03 -3.17995200e-02  5.65595637e-01],829,1581.9169753043964
111,111,[ 5.42985621e+04  1.58924583e+03 -3.17995200e-02  5.65595637e-01],604,1588.550106064828
112,112,[ 5.42985621e+04  1.58924583e+03 -3.17995200e-02  5.65595637e-01],524,1589.7339769717764
113,113,[ 5.42985621e+04  1.58924583e+03 -3.17995200e-02  5.65595637e-01],915,1590.689781319834
114,114,[ 5.42985621e+04  1.58924583e+03 -3.17995200e-02  5.65595637e-01],1399,1583.4721858578646
115,115,[ 5.42985621e+04  1.58924583e+03 -3.17995200e-02  5.65595637e-01],1389,1574.647883516587
116,116,[ 5.42985621e+04  1.58924583e+03 -3.17995200e-02  5.65595637e-01],924,1581.1280951617412
117,117,[ 5.42985621e+04  1.58924583e+03 -3.17995200e-02  5.65595637e-01],1317,1573.0030438724305
118,118,[ 5.42985621e+04  1.58924583e+03 -3.17995200e-02  5.65595637e-01],663,1566.6850486638264
119,119,[ 5.42985621e+04  1.58924583e+03 -3.17995200e-02  5.65595637e-01],838,1567.8652020808672
120,120,[ 5.42985621e+04  1.58924583e+03 -3.17995200e-02  5.65595637e-01],1045,1583.435356753582
121,121,[ 5.42985621e+04  1.58924583e+03 -3.17995200e-02  5.65595637e-01],641,1587.9062343029323
122,122,[ 5.42985621e+04  1.58924583e+03 -3.17995200e-02  5.65595637e-01],690,1583.4898142149227
123,123,[ 5.42985621e+04  1.58924583e+03 -3.17995200e-02  5.65595637e-01],144,1570.8164911550195
124,124,[ 5.42985621e+04  1.58924583e+03 -3.17995200e-02  5.65595637e-01],650,1580.6262148082628
125,125,[ 5.42985621e+04  1.58924583e+03 -3.17995200e-02  5.65595637e-01],542,1580.632279396427
126,126,[ 5.42985621e+04  1.58924583e+03 -3.17995200e-02  5.65595637e-01],945,1585.5762285019625
127,127,[ 5.42985621e+04  1.58924583e+03 -3.17995200e-02  5.65595637e-01],471,1584.6867938009273
128,128,[ 5.42985621e+04  1.58924583e+03 -3.17995200e-02  5.65595637e-01],383,1561.870561659847
129,129,[ 5.42985621e+04  1.58924583e+03 -3.17995200e-02  5.65595637e-01],875,1580.554709001336
130,130,[ 5.42985621e+04  1.58924583e+03 -3.17995200e-02  5.65595637e-01],1107,1586.331630036975
131,131,[ 5.42985621e+04  1.58924583e+03 -3.17995200e-02  5.65595637e-01],1414,1590.1415166618729
132,132,[ 5.42985621e+04  1.58924583e+03 -3.17995200e-02  5.65595637e-01],14,1582.5840603722859
133,133,[ 5.42985621e+04  1.58924583e+03 -3.17995200e-02  5.65595637e-01],1332,1568.2306266347935
134,134,[ 5.42985621e+04  1.58924583e+03 -3.17995200e-02  5.65595637e-01],1403,1582.450483141076
135,135,[ 5.42985621e+04  1.58924583e+03 -3.17995200e-02  5.65595637e-01],885,1587.6408482107797
136,136,[ 5.42985621e+04  1.58924583e+03 -3.17995200e-02  5.65595637e-01],672,1580.9268098074263
137,137,[ 5.42985621e+04  1.58924583e+03 -3.17995200e-02  5.65595637e-01],1453,1591.2445209389718
138,138,[ 5.42985621e+04  1.58924583e+03 -3.17995200e-02  5.65595637e-01],30,1582.2838158028223
139,139,[ 5.42985621e+04  1.58924583e+03 -3.17995200e-02  5.65595637e-01],706,1590.1323116520482
140,140,[ 5.42985621e+04  1.58924583e+03 -3.17995200e-02  5.65595637e-01],1305,1589.4225240287458
141,141,[ 5.42985621e+04  1.58924583e+03 -3.17995200e-02  5.65595637e-01],894,1586.3974570071073
142,142,[ 5.42985621e+04  1.58924583e+03 -3.17995200e-02  5.65595637e-01],627,1583.0199428571796
143,143,[ 5.42985621e+04  1.58924583e+03 -3.17995200e-02  5.65595637e-01],381,1584.2780898677872
144,144,[ 5.42985621e+04  1.58924583e+03 -3.17995200e-02  5.65595637e-01],737,1590.3097455522602
145,145,[ 5.42985621e+04  1.58924583e+03 -3.17995200e-02  5.65595637e-01],913,1589.7718694460664
146,146,[ 5.42985621e+04  1.58924583e+03 -3.17995200e-02  5.65595637e-01],31,1584.1002074864095
147,147,[ 5.42985621e+04  1.58924583e+03 -3.17995200e-02  5.65595637e-01],131,1581.9557265406681
148,148,[ 5.42985621e+04  1.58924583e+03 -3.17995200e-02  5.65595637e-01],139,1585.777084381696
149,149,[ 5.42985621e+04  1.58924583e+03 -3.17995200e-02  5.65595637e-01],762,1588.9297558838268
150,150,[ 5.42985621e+04  1.58924583e+03 -3.17995200e-02  5.65595637e-01],57,1585.265297260075
151,151,[ 5.42985621e+04  1.58924583e+03 -3.17995200e-02  5.65595637e-01],1174,1591.6470567866609
152,152,[ 5.42985621e+04  1.58924583e+03 -3.17995200e-02  5.65595637e-01],403,1582.7949693263186
153,153,[ 5.42985621e+04  1.58924583e+03 -3.17995200e-02  5.65595637e-01],846,1588.00769070622
154,154,[ 5.42985621e+04  1.58924583e+03 -3.17995200e-02  5.65595637e-01],204,1588.4677184744955
155,155,[ 5.42985621e+04  1.58924583e+03 -3.17995200e-02  5.65595637e-01],1002,1589.066248712127
156,156,[ 5.42985621e+04  1.58924583e+03 -3.17995200e-02  5.65595637e-01],1320,1591.8271783761745
157,157,[ 5.42985621e+04  1.58924583e+03 -3.17995200e-02  5.65595637e-01],1072,1586.9434132235049
158,158,[ 5.42985621e+04  1.58924583e+03 -3.17995200e-02  5.65595637e-01],511,1577.8706766719154
159,159,[ 5.42985621e+04  1.58924583e+03 -3.17995200e-02  5.65595637e-01],305,1584.2212940243298
160,160,[ 5.42985621e+04  1.58924583e+03 -3.17995200e-02  5.65595637e-01],1273,1588.186308666598
161,161,[ 5.42985621e+04  1.58924583e+03 -3.17995200e-02  5.65595637e-01],1177,1588.0007279185047
162,162,[ 5.42985621e+04  1.58924583e+03 -3.17995200e-02  5.65595637e-01],952,1589.6510806602184
163,163,[ 5.42985621e+04  1.58924583e+03 -3.17995200e-02  5.65595637e-01],476,1587.5814910082559
164,164,[ 5.42985621e+04  1.58924583e+03 -3.17995200e-02  5.65595637e-01],411,1582.711191443898
165,165,[ 5.42985621e+04  1.58924583e+03 -3.17995200e-02  5.65595637e-01],359,1584.7520739594333
166,166,[ 5.42985621e+04  1.58924583e+03 -3.17995200e-02  5.65595637e-01],640,1583.4126214094988
167,167,[ 5.42985621e+04  1.58924583e+03 -3.17995200e-02  5.65595637e-01],1101,1588.527417196642
168,168,[ 5.42985621e+04  1.58924583e+03 -3.17995200e-02  5.65595637e-01],369,1579.63791460027
169,169,[ 5.42985621e+04  1.58924583e+03 -3.17995200e-02  5.65595637e-01],353,1571.4220761040144
170,170,[ 5.42985621e+04  1.58924583e+03 -3.17995200e-02  5.65595637e-01],1242,1577.5053456418182
171,171,[ 5.42985621e+04  1.58924583e+03 -3.17995200e-02  5.65595637e-01],358,1587.3940615320228
172,172,[ 5.42985621e+04  1.58924583e+03 -3.17995200e-02  5.65595637e-01],322,1590.7799762404043
173,173,[ 5.42985621e+04  1.58924583e+03 -3.17995200e-02  5.65595637e-01],293,1587.8362025580946
174,174,[ 5.42985621e+04  1.58924583e+03 -3.17995200e-02  5.65595637e-01],1475,1577.6164117393082
175,175,[ 5.42985621e+04  1.58924583e+03 -3.17995200e-02  5.65595637e-01],1029,1575.5791266040574
176,176,[ 5.42985621e+04  1.58924583e+03 -3.17995200e-02  5.65595637e-01],693,1571.7210165418917
177,177,[ 5.42985621e+04  1.58924583e+03 -3.17995200e-02  5.65595637e-01],1173,1589.5447687649812
178,178,[ 5.42985621e+04  1.58924583e+03 -3.17995200e-02  5.65595637e-01],714,1588.3098855709827
179,179,[ 5.42985621e+04  1.58924583e+03 -3.17995200e-02  5.65595637e-01],512,1591.249988759712
180,180,[ 5.42985621e+04  1.58924583e+03 -3.17995200e-02  5.65595637e-01],554,1588.5765087309771
181,181,[ 5.42985621e+04  1.58924583e+03 -3.17995200e-02  5.65595637e-01],1464,1582.4773909778605
182,182,[ 5.42985621e+04  1.58924583e+03 -3.17995200e-02  5.65595637e-01],996,1583.436806336887
183,183,[ 5.42985621e+04  1.58924583e+03 -3.17995200e-02  5.65595637e-01],416,1587.2654742422048
184,184,[ 5.42985621e+04  1.58924583e+03 -3.17995200e-02  5.65595637e-01],748,1587.8180068571685
185,185,[ 5.42985621e+04  1.58924583e+03 -3.17995200e-02  5.65595637e-01],709,1584.15739056982
186,186,[ 5.42985621e+04  1.58924583e+03 -3.17995200e-02  5.65595637e-01],1175,1572.963728024511
187,187,[ 5.42985621e+04  1.58924583e+03 -3.17995200e-02  5.65595637e-01],651,1565.0121439814352
188,188,[ 5.42985621e+04  1.58924583e+03 -3.17995200e-02  5.65595637e-01],1315,1556.0569654075452
189,189,[ 5.42985621e+04  1.58924583e+03 -3.17995200e-02  5.65595637e-01],446,1571.2910982675508
190,190,[ 5.42985621e+04  1.58924583e+03 -3.17995200e-02  5.65595637e-01],1024,1580.0409980994277
191,191,[ 5.42985621e+04  1.58924583e+03 -3.17995200e-02  5.65595637e-01],775,1583.2825499389282
192,192,[ 5.42985621e+04  1.58924583e+03 -3.17995200e-02  5.65595637e-01],999,1573.7771789601848
193,193,[ 5.42985621e+04  1.58924583e+03 -3.17995200e-02  5.65595637e-01],922,1561.277314527706
194,194,[ 5.42985621e+04  1.58924583e+03 -3.17995200e-02  5.65595637e-01],486,1574.5442504472733
195,195,[ 5.42985621e+04  1.58924583e+03 -3.17995200e-02  5.65595637e-01],888,1576.5483849314155
196,196,[ 5.42985621e+04  1.58924583e+03 -3.17995200e-02  5.65595637e-01],1057,1568.908576347276
197,197,[ 5.42985621e+04  1.58924583e+03 -3.17995200e-02  5.65595637e-01],522,1561.8742885766967
198,198,[ 5.42985621e+04  1.58924583e+03 -3.17995200e-02  5.65595637e-01],876,1579.9469131031578
199,199,[ 5.42985621e+04  1.58924583e+03 -3.17995200e-02  5.65595637e-01],218,1581.565832311545
200,200,[ 5.42985621e+04  1.58924583e+03 -3.17995200e-02  5.65595637e-01],145,1581.3183703894852
201,201,[ 5.42985621e+04  1.58924583e+03 -3.17995200e-02  5.65595637e-01],535,1561.1757518257605
202,202,[ 5.42985621e+04  1.58924583e+03 -3.17995200e-02  5.65595637e-01],793,1580.4209274803402
203,203,[ 5.42985621e+04  1.58924583e+03 -3.17995200e-02  5.65595637e-01],213,1586.8182829162572
204,204,[ 5.42985621e+04  1.58924583e+03 -3.17995200e-02  5.65595637e-01],836,1590.07155267569
205,205,[ 5.42985621e+04  1.58924583e+03 -3.17995200e-02  5.65595637e-01],1086,1588.9397971588762
206,206,[ 5.42985621e+04  1.58924583e+03 -3.17995200e-02  5.65595637e-01],1070,1583.6513433548675
207,207,[ 5.42985621e+04  1.58924583e+03 -3.17995200e-02  5.65595637e-01],664,1564.07668579386
208,208,[ 5.42985621e+04  1.58924583e+03 -3.17995200e-02  5.65595637e-01],112,1576.9839102762476
209,209,[ 5.42985621e+04  1.58924583e+03 -3.17995200e-02  5.65595637e-01],844,1578.8131772870538
210,210,[ 5.42985621e+04  1.58924583e+03 -3.17995200e-02  5.65595637e-01],465,1582.1616637224388
211,211,[ 5.42985621e+04  1.58924583e+03 -3.17995200e-02  5.65595637e-01],696,1573.2763933561694
212,212,[ 5.42985621e+04  1.58924583e+03 -3.17995200e-02  5.65595637e-01],774,1583.8965657884369
213,213,[ 5.42985621e+04  1.58924583e+03 -3.17995200e-02  5.65595637e-01],231,1589.7539009980426
214,214,[ 5.42985621e+04  1.58924583e+03 -3.17995200e-02  5.65595637e-01],766,1588.2325744103114
215,215,[ 5.42985621e+04  1.58924583e+03 -3.17995200e-02  5.65595637e-01],455,1580.7915546900724
216,216,[ 5.42985621e+04  1.58924583e+03 -3.17995200e-02  5.65595637e-01],683,1586.2974890349744
217,217,[ 5.42985621e+04  1.58924583e+03 -3.17995200e-02  5.65595637e-01],1310,1590.6738842401282
218,218,[ 5.42985621e+04  1.58924583e+03 -3.17995200e-02  5.65595637e-01],423,1589.7814125801353
219,219,[ 5.42985621e+04  1.58924583e+03 -3.17995200e-02  5.65595637e-01],1362,1591.2187043692006
220,220,[ 5.42985621e+04  1.58924583e+03 -3.17995200e-02  5.65595637e-01],294,1585.6092997564197
221,221,[ 5.42985621e+04  1.58924583e+03 -3.17995200e-02  5.65595637e-01],666,1579.9065088580226
222,222,[ 5.42985621e+04  1.58924583e+03 -3.17995200e-02  5.65595637e-01],653,1577.171626231374
223,223,[ 5.42985621e+04  1.58924583e+03 -3.17995200e-02  5.65595637e-01],841,1586.1911550604775
224,224,[ 5.42985621e+04  1.58924583e+03 -3.17995200e-02  5.65595637e-01],273,1586.326923933935
225,225,[ 5.42985621e+04  1.58924583e+03 -3.17995200e-02  5.65595637e-01],162,1590.5420465951277
226,226,[ 5.42985621e+04  1.58924583e+03 -3.17995200e-02  5.65595637e-01],852,1586.0128085409092
227,227,[ 5.42985621e+04  1.58924583e+03 -3.17995200e-02  5.65595637e-01],745,1577.1470270572497
228,228,[ 5.42985621e+04  1.58924583e+03 -3.17995200e-02  5.65595637e-01],882,1585.3901278653805
229,229,[ 5.42985621e+04  1.58924583e+03 -3.17995200e-02  5.65595637e-01],1316,1589.1452775811592
230,230,[ 5.42985621e+04  1.58924583e+03 -3.17995200e-02  5.65595637e-01],1282,1584.0044870250142
231,231,[ 5.42985621e+04  1.58924583e+03 -3.17995200e-02  5.65595637e-01],367,1589.7017104812892
232,232,[ 5.42985621e+04  1.58924583e+03 -3.17995200e-02  5.65595637e-01],703,1589.3947224483106
233,233,[ 5.42985621e+04  1.58924583e+03 -3.17995200e-02  5.65595637e-01],413,1580.2137336461676
234,234,[ 5.42985621e+04  1.58924583e+03 -3.17995200e-02  5.65595637e-01],42,1586.1677263588217
235,235,[ 5.42985621e+04  1.58924583e+03 -3.17995200e-02  5.65595637e-01],662,1586.0739379322267
236,236,[ 5.42985621e+04  1.58924583e+03 -3.17995200e-02  5.65595637e-01],105,1578.0282356702128
237,237,[ 5.42985621e+04  1.58924583e+03 -3.17995200e-02  5.65595637e-01],687,1556.2903331982661
238,238,[ 5.42985621e+04  1.58924583e+03 -3.17995200e-02  5.65595637e-01],1195,1578.3485307055737
239,239,[ 5.42985621e+04  1.58924583e+03 -3.17995200e-02  5.65595637e-01],1165,1584.6799428773743
240,240,[ 5.42985621e+04  1.58924583e+03 -3.17995200e-02  5.65595637e-01],1307,1589.455094517136
241,241,[ 5.42985621e+04  1.58924583e+03 -3.17995200e-02  5.65595637e-01],1158,1589.2822249249296
242,242,[ 5.42985621e+04  1.58924583e+03 -3.17995200e-02  5.65595637e-01],701,1575.530268279953
243,243,[ 5.42985621e+04  1.58924583e+03 -3.17995200e-02  5.65595637e-01],1227,1580.4733603405432
244,244,[ 5.42985621e+04  1.58924583e+03 -3.17995200e-02  5.65595637e-01],1157,1583.565517618549
245,245,[ 5.42985621e+04  1.58924583e+03 -3.17995200e-02  5.65595637e-01],338,1585.922004126158
246,246,[ 5.42985621e+04  1.58924583e+03 -3.17995200e-02  5.65595637e-01],333,1588.3728727627401
247,247,[ 5.42985621e+04  1.58924583e+03 -3.17995200e-02  5.65595637e-01],1386,1585.6704885284778
248,248,[ 5.42985621e+04  1.58924583e+03 -3.17995200e-02  5.65595637e-01],1194,1566.2052496215333
249,249,[ 5.42985621e+04  1.58924583e+03 -3.17995200e-02  5.65595637e-01],177,1569.780726959672
250,250,[ 5.42985621e+04  1.58924583e+03 -3.17995200e-02  5.65595637e-01],454,1577.4892231505517
251,251,[ 5.42985621e+04  1.58924583e+03 -3.17995200e-02  5.65595637e-01],615,1582.7732899520172
252,252,[ 5.42985621e+04  1.58924583e+03 -3.17995200e-02  5.65595637e-01],97,1584.6918125810917
253,253,[ 5.42985621e+04  1.58924583e+03 -3.17995200e-02  5.65595637e-01],1392,1589.2238903037821
254,254,[ 5.42985621e+04  1.58924583e+03 -3.17995200e-02  5.65595637e-01],779,1585.5063393948044
255,255,[ 5.42985621e+04  1.58924583e+03 -3.17995200e-02  5.65595637e-01],1125,1581.7754246308452
256,256,[ 5.42985621e+04  1.58924583e+03 -3.17995200e-02  5.65595637e-01],1391,1589.1068131313516
257,257,[ 5.42985621e+04  1.58924583e+03 -3.17995200e-02  5.65595637e-01],47,1588.0658625177957
258,258,[ 5.42985621e+04  1.58924583e+03 -3.17995200e-02  5.65595637e-01],784,1587.7371878980875
259,259,[ 5.42985621e+04  1.58924583e+03 -3.17995200e-02  5.65595637e-01],608,1584.574605396368
260,260,[ 5.42985621e+04  1.58924583e+03 -3.17995200e-02  5.65595637e-01],488,1591.3767655785923
261,261,[ 5.42985621e+04  1.58924583e+03 -3.17995200e-02  5.65595637e-01],1232,1579.7550464948695
262,262,[ 5.42985621e+04  1.58924583e+03 -3.17995200e-02  5.65595637e-01],1027,1590.524213730629
263,263,[ 5.42985621e+04  1.58924583e+03 -3.17995200e-02  5.65595637e-01],855,1588.0995961509534
264,264,[ 5.42985621e+04  1.58924583e+03 -3.17995200e-02  5.65595637e-01],900,1582.306059456245
265,265,[ 5.42985621e+04  1.58924583e+03 -3.17995200e-02  5.65595637e-01],240,1580.424718019848
266,266,[ 5.42985621e+04  1.58924583e+03 -3.17995200e-02  5.65595637e-01],786,1586.8360733059046
267,267,[ 5.42985621e+04  1.58924583e+03 -3.17995200e-02  5.65595637e-01],928,1587.3099423927172
268,268,[ 5.42985621e+04  1.58924583e+03 -3.17995200e-02  5.65595637e-01],366,1586.8477729278702
269,269,[ 5.42985621e+04  1.58924583e+03 -3.17995200e-02  5.65595637e-01],716,1589.152648213068
270,270,[ 5.42985621e+04  1.58924583e+03 -3.17995200e-02  5.65595637e-01],764,1577.6085055107085
271,271,[ 5.42985621e+04  1.58924583e+03 -3.17995200e-02  5.65595637e-01],140,1579.4636026190906
272,272,[ 5.42985621e+04  1.58924583e+03 -3.17995200e-02  5.65595637e-01],376,1586.4030241117357
273,273,[ 5.42985621e+04  1.58924583e+03 -3.17995200e-02  5.65595637e-01],1039,1589.6514206675351
274,274,[ 5.42985621e+04  1.58924583e+03 -3.17995200e-02  5.65595637e-01],337,1585.0840922113823
275,275,[ 5.42985621e+04  1.58924583e+03 -3.17995200e-02  5.65595637e-01],1454,1578.63627968474
276,276,[ 5.42985621e+04  1.58924583e+03 -3.17995200e-02  5.65595637e-01],1121,1588.3835143909619
277,277,[ 5.42985621e+04  1.58924583e+03 -3.17995200e-02  5.65595637e-01],648,1579.9224106662055
278,278,[ 5.42985621e+04  1.58924583e+03 -3.17995200e-02  5.65595637e-01],1046,1587.5902218314072
279,279,[ 5.42985621e+04  1.58924583e+03 -3.17995200e-02  5.65595637e-01],1112,1585.5944180736121
280,280,[ 5.42985621e+04  1.58924583e+03 -3.17995200e-02  5.65595637e-01],232,1589.2281114729872
281,281,[ 5.42985621e+04  1.58924583e+03 -3.17995200e-02  5.65595637e-01],1098,1583.0564129632708
282,282,[ 5.42985621e+04  1.58924583e+03 -3.17995200e-02  5.65595637e-01],891,1586.6189801826106
283,283,[ 5.42985621e+04  1.58924583e+03 -3.17995200e-02  5.65595637e-01],1080,1586.656750206267
284,284,[ 5.42985621e+04  1.58924583e+03 -3.17995200e-02  5.65595637e-01],731,1579.8447254569146
285,285,[ 5.42985621e+04  1.58924583e+03 -3.17995200e-02  5.65595637e-01],327,1578.7960227962055
286,286,[ 5.42985621e+04  1.58924583e+03 -3.17995200e-02  5.65595637e-01],1295,1562.554399953884
287,287,[ 5.42985621e+04  1.58924583e+03 -3.17995200e-02  5.65595637e-01],742,1557.0471761168671
288,288,[ 5.42985621e+04  1.58924583e+03 -3.17995200e-02  5.65595637e-01],53,1566.4397377601845
289,289,[ 5.42985621e+04  1.58924583e+03 -3.17995200e-02  5.65595637e-01],1055,1569.0981147086663
290,290,[ 5.42985621e+04  1.58924583e+03 -3.17995200e-02  5.65595637e-01],756,1551.2452368310096
291,291,[ 5.42985621e+04  1.58924583e+03 -3.17995200e-02  5.65595637e-01],646,1576.1442770003287
292,292,[ 5.42985621e+04  1.58924583e+03 -3.17995200e-02  5.65595637e-01],36,1584.8456190369102
293,293,[ 5.42985621e+04  1.58924583e+03 -3.17995200e-02  5.65595637e-01],99,1589.9738958690766
294,294,[ 5.42985621e+04  1.58924583e+03 -3.17995200e-02  5.65595637e-01],798,1589.677652717377
295,295,[ 5.42985621e+04  1.58924583e+03 -3.17995200e-02  5.65595637e-01],25,1582.550087360241
296,296,[ 5.42985621e+04  1.58924583e+03 -3.17995200e-02  5.65595637e-01],1314,1559.1041055741246
297,297,[ 5.42985621e+04  1.58924583e+03 -3.17995200e-02  5.65595637e-01],695,1574.8282886647442
298,298,[ 5.42985621e+04  1.58924583e+03 -3.17995200e-02  5.65595637e-01],916,1582.69330136752
299,299,[ 5.42985621e+04  1.58924583e+03 -3.17995200e-02  5.65595637e-01],986,1583.4454889936212
300,300,[ 5.42985621e+04  1.58924583e+03 -3.17995200e-02  5.65595637e-01],241,1588.0518538660417
301,301,[ 5.42985621e+04  1.58924583e+03 -3.17995200e-02  5.65595637e-01],1398,1585.2573868828815
302,302,[ 5.42985621e+04  1.58924583e+03 -3.17995200e-02  5.65595637e-01],1278,1568.7484370330287
303,303,[ 5.42985621e+04  1.58924583e+03 -3.17995200e-02  5.65595637e-01],1033,1570.4210885941577
304,304,[ 5.42985621e+04  1.58924583e+03 -3.17995200e-02  5.65595637e-01],24,1564.236279332489
305,305,[ 5.42985621e+04  1.58924583e+03 -3.17995200e-02  5.65595637e-01],482,1590.061182457439
306,306,[ 5.42985621e+04  1.58924583e+03 -3.17995200e-02  5.65595637e-01],747,1588.785078411086
307,307,[ 5.42985621e+04  1.58924583e+03 -3.17995200e-02  5.65595637e-01],280,1582.9319019176487
308,308,[ 5.42985621e+04  1.58924583e+03 -3.17995200e-02  5.65595637e-01],253,1579.6025977523038
309,309,[ 5.42985621e+04  1.58924583e+03 -3.17995200e-02  5.65595637e-01],422,1586.4063444892288
310,310,[ 5.42985621e+04  1.58924583e+03 -3.17995200e-02  5.65595637e-01],771,1586.959037579404
311,311,[ 5.42985621e+04  1.58924583e+03 -3.17995200e-02  5.65595637e-01],1253,1590.4487260855492
312,312,[ 5.42985621e+04  1.58924583e+03 -3.17995200e-02  5.65595637e-01],832,1590.9560502400984
313,313,[ 5.42985621e+04  1.58924583e+03 -3.17995200e-02  5.65595637e-01],591,1575.3606136000162
314,314,[ 5.42985621e+04  1.58924583e+03 -3.17995200e-02  5.65595637e-01],1304,1580.8540436887256
315,315,[ 5.42985621e+04  1.58924583e+03 -3.17995200e-02  5.65595637e-01],1019,1584.5638341811527
316,316,[ 5.42985621e+04  1.58924583e+03 -3.17995200e-02  5.65595637e-01],1397,1584.2702486527971
317,317,[ 5.42985621e+04  1.58924583e+03 -3.17995200e-02  5.65595637e-01],1111,1585.5160445739448
318,318,[ 5.42985621e+04  1.58924583e+03 -3.17995200e-02  5.65595637e-01],475,1583.3919945557943
319,319,[ 5.42985621e+04  1.58924583e+03 -3.17995200e-02  5.65595637e-01],1018,1565.9496211314329
320,320,[ 5.42985621e+04  1.58924583e+03 -3.17995200e-02  5.65595637e-01],269,1580.530270054368
321,321,[ 5.42985621e+04  1.58924583e+03 -3.17995200e-02  5.65595637e-01],447,1585.8364413866416
322,322,[ 5.42985621e+04  1.58924583e+03 -3.17995200e-02  5.65595637e-01],229,1589.9812435863282
323,323,[ 5.42985621e+04  1.58924583e+03 -3.17995200e-02  5.65595637e-01],1159,1586.7393635565604
324,324,[ 5.42985621e+04  1.58924583e+03 -3.17995200e-02  5.65595637e-01],565,1579.8878808192314
325,325,[ 5.42985621e+04  1.58924583e+03 -3.17995200e-02  5.65595637e-01],1200,1585.911106111208
326,326,[ 5.42985621e+04  1.58924583e+03 -3.17995200e-02  5.65595637e-01],19,1589.1096813979502
327,327,[ 5.42985621e+04  1.58924583e+03 -3.17995200e-02  5.65595637e-01],887,1589.3479959424583
328,328,[ 5.42985621e+04  1.58924583e+03 -3.17995200e-02  5.65595637e-01],797,1587.9505302549842
329,329,[ 5.42985621e+04  1.58924583e+03 -3.17995200e-02  5.65595637e-01],326,1567.767100537631
330,330,[ 5.42985621e+04  1.58924583e+03 -3.17995200e-02  5.65595637e-01],256,1580.1884398707234
331,331,[ 5.42985621e+04  1.58924583e+03 -3.17995200e-02  5.65595637e-01],103,1583.6059293989852
332,332,[ 5.42985621e+04  1.58924583e+03 -3.17995200e-02  5.65595637e-01],1284,1586.7483658020326
333,333,[ 5.42985621e+04  1.58924583e+03 -3.17995200e-02  5.65595637e-01],580,1589.5464149993447
334,334,[ 5.42985621e+04  1.58924583e+03 -3.17995200e-02  5.65595637e-01],155,1588.853870733217
335,335,[ 5.42985621e+04  1.58924583e+03 -3.17995200e-02  5.65595637e-01],614,1582.1727745166015
336,336,[ 5.42985621e+04  1.58924583e+03 -3.17995200e-02  5.65595637e-01],850,1584.83342883644
337,337,[ 5.42985621e+04  1.58924583e+03 -3.17995200e-02  5.65595637e-01],1082,1589.414555549635
338,338,[ 5.42985621e+04  1.58924583e+03 -3.17995200e-02  5.65595637e-01],357,1589.5479383245847
339,339,[ 5.42985621e+04  1.58924583e+03 -3.17995200e-02  5.65595637e-01],910,1587.777364419541
340,340,[ 5.42985621e+04  1.58924583e+03 -3.17995200e-02  5.65595637e-01],1129,1574.9249523145959
341,341,[ 5.42985621e+04  1.58924583e+03 -3.17995200e-02  5.65595637e-01],375,1581.1298848124243
342,342,[ 5.42985621e+04  1.58924583e+03 -3.17995200e-02  5.65595637e-01],1223,1585.085403530682
343,343,[ 5.42985621e+04  1.58924583e+03 -3.17995200e-02  5.65595637e-01],862,1588.2124487985993
344,344,[ 5.42985621e+04  1.58924583e+03 -3.17995200e-02  5.65595637e-01],1043,1587.993097827225
345,345,[ 5.42985621e+04  1.58924583e+03 -3.17995200e-02  5.65595637e-01],1308,1582.3564277842427
346,346,[ 5.42985621e+04  1.58924583e+03 -3.17995200e-02  5.65595637e-01],863,1590.4338620805918
347,347,[ 5.42985621e+04  1.58924583e+03 -3.17995200e-02  5.65595637e-01],767,1587.6225478541455
348,348,[ 5.42985621e+04  1.58924583e+03 -3.17995200e-02  5.65595637e-01],951,1586.7674632637365
349,349,[ 5.42985621e+04  1.58924583e+03 -3.17995200e-02  5.65595637e-01],680,1587.729691146124
350,350,[ 5.42985621e+04  1.58924583e+03 -3.17995200e-02  5.65595637e-01],1272,1588.8492980563237
351,351,[ 5.42985621e+04  1.58924583e+03 -3.17995200e-02  5.65595637e-01],1235,1584.6157365634622
352,352,[ 5.42985621e+04  1.58924583e+03 -3.17995200e-02  5.65595637e-01],1146,1585.3170985286285
353,353,[ 5.42985621e+04  1.58924583e+03 -3.17995200e-02  5.65595637e-01],1083,1590.0129597916684
354,354,[ 5.42985621e+04  1.58924583e+03 -3.17995200e-02  5.65595637e-01],1011,1590.5630101274094
355,355,[ 5.42985621e+04  1.58924583e+03 -3.17995200e-02  5.65595637e-01],770,1585.5132787444352
356,356,[ 5.42985621e+04  1.58924583e+03 -3.17995200e-02  5.65595637e-01],883,1577.3316591643052
357,357,[ 5.42985621e+04  1.58924583e+03 -3.17995200e-02  5.65595637e-01],590,1589.0429198176525
358,358,[ 5.42985621e+04  1.58924583e+03 -3.17995200e-02  5.65595637e-01],489,1589.993401024339
359,359,[ 5.42985621e+04  1.58924583e+03 -3.17995200e-02  5.65595637e-01],807,1590.0307458476032
360,360,[ 5.42985621e+04  1.58924583e+03 -3.17995200e-02  5.65595637e-01],1081,1585.7022957956576
361,361,[ 5.42985621e+04  1.58924583e+03 -3.17995200e-02  5.65595637e-01],205,1579.3322459526637
362,362,[ 5.42985621e+04  1.58924583e+03 -3.17995200e-02  5.65595637e-01],149,1590.9129948620657
363,363,[ 5.42985621e+04  1.58924583e+03 -3.17995200e-02  5.65595637e-01],808,1590.627620187882
364,364,[ 5.42985621e+04  1.58924583e+03 -3.17995200e-02  5.65595637e-01],890,1583.3849974372517
365,365,[ 5.42985621e+04  1.58924583e+03 -3.17995200e-02  5.65595637e-01],541,1591.0723749314334
366,366,[ 5.42985621e+04  1.58924583e+03 -3.17995200e-02  5.65595637e-01],783,1589.4455294186052
367,367,[ 5.42985621e+04  1.58924583e+03 -3.17995200e-02  5.65595637e-01],420,1589.635941817289
368,368,[ 5.42985621e+04  1.58924583e+03 -3.17995200e-02  5.65595637e-01],1061,1582.963315095085
369,369,[ 5.42985621e+04  1.58924583e+03 -3.17995200e-02  5.65595637e-01],909,1590.013285625428
370,370,[ 5.42985621e+04  1.58924583e+03 -3.17995200e-02  5.65595637e-01],674,1588.5799619740233
371,371,[ 5.42985621e+04  1.58924583e+03 -3.17995200e-02  5.65595637e-01],1044,1588.5853239946541
372,372,[ 5.42985621e+04  1.58924583e+03 -3.17995200e-02  5.65595637e-01],1164,1590.6476835768092
373,373,[ 5.42985621e+04  1.58924583e+03 -3.17995200e-02  5.65595637e-01],334,1590.749579927858
374,374,[ 5.42985621e+04  1.58924583e+03 -3.17995200e-02  5.65595637e-01],350,1586.8539594932768
375,375,[ 5.42985621e+04  1.58924583e+03 -3.17995200e-02  5.65595637e-01],947,1589.0308589761219
376,376,[ 5.42985621e+04  1.58924583e+03 -3.17995200e-02  5.65595637e-01],426,1589.4205995942175
377,377,[ 5.42985621e+04  1.58924583e+03 -3.17995200e-02  5.65595637e-01],388,1591.414868789521
378,378,[ 5.42985621e+04  1.58924583e+03 -3.17995200e-02  5.65595637e-01],773,1581.3485446305053
379,379,[ 5.42985621e+04  1.58924583e+03 -3.17995200e-02  5.65595637e-01],8,1581.8995891641496
380,380,[ 5.42985621e+04  1.58924583e+03 -3.17995200e-02  5.65595637e-01],1156,1585.9185217169936
381,381,[ 5.42985621e+04  1.58924583e+03 -3.17995200e-02  5.65595637e-01],1078,1590.176715938009
382,382,[ 5.42985621e+04  1.58924583e+03 -3.17995200e-02  5.65595637e-01],306,1590.5037480120814
383,383,[ 5.42985621e+04  1.58924583e+03 -3.17995200e-02  5.65595637e-01],1130,1590.2883798018568
384,384,[ 5.42985621e+04  1.58924583e+03 -3.17995200e-02  5.65595637e-01],729,1586.5340655772034
385,385,[ 5.42985621e+04  1.58924583e+03 -3.17995200e-02  5.65595637e-01],795,1586.103774596801
386,386,[ 5.42985621e+04  1.58924583e+03 -3.17995200e-02  5.65595637e-01],1171,1588.17887192439
387,387,[ 5.42985621e+04  1.58924583e+03 -3.17995200e-02  5.65595637e-01],914,1587.5439364380707
388,388,[ 5.42985621e+04  1.58924583e+03 -3.17995200e-02  5.65595637e-01],1134,1588.8288527182258
389,389,[ 5.42985621e+04  1.58924583e+03 -3.17995200e-02  5.65595637e-01],1047,1585.525869125294
390,390,[ 5.42985621e+04  1.58924583e+03 -3.17995200e-02  5.65595637e-01],673,1580.1964402454519
391,391,[ 5.42985621e+04  1.58924583e+03 -3.17995200e-02  5.65595637e-01],1402,1582.4809474140145
392,392,[ 5.42985621e+04  1.58924583e+03 -3.17995200e-02  5.65595637e-01],1119,1582.0821845340788
393,393,[ 5.42985621e+04  1.58924583e+03 -3.17995200e-02  5.65595637e-01],794,1574.9805465296442
394,394,[ 5.42985621e+04  1.58924583e+03 -3.17995200e-02  5.65595637e-01],768,1565.1571385050106
395,395,[ 5.42985621e+04  1.58924583e+03 -3.17995200e-02  5.65595637e-01],1068,1580.219674297016
396,396,[ 5.42985621e+04  1.58924583e+03 -3.17995200e-02  5.65595637e-01],879,1586.7343501653245
397,397,[ 5.42985621e+04  1.58924583e+03 -3.17995200e-02  5.65595637e-01],655,1581.6074694258764
398,398,[ 5.42985621e+04  1.58924583e+03 -3.17995200e-02  5.65595637e-01],1132,1586.3479278830869
399,399,[ 5.42985621e+04  1.58924583e+03 -3.17995200e-02  5.65595637e-01],1377,1585.1699080479368
400,400,[ 5.42985621e+04  1.58924583e+03 -3.17995200e-02  5.65595637e-01],1163,1588.5676455734285
401,401,[ 5.42985621e+04  1.58924583e+03 -3.17995200e-02  5.65595637e-01],1296,1584.1745341695953
402,402,[ 5.42985621e+04  1.58924583e+03 -3.17995200e-02  5.65595637e-01],853,1588.1406718121086
403,403,[ 5.42985621e+04  1.58924583e+03 -3.17995200e-02  5.65595637e-01],41,1590.0837397939315
404,404,[ 5.42985621e+04  1.58924583e+03 -3.17995200e-02  5.65595637e-01],38,1591.448743442115
405,405,[ 5.42985621e+04  1.58924583e+03 -3.17995200e-02  5.65595637e-01],1036,1583.7079438896192
406,406,[ 5.42985621e+04  1.58924583e+03 -3.17995200e-02  5.65595637e-01],1147,1569.707950524285
407,407,[ 5.42985621e+04  1.58924583e+03 -3.17995200e-02  5.65595637e-01],1196,1577.5314830468058
408,408,[ 5.42985621e+04  1.58924583e+03 -3.17995200e-02  5.65595637e-01],371,1583.1896417812768
409,409,[ 5.42985621e+04  1.58924583e+03 -3.17995200e-02  5.65595637e-01],370,1591.030940631962
410,410,[ 5.42985621e+04  1.58924583e+03 -3.17995200e-02  5.65595637e-01],1073,1588.3233336592489
411,411,[ 5.42985621e+04  1.58924583e+03 -3.17995200e-02  5.65595637e-01],180,1590.0317534793792
412,412,[ 5.42985621e+04  1.58924583e+03 -3.17995200e-02  5.65595637e-01],837,1583.4682041728186
413,413,[ 5.42985621e+04  1.58924583e+03 -3.17995200e-02  5.65595637e-01],981,1589.6124329255676
414,414,[ 5.42985621e+04  1.58924583e+03 -3.17995200e-02  5.65595637e-01],1095,1581.5963624222402
415,415,[ 5.42985621e+04  1.58924583e+03 -3.17995200e-02  5.65595637e-01],400,1587.4845635925317
416,416,[ 5.42985621e+04  1.58924583e+03 -3.17995200e-02  5.65595637e-01],997,1589.8982213910012
417,417,[ 5.42985621e+04  1.58924583e+03 -3.17995200e-02  5.65595637e-01],481,1590.8327809877437
418,418,[ 5.42985621e+04  1.58924583e+03 -3.17995200e-02  5.65595637e-01],757,1581.595914289938
419,419,[ 5.42985621e+04  1.58924583e+03 -3.17995200e-02  5.65595637e-01],871,1588.28692178024
420,420,[ 5.42985621e+04  1.58924583e+03 -3.17995200e-02  5.65595637e-01],111,1588.8942120963804
421,421,[ 5.42985621e+04  1.58924583e+03 -3.17995200e-02  5.65595637e-01],1010,1588.4829102275537
422,422,[ 5.42985621e+04  1.58924583e+03 -3.17995200e-02  5.65595637e-01],845,1589.2174623820113
423,423,[ 5.42985621e+04  1.58924583e+03 -3.17995200e-02  5.65595637e-01],1109,1589.6854757074464
424,424,[ 5.42985621e+04  1.58924583e+03 -3.17995200e-02  5.65595637e-01],167,1581.0942282811002
425,425,[ 5.42985621e+04  1.58924583e+03 -3.17995200e-02  5.65595637e-01],505,1583.4144528692882
426,426,[ 5.42985621e+04  1.58924583e+03 -3.17995200e-02  5.65595637e-01],2,1588.8328259769717
427,427,[ 5.42985621e+04  1.58924583e+03 -3.17995200e-02  5.65595637e-01],780,1586.1282099874034
428,428,[ 5.42985621e+04  1.58924583e+03 -3.17995200e-02  5.65595637e-01],652,1585.0116617626943
429,429,[ 5.42985621e+04  1.58924583e+03 -3.17995200e-02  5.65595637e-01],421,1569.6789860861675
430,430,[ 5.42985621e+04  1.58924583e+03 -3.17995200e-02  5.65595637e-01],1420,1557.1613027231056
431,431,[ 5.42985621e+04  1.58924583e+03 -3.17995200e-02  5.65595637e-01],1335,1552.7914105271684
432,432,[ 5.42985621e+04  1.58924583e+03 -3.17995200e-02  5.65595637e-01],154,1549.5610926782292
433,433,[ 5.42985621e+04  1.58924583e+03 -3.17995200e-02  5.65595637e-01],790,1564.4755171605439
434,434,[ 5.42985621e+04  1.58924583e+03 -3.17995200e-02  5.65595637e-01],1233,1577.0422539406247
435,435,[ 5.42985621e+04  1.58924583e+03 -3.17995200e-02  5.65595637e-01],859,1586.1397608074415
436,436,[ 5.42985621e+04  1.58924583e+03 -3.17995200e-02  5.65595637e-01],1058,1583.672077328787
437,437,[ 5.42985621e+04  1.58924583e+03 -3.17995200e-02  5.65595637e-01],826,1581.2218225254471
438,438,[ 5.42985621e+04  1.58924583e+03 -3.17995200e-02  5.65595637e-01],802,1557.0858284952792
439,439,[ 5.42985621e+04  1.58924583e+03 -3.17995200e-02  5.65595637e-01],628,1571.59484170977
440,440,[ 5.42985621e+04  1.58924583e+03 -3.17995200e-02  5.65595637e-01],704,1579.058611295763
441,441,[ 5.42985621e+04  1.58924583e+03 -3.17995200e-02  5.65595637e-01],1376,1582.0664535343515
442,442,[ 5.42985621e+04  1.58924583e+03 -3.17995200e-02  5.65595637e-01],276,1581.8619146458652
443,443,[ 5.42985621e+04  1.58924583e+03 -3.17995200e-02  5.65595637e-01],1069,1571.7234682292083
444,444,[ 5.42985621e+04  1.58924583e+03 -3.17995200e-02  5.65595637e-01],246,1556.1688965735398
445,445,[ 5.42985621e+04  1.58924583e+03 -3.17995200e-02  5.65595637e-01],1201,1583.0724523082936
446,446,[ 5.42985621e+04  1.58924583e+03 -3.17995200e-02  5.65595637e-01],1089,1589.8413245512902
447,447,[ 5.42985621e+04  1.58924583e+03 -3.17995200e-02  5.65595637e-01],104,1589.149569379378
448,448,[ 5.42985621e+04  1.58924583e+03 -3.17995200e-02  5.65595637e-01],1191,1591.158769528505
449,449,[ 5.42985621e+04  1.58924583e+03 -3.17995200e-02  5.65595637e-01],1020,1586.9645464777498
450,450,[ 5.42985621e+04  1.58924583e+03 -3.17995200e-02  5.65595637e-01],1076,1567.1153181266836
451,451,[ 5.42985621e+04  1.58924583e+03 -3.17995200e-02  5.65595637e-01],776,1579.8335802426534
452,452,[ 5.42985621e+04  1.58924583e+03 -3.17995200e-02  5.65595637e-01],410,1585.8691042214534
453,453,[ 5.42985621e+04  1.58924583e+03 -3.17995200e-02  5.65595637e-01],464,1590.4299190590546
454,454,[ 5.42985621e+04  1.58924583e+03 -3.17995200e-02  5.65595637e-01],1236,1589.5246469980402
455,455,[ 5.42985621e+04  1.58924583e+03 -3.17995200e-02  5.65595637e-01],507,1589.6958496636385
456,456,[ 5.42985621e+04  1.58924583e+03 -3.17995200e-02  5.65595637e-01],178,1578.5843296514668
457,457,[ 5.42985621e+04  1.58924583e+03 -3.17995200e-02  5.65595637e-01],946,1585.2864407679633
458,458,[ 5.42985621e+04  1.58924583e+03 -3.17995200e-02  5.65595637e-01],1281,1586.2389319549216
459,459,[ 5.42985621e+04  1.58924583e+03 -3.17995200e-02  5.65595637e-01],1279,1590.7038886260293
460,460,[ 5.42985621e+04  1.58924583e+03 -3.17995200e-02  5.65595637e-01],578,1585.173712852399
461,461,[ 5.42985621e+04  1.58924583e+03 -3.17995200e-02  5.65595637e-01],602,1569.1059441343018
462,462,[ 5.42985621e+04  1.58924583e+03 -3.17995200e-02  5.65595637e-01],1442,1574.0513026556664
463,463,[ 5.42985621e+04  1.58924583e+03 -3.17995200e-02  5.65595637e-01],1400,1577.7702676332894
464,464,[ 5.42985621e+04  1.58924583e+03 -3.17995200e-02  5.65595637e-01],419,1588.3226775807736
465,465,[ 5.42985621e+04  1.58924583e+03 -3.17995200e-02  5.65595637e-01],1099,1589.7109024197832
466,466,[ 5.42985621e+04  1.58924583e+03 -3.17995200e-02  5.65595637e-01],1042,1582.2782781339704
467,467,[ 5.42985621e+04  1.58924583e+03 -3.17995200e-02  5.65595637e-01],51,1587.803735259717
468,468,[ 5.42985621e+04  1.58924583e+03 -3.17995200e-02  5.65595637e-01],1559,1583.2228549511847
469,469,[ 5.42985621e+04  1.58924583e+03 -3.17995200e-02  5.65595637e-01],1202,1585.540626876905
470,470,[ 5.42985621e+04  1.58924583e+03 -3.17995200e-02  5.65595637e-01],789,1585.7776839877172
471,471,[ 5.42985621e+04  1.58924583e+03 -3.17995200e-02  5.65595637e-01],214,1590.2896470711523
472,472,[ 5.42985621e+04  1.58924583e+03 -3.17995200e-02  5.65595637e-01],765,1567.9065924209563
473,473,[ 5.42985621e+04  1.58924583e+03 -3.17995200e-02  5.65595637e-01],1135,1582.721060075029
474,474,[ 5.42985621e+04  1.58924583e+03 -3.17995200e-02  5.65595637e-01],613,1586.5425269192685
475,475,[ 5.42985621e+04  1.58924583e+03 -3.17995200e-02  5.65595637e-01],343,1589.1689704287944
476,476,[ 5.42985621e+04  1.58924583e+03 -3.17995200e-02  5.65595637e-01],918,1590.0390180487123
477,477,[ 5.42985621e+04  1.58924583e+03 -3.17995200e-02  5.65595637e-01],160,1586.532014803998
478,478,[ 5.42985621e+04  1.58924583e+03 -3.17995200e-02  5.65595637e-01],386,1570.912299585019
479,479,[ 5.42985621e+04  1.58924583e+03 -3.17995200e-02  5.65595637e-01],1280,1583.0031797865643
480,480,[ 5.42985621e+04  1.58924583e+03 -3.17995200e-02  5.65595637e-01],1396,1587.6600977176267
481,481,[ 5.42985621e+04  1.58924583e+03 -3.17995200e-02  5.65595637e-01],1023,1588.5597641367053
482,482,[ 5.42985621e+04  1.58924583e+03 -3.17995200e-02  5.65595637e-01],1452,1589.2441723500044
483,483,[ 5.42985621e+04  1.58924583e+03 -3.17995200e-02  5.65595637e-01],402,1591.1646185592335
484,484,[ 5.42985621e+04  1.58924583e+03 -3.17995200e-02  5.65595637e-01],921,1581.5440581405633
485,485,[ 5.42985621e+04  1.58924583e+03 -3.17995200e-02  5.65595637e-01],263,1583.9486306859696
486,486,[ 5.42985621e+04  1.58924583e+03 -3.17995200e-02  5.65595637e-01],877,1589.8114228778877
487,487,[ 5.42985621e+04  1.58924583e+03 -3.17995200e-02  5.65595637e-01],689,1590.947779711817
488,488,[ 5.42985621e+04  1.58924583e+03 -3.17995200e-02  5.65595637e-01],50,1589.4829278926413
489,489,[ 5.42985621e+04  1.58924583e+03 -3.17995200e-02  5.65595637e-01],901,1588.952663680802
490,490,[ 5.42985621e+04  1.58924583e+03 -3.17995200e-02  5.65595637e-01],257,1575.014410859672
491,491,[ 5.42985621e+04  1.58924583e+03 -3.17995200e-02  5.65595637e-01],1437,1576.671669954929
492,492,[ 5.42985621e+04  1.58924583e+03 -3.17995200e-02  5.65595637e-01],595,1579.2166567428058
493,493,[ 5.42985621e+04  1.58924583e+03 -3.17995200e-02  5.65595637e-01],300,1585.179264924546
494,494,[ 5.42985621e+04  1.58924583e+03 -3.17995200e-02  5.65595637e-01],995,1587.532107870904
495,495,[ 5.42985621e+04  1.58924583e+03 -3.17995200e-02  5.65595637e-01],654,1586.9782607673908
496,496,[ 5.42985621e+04  1.58924583e+03 -3.17995200e-02  5.65595637e-01],861,1581.196248474078
497,497,[ 5.42985621e+04  1.58924583e+03 -3.17995200e-02  5.65595637e-01],1149,1582.3371667528118
498,498,[ 5.42985621e+04  1.58924583e+03 -3.17995200e-02  5.65595637e-01],1383,1585.7442630159173
499,499,[ 5.42985621e+04  1.58924583e+03 -3.17995200e-02  5.65595637e-01],830,1585.2879853306106
500,500,[ 5.42985621e+04  1.58924583e+03 -3.17995200e-02  5.65595637e-01],728,1586.935845337166
501,501,[ 5.42985621e+04  1.58924583e+03 -3.17995200e-02  5.65595637e-01],153,1590.675004655975
502,502,[ 5.42985621e+04  1.58924583e+03 -3.17995200e-02  5.65595637e-01],161,1584.0312629631183
503,503,[ 5.42985621e+04  1.58924583e+03 -3.17995200e-02  5.65595637e-01],823,1583.6339350187711
504,504,[ 5.42985621e+04  1.58924583e+03 -3.17995200e-02  5.65595637e-01],344,1583.0849525279846
505,505,[ 5.42985621e+04  1.58924583e+03 -3.17995200e-02  5.65595637e-01],851,1588.5028574121004
506,506,[ 5.42985621e+04  1.58924583e+03 -3.17995200e-02  5.65595637e-01],1321,1591.280409716129
507,507,[ 5.42985621e+04  1.58924583e+03 -3.17995200e-02  5.65595637e-01],328,1588.3127761410099
508,508,[ 5.42985621e+04  1.58924583e+03 -3.17995200e-02  5.65595637e-01],868,1578.365257730944
509,509,[ 5.42985621e+04  1.58924583e+03 -3.17995200e-02  5.65595637e-01],1312,1584.3319453306856
510,510,[ 5.42985621e+04  1.58924583e+03 -3.17995200e-02  5.65595637e-01],1387,1587.2964759498655
511,511,[ 5.42985621e+04  1.58924583e+03 -3.17995200e-02  5.65595637e-01],865,1590.0614123942064
512,512,[ 5.42985621e+04  1.58924583e+03 -3.17995200e-02  5.65595637e-01],854,1589.9329513341638
513,513,[ 5.42985621e+04  1.58924583e+03 -3.17995200e-02  5.65595637e-01],825,1581.6126357829974
514,514,[ 5.42985621e+04  1.58924583e+03 -3.17995200e-02  5.65595637e-01],1077,1574.587687037508
515,515,[ 5.42985621e+04  1.58924583e+03 -3.17995200e-02  5.65595637e-01],1313,1585.2980167100604
516,516,[ 5.42985621e+04  1.58924583e+03 -3.17995200e-02  5.65595637e-01],607,1586.677064605094
517,517,[ 5.42985621e+04  1.58924583e+03 -3.17995200e-02  5.65595637e-01],121,1591.06535440253
518,518,[ 5.42985621e+04  1.58924583e+03 -3.17995200e-02  5.65595637e-01],1306,1590.5649361016517
519,519,[ 5.42985621e+04  1.58924583e+03 -3.17995200e-02  5.65595637e-01],1583,1587.6041861603067
520,520,[ 5.42985621e+04  1.58924583e+03 -3.17995200e-02  5.65595637e-01],821,1580.7660706343722
521,521,[ 5.42985621e+04  1.58924583e+03 -3.17995200e-02  5.65595637e-01],1021,1586.230640822706
522,522,[ 5.42985621e+04  1.58924583e+03 -3.17995200e-02  5.65595637e-01],1193,1589.7935776070626
523,523,[ 5.42985621e+04  1.58924583e+03 -3.17995200e-02  5.65595637e-01],1506,1590.6512702417022
524,524,[ 5.42985621e+04  1.58924583e+03 -3.17995200e-02  5.65595637e-01],892,1590.4184022213492
525,525,[ 5.42985621e+04  1.58924583e+03 -3.17995200e-02  5.65595637e-01],1404,1582.9870022850434
526,526,[ 5.42985621e+04  1.58924583e+03 -3.17995200e-02  5.65595637e-01],548,1581.2968751640196
527,527,[ 5.42985621e+04  1.58924583e+03 -3.17995200e-02  5.65595637e-01],940,1584.4668384672823
528,528,[ 5.42985621e+04  1.58924583e+03 -3.17995200e-02  5.65595637e-01],679,1587.6682237690986
529,529,[ 5.42985621e+04  1.58924583e+03 -3.17995200e-02  5.65595637e-01],173,1587.0126549270158
530,530,[ 5.42985621e+04  1.58924583e+03 -3.17995200e-02  5.65595637e-01],1257,1584.1162213982832
531,531,[ 5.42985621e+04  1.58924583e+03 -3.17995200e-02  5.65595637e-01],730,1580.0491222016574
532,532,[ 5.42985621e+04  1.58924583e+03 -3.17995200e-02  5.65595637e-01],1395,1560.6922123027857
533,533,[ 5.42985621e+04  1.58924583e+03 -3.17995200e-02  5.65595637e-01],184,1583.3969861565477
534,534,[ 5.42985621e+04  1.58924583e+03 -3.17995200e-02  5.65595637e-01],467,1585.91885909921
535,535,[ 5.42985621e+04  1.58924583e+03 -3.17995200e-02  5.65595637e-01],1136,1589.7662756717673
536,536,[ 5.42985621e+04  1.58924583e+03 -3.17995200e-02  5.65595637e-01],1108,1587.6134325319142
537,537,[ 5.42985621e+04  1.58924583e+03 -3.17995200e-02  5.65595637e-01],1213,1591.1141863215014
538,538,[ 5.42985621e+04  1.58924583e+03 -3.17995200e-02  5.65595637e-01],13,1581.1701498691584
539,539,[ 5.42985621e+04  1.58924583e+03 -3.17995200e-02  5.65595637e-01],339,1577.6627291053906
540,540,[ 5.42985621e+04  1.58924583e+03 -3.17995200e-02  5.65595637e-01],980,1583.6024766229687
541,541,[ 5.42985621e+04  1.58924583e+03 -3.17995200e-02  5.65595637e-01],258,1588.9113514505555
542,542,[ 5.42985621e+04  1.58924583e+03 -3.17995200e-02  5.65595637e-01],1553,1590.298727123127
543,543,[ 5.42985621e+04  1.58924583e+03 -3.17995200e-02  5.65595637e-01],886,1581.715233087724
544,544,[ 5.42985621e+04  1.58924583e+03 -3.17995200e-02  5.65595637e-01],1319,1574.8038407248034
545,545,[ 5.42985621e+04  1.58924583e+03 -3.17995200e-02  5.65595637e-01],1418,1584.0688943981045
546,546,[ 5.42985621e+04  1.58924583e+03 -3.17995200e-02  5.65595637e-01],349,1586.1139837868523
547,547,[ 5.42985621e+04  1.58924583e+03 -3.17995200e-02  5.65595637e-01],1022,1587.499983770619
548,548,[ 5.42985621e+04  1.58924583e+03 -3.17995200e-02  5.65595637e-01],1324,1587.8702102408622
549,549,[ 5.42985621e+04  1.58924583e+03 -3.17995200e-02  5.65595637e-01],1189,1582.1836003372302
550,550,[ 5.42985621e+04  1.58924583e+03 -3.17995200e-02  5.65595637e-01],552,1569.3189008647892
551,551,[ 5.42985621e+04  1.58924583e+03 -3.17995200e-02  5.65595637e-01],528,1582.5674162289515
552,552,[ 5.42985621e+04  1.58924583e+03 -3.17995200e-02  5.65595637e-01],480,1587.6700625142898
553,553,[ 5.42985621e+04  1.58924583e+03 -3.17995200e-02  5.65595637e-01],1277,1585.8521458517073
554,554,[ 5.42985621e+04  1.58924583e+03 -3.17995200e-02  5.65595637e-01],1231,1589.9256318579762
555,555,[ 5.42985621e+04  1.58924583e+03 -3.17995200e-02  5.65595637e-01],839,1584.574074556844
556,556,[ 5.42985621e+04  1.58924583e+03 -3.17995200e-02  5.65595637e-01],665,1570.3575090292031
557,557,[ 5.42985621e+04  1.58924583e+03 -3.17995200e-02  5.65595637e-01],58,1572.9928896172569
558,558,[ 5.42985621e+04  1.58924583e+03 -3.17995200e-02  5.65595637e-01],135,1577.7592396975842
559,559,[ 5.42985621e+04  1.58924583e+03 -3.17995200e-02  5.65595637e-01],820,1584.6175085211562
560,560,[ 5.42985621e+04  1.58924583e+03 -3.17995200e-02  5.65595637e-01],1382,1587.1490896166606
561,561,[ 5.42985621e+04  1.58924583e+03 -3.17995200e-02  5.65595637e-01],831,1567.129407505099
562,562,[ 5.42985621e+04  1.58924583e+03 -3.17995200e-02  5.65595637e-01],705,1560.276201466413
563,563,[ 5.42985621e+04  1.58924583e+03 -3.17995200e-02  5.65595637e-01],347,1575.3677093305255
564,564,[ 5.42985621e+04  1.58924583e+03 -3.17995200e-02  5.65595637e-01],1381,1583.2262319596882
565,565,[ 5.42985621e+04  1.58924583e+03 -3.17995200e-02  5.65595637e-01],536,1589.14141207149
566,566,[ 5.42985621e+04  1.58924583e+03 -3.17995200e-02  5.65595637e-01],1384,1585.1260282292624
567,567,[ 5.42985621e+04  1.58924583e+03 -3.17995200e-02  5.65595637e-01],1511,1559.99275588481
568,568,[ 5.42985621e+04  1.58924583e+03 -3.17995200e-02  5.65595637e-01],519,1551.6849172027676
569,569,[ 5.42985621e+04  1.58924583e+03 -3.17995200e-02  5.65595637e-01],1075,1569.3249381325768
570,570,[ 5.42985621e+04  1.58924583e+03 -3.17995200e-02  5.65595637e-01],979,1581.4917910347424
571,571,[ 5.42985621e+04  1.58924583e+03 -3.17995200e-02  5.65595637e-01],1435,1583.4566179773149
572,572,[ 5.42985621e+04  1.58924583e+03 -3.17995200e-02  5.65595637e-01],278,1572.6677187390628
573,573,[ 5.42985621e+04  1.58924583e+03 -3.17995200e-02  5.65595637e-01],163,1545.2764074282002
574,574,[ 5.42985621e+04  1.58924583e+03 -3.17995200e-02  5.65595637e-01],1105,1493.061637676194
575,575,[ 5.42985621e+04  1.58924583e+03 -3.17995200e-02  5.65595637e-01],1001,1523.4522875667226
576,576,[ 5.42985621e+04  1.58924583e+03 -3.17995200e-02  5.65595637e-01],21,1557.4470716146054
577,577,[ 5.42985621e+04  1.58924583e+03 -3.17995200e-02  5.65595637e-01],1142,1584.014742438347
578,578,[ 5.42985621e+04  1.58924583e+03 -3.17995200e-02  5.65595637e-01],1251,1588.304967392005
579,579,[ 5.42985621e+04  1.58924583e+03 -3.17995200e-02  5.65595637e-01],1447,1591.0737397579014
580,580,[ 5.42985621e+04  1.58924583e+03 -3.17995200e-02  5.65595637e-01],1334,1589.0859497775148
581,581,[ 5.42985621e+04  1.58924583e+03 -3.17995200e-02  5.65595637e-01],387,1584.462010073071
582,582,[ 5.42985621e+04  1.58924583e+03 -3.17995200e-02  5.65595637e-01],880,1579.778393854535
583,583,[ 5.42985621e+04  1.58924583e+03 -3.17995200e-02  5.65595637e-01],1040,1565.2276964373154
584,584,[ 5.42985621e+04  1.58924583e+03 -3.17995200e-02  5.65595637e-01],494,1551.9256442017481
585,585,[ 5.42985621e+04  1.58924583e+03 -3.17995200e-02  5.65595637e-01],106,1566.7367358479357
586,586,[ 5.42985621e+04  1.58924583e+03 -3.17995200e-02  5.65595637e-01],1299,1581.2727137031973
587,587,[ 5.42985621e+04  1.58924583e+03 -3.17995200e-02  5.65595637e-01],782,1583.9437933856707
588,588,[ 5.42985621e+04  1.58924583e+03 -3.17995200e-02  5.65595637e-01],974,1586.7620769071227
589,589,[ 5.42985621e+04  1.58924583e+03 -3.17995200e-02  5.65595637e-01],1243,1586.736501181655
590,590,[ 5.42985621e+04  1.58924583e+03 -3.17995200e-02  5.65595637e-01],547,1588.9587190364061
591,591,[ 5.42985621e+04  1.58924583e+03 -3.17995200e-02  5.65595637e-01],1497,1589.1901594234025
592,592,[ 5.42985621e+04  1.58924583e+03 -3.17995200e-02  5.65595637e-01],1283,1586.135526063678
593,593,[ 5.42985621e+04  1.58924583e+03 -3.17995200e-02  5.65595637e-01],415,1585.9755534056126
594,594,[ 5.42985621e+04  1.58924583e+03 -3.17995200e-02  5.65595637e-01],842,1586.5679164881176
595,595,[ 5.42985621e+04  1.58924583e+03 -3.17995200e-02  5.65595637e-01],718,1588.051988929338
596,596,[ 5.42985621e+04  1.58924583e+03 -3.17995200e-02  5.65595637e-01],1162,1585.406079785592
597,597,[ 5.42985621e+04  1.58924583e+03 -3.17995200e-02  5.65595637e-01],926,1577.493430249316
598,598,[ 5.42985621e+04  1.58924583e+03 -3.17995200e-02  5.65595637e-01],1343,1579.8983539274552
599,599,[ 5.42985621e+04  1.58924583e+03 -3.17995200e-02  5.65595637e-01],998,1572.2895277766463
600,600,[ 5.42985621e+04  1.58924583e+03 -3.17995200e-02  5.65595637e-01],1246,1590.601510125754
601,601,[ 5.42985621e+04  1.58924583e+03 -3.17995200e-02  5.65595637e-01],1230,1590.43501250906
602,602,[ 5.42985621e+04  1.58924583e+03 -3.17995200e-02  5.65595637e-01],1030,1588.301876071461
603,603,[ 5.42985621e+04  1.58924583e+03 -3.17995200e-02  5.65595637e-01],1328,1586.3599447132187
604,604,[ 5.42985621e+04  1.58924583e+03 -3.17995200e-02  5.65595637e-01],56,1590.4208613624119
605,605,[ 5.42985621e+04  1.58924583e+03 -3.17995200e-02  5.65595637e-01],893,1586.5892173796021
606,606,[ 5.42985621e+04  1.58924583e+03 -3.17995200e-02  5.65595637e-01],1409,1586.784920506038
607,607,[ 5.42985621e+04  1.58924583e+03 -3.17995200e-02  5.65595637e-01],1097,1587.9163155400659
608,608,[ 5.42985621e+04  1.58924583e+03 -3.17995200e-02  5.65595637e-01],755,1589.4866274411427
609,609,[ 5.42985621e+04  1.58924583e+03 -3.17995200e-02  5.65595637e-01],933,1590.6459115446137
610,610,[ 5.42985621e+04  1.58924583e+03 -3.17995200e-02  5.65595637e-01],171,1583.6445065095843
611,611,[ 5.42985621e+04  1.58924583e+03 -3.17995200e-02  5.65595637e-01],884,1581.2749328434957
612,612,[ 5.42985621e+04  1.58924583e+03 -3.17995200e-02  5.65595637e-01],812,1583.0635636923232
613,613,[ 5.42985621e+04  1.58924583e+03 -3.17995200e-02  5.65595637e-01],1062,1588.2195751490801
614,614,[ 5.42985621e+04  1.58924583e+03 -3.17995200e-02  5.65595637e-01],1064,1589.0588277004308
615,615,[ 5.42985621e+04  1.58924583e+03 -3.17995200e-02  5.65595637e-01],1502,1589.5185350656175
616,616,[ 5.42985621e+04  1.58924583e+03 -3.17995200e-02  5.65595637e-01],726,1584.540302390799
617,617,[ 5.42985621e+04  1.58924583e+03 -3.17995200e-02  5.65595637e-01],1425,1574.5034064784363
618,618,[ 5.42985621e+04  1.58924583e+03 -3.17995200e-02  5.65595637e-01],866,1579.1172195154877
619,619,[ 5.42985621e+04  1.58924583e+03 -3.17995200e-02  5.65595637e-01],1131,1581.8156395975
620,620,[ 5.42985621e+04  1.58924583e+03 -3.17995200e-02  5.65595637e-01],1187,1584.5479615953977
621,621,[ 5.42985621e+04  1.58924583e+03 -3.17995200e-02  5.65595637e-01],43,1584.8109170418165
622,622,[ 5.42985621e+04  1.58924583e+03 -3.17995200e-02  5.65595637e-01],635,1583.6858898242995
623,623,[ 5.42985621e+04  1.58924583e+03 -3.17995200e-02  5.65595637e-01],787,1574.804697441057
624,624,[ 5.42985621e+04  1.58924583e+03 -3.17995200e-02  5.65595637e-01],1228,1571.5431131013843
625,625,[ 5.42985621e+04  1.58924583e+03 -3.17995200e-02  5.65595637e-01],1256,1576.6663864761485
626,626,[ 5.42985621e+04  1.58924583e+03 -3.17995200e-02  5.65595637e-01],267,1584.9204911871088
627,627,[ 5.42985621e+04  1.58924583e+03 -3.17995200e-02  5.65595637e-01],510,1590.2025327548877
628,628,[ 5.42985621e+04  1.58924583e+03 -3.17995200e-02  5.65595637e-01],1059,1588.4080422482432
629,629,[ 5.42985621e+04  1.58924583e+03 -3.17995200e-02  5.65595637e-01],1401,1586.3949724701322
630,630,[ 5.42985621e+04  1.58924583e+03 -3.17995200e-02  5.65595637e-01],39,1572.3920756679993
631,631,[ 5.42985621e+04  1.58924583e+03 -3.17995200e-02  5.65595637e-01],1009,1581.894532817136
632,632,[ 5.42985621e+04  1.58924583e+03 -3.17995200e-02  5.65595637e-01],772,1583.9209412667249
633,633,[ 5.42985621e+04  1.58924583e+03 -3.17995200e-02  5.65595637e-01],1298,1585.9090784706339
634,634,[ 5.42985621e+04  1.58924583e+03 -3.17995200e-02  5.65595637e-01],183,1587.2073577769772
635,635,[ 5.42985621e+04  1.58924583e+03 -3.17995200e-02  5.65595637e-01],1004,1587.3191158157902
636,636,[ 5.42985621e+04  1.58924583e+03 -3.17995200e-02  5.65595637e-01],1071,1579.9901252817815
637,637,[ 5.42985621e+04  1.58924583e+03 -3.17995200e-02  5.65595637e-01],1309,1577.125272887092
638,638,[ 5.42985621e+04  1.58924583e+03 -3.17995200e-02  5.65595637e-01],791,1585.5005118264648
639,639,[ 5.42985621e+04  1.58924583e+03 -3.17995200e-02  5.65595637e-01],1267,1585.5966855548947
640,640,[ 5.42985621e+04  1.58924583e+03 -3.17995200e-02  5.65595637e-01],1012,1590.0230467279962
641,641,[ 5.42985621e+04  1.58924583e+03 -3.17995200e-02  5.65595637e-01],1241,1590.3132992474684
642,642,[ 5.42985621e+04  1.58924583e+03 -3.17995200e-02  5.65595637e-01],1154,1585.585602384783
643,643,[ 5.42985621e+04  1.58924583e+03 -3.17995200e-02  5.65595637e-01],878,1576.3224001318722
644,644,[ 5.42985621e+04  1.58924583e+03 -3.17995200e-02  5.65595637e-01],1247,1584.3039765212084
645,645,[ 5.42985621e+04  1.58924583e+03 -3.17995200e-02  5.65595637e-01],1133,1584.5548119962607
646,646,[ 5.42985621e+04  1.58924583e+03 -3.17995200e-02  5.65595637e-01],1318,1589.3145700339578
647,647,[ 5.42985621e+04  1.58924583e+03 -3.17995200e-02  5.65595637e-01],634,1591.1380005500885
648,648,[ 5.42985621e+04  1.58924583e+03 -3.17995200e-02  5.65595637e-01],1211,1589.4040444012376
649,649,[ 5.42985621e+04  1.58924583e+03 -3.17995200e-02  5.65595637e-01],759,1586.762129398958
650,650,[ 5.42985621e+04  1.58924583e+03 -3.17995200e-02  5.65595637e-01],1344,1590.3022831728392
651,651,[ 5.42985621e+04  1.58924583e+03 -3.17995200e-02  5.65595637e-01],920,1589.8651638131698
652,652,[ 5.42985621e+04  1.58924583e+03 -3.17995200e-02  5.65595637e-01],819,1588.4848920765985
653,653,[ 5.42985621e+04  1.58924583e+03 -3.17995200e-02  5.65595637e-01],1258,1589.6613093640472
654,654,[ 5.42985621e+04  1.58924583e+03 -3.17995200e-02  5.65595637e-01],1338,1588.0397794549203
655,655,[ 5.42985621e+04  1.58924583e+03 -3.17995200e-02  5.65595637e-01],560,1588.678899953195
656,656,[ 5.42985621e+04  1.58924583e+03 -3.17995200e-02  5.65595637e-01],1248,1591.307588183662
657,657,[ 5.42985621e+04  1.58924583e+03 -3.17995200e-02  5.65595637e-01],758,1591.5069153916547
658,658,[ 5.42985621e+04  1.58924583e+03 -3.17995200e-02  5.65595637e-01],1168,1584.088402397103
659,659,[ 5.42985621e+04  1.58924583e+03 -3.17995200e-02  5.65595637e-01],1145,1576.2655313040655
660,660,[ 5.42985621e+04  1.58924583e+03 -3.17995200e-02  5.65595637e-01],1094,1585.7905798205588
661,661,[ 5.42985621e+04  1.58924583e+03 -3.17995200e-02  5.65595637e-01],849,1584.9455682749247
662,662,[ 5.42985621e+04  1.58924583e+03 -3.17995200e-02  5.65595637e-01],822,1589.61040634394
663,663,[ 5.42985621e+04  1.58924583e+03 -3.17995200e-02  5.65595637e-01],1181,1590.3481888347324
664,664,[ 5.42985621e+04  1.58924583e+03 -3.17995200e-02  5.65595637e-01],1144,1589.7339800745253
665,665,[ 5.42985621e+04  1.58924583e+03 -3.17995200e-02  5.65595637e-01],1411,1587.6452553958554
666,666,[ 5.42985621e+04  1.58924583e+03 -3.17995200e-02  5.65595637e-01],1063,1589.6615947925723
667,667,[ 5.42985621e+04  1.58924583e+03 -3.17995200e-02  5.65595637e-01],1066,1590.7620991945503
668,668,[ 5.42985621e+04  1.58924583e+03 -3.17995200e-02  5.65595637e-01],788,1590.9594779577694
669,669,[ 5.42985621e+04  1.58924583e+03 -3.17995200e-02  5.65595637e-01],1037,1591.3989414049813
670,670,[ 5.42985621e+04  1.58924583e+03 -3.17995200e-02  5.65595637e-01],1421,1584.6116650468214
671,671,[ 5.42985621e+04  1.58924583e+03 -3.17995200e-02  5.65595637e-01],529,1584.2588784458924
672,672,[ 5.42985621e+04  1.58924583e+03 -3.17995200e-02  5.65595637e-01],1106,1590.2377510738543
673,673,[ 5.42985621e+04  1.58924583e+03 -3.17995200e-02  5.65595637e-01],781,1588.714490711659
674,674,[ 5.42985621e+04  1.58924583e+03 -3.17995200e-02  5.65595637e-01],1353,1588.8718283076478
675,675,[ 5.42985621e+04  1.58924583e+03 -3.17995200e-02  5.65595637e-01],761,1579.3498023811082
676,676,[ 5.42985621e+04  1.58924583e+03 -3.17995200e-02  5.65595637e-01],792,1582.5174091083254
677,677,[ 5.42985621e+04  1.58924583e+03 -3.17995200e-02  5.65595637e-01],1345,1586.8030629852412
678,678,[ 5.42985621e+04  1.58924583e+03 -3.17995200e-02  5.65595637e-01],495,1584.634989942333
679,679,[ 5.42985621e+04  1.58924583e+03 -3.17995200e-02  5.65595637e-01],1413,1587.8368724081843
680,680,[ 5.42985621e+04  1.58924583e+03 -3.17995200e-02  5.65595637e-01],449,1589.0044774709086
681,681,[ 5.42985621e+04  1.58924583e+03 -3.17995200e-02  5.65595637e-01],310,1584.6737835416727
682,682,[ 5.42985621e+04  1.58924583e+03 -3.17995200e-02  5.65595637e-01],874,1585.5138814319632
683,683,[ 5.42985621e+04  1.58924583e+03 -3.17995200e-02  5.65595637e-01],1093,1589.6901538759719
684,684,[ 5.42985621e+04  1.58924583e+03 -3.17995200e-02  5.65595637e-01],1254,1590.6832625417496
685,685,[ 5.42985621e+04  1.58924583e+03 -3.17995200e-02  5.65595637e-01],1379,1584.8316148997062
686,686,[ 5.42985621e+04  1.58924583e+03 -3.17995200e-02  5.65595637e-01],157,1586.068714223499
687,687,[ 5.42985621e+04  1.58924583e+03 -3.17995200e-02  5.65595637e-01],848,1589.606407051806
688,688,[ 5.42985621e+04  1.58924583e+03 -3.17995200e-02  5.65595637e-01],500,1591.662400152148
689,689,[ 5.42985621e+04  1.58924583e+03 -3.17995200e-02  5.65595637e-01],26,1588.0848850619527
690,690,[ 5.42985621e+04  1.58924583e+03 -3.17995200e-02  5.65595637e-01],1406,1590.3099924648827
691,691,[ 5.42985621e+04  1.58924583e+03 -3.17995200e-02  5.65595637e-01],1485,1583.179473312726
692,692,[ 5.42985621e+04  1.58924583e+03 -3.17995200e-02  5.65595637e-01],902,1584.9790790380298
693,693,[ 5.42985621e+04  1.58924583e+03 -3.17995200e-02  5.65595637e-01],1128,1589.9642189192214
694,694,[ 5.42985621e+04  1.58924583e+03 -3.17995200e-02  5.65595637e-01],1179,1590.7014837307372
695,695,[ 5.42985621e+04  1.58924583e+03 -3.17995200e-02  5.65595637e-01],1087,1589.291177798053
696,696,[ 5.42985621e+04  1.58924583e+03 -3.17995200e-02  5.65595637e-01],1126,1589.7094699817826
697,697,[ 5.42985621e+04  1.58924583e+03 -3.17995200e-02  5.65595637e-01],1203,1585.4321864488481
698,698,[ 5.42985621e+04  1.58924583e+03 -3.17995200e-02  5.65595637e-01],1385,1576.8434528487373
699,699,[ 5.42985621e+04  1.58924583e+03 -3.17995200e-02  5.65595637e-01],1206,1583.5732406334928
700,700,[ 5.42985621e+04  1.58924583e+03 -3.17995200e-02  5.65595637e-01],984,1591.0347170562743
701,701,[ 5.42985621e+04  1.58924583e+03 -3.17995200e-02  5.65595637e-01],374,1589.5546814062745
702,702,[ 5.42985621e+04  1.58924583e+03 -3.17995200e-02  5.65595637e-01],268,1582.5208886253045
703,703,[ 5.42985621e+04  1.58924583e+03 -3.17995200e-02  5.65595637e-01],1224,1589.6254220496228
704,704,[ 5.42985621e+04  1.58924583e+03 -3.17995200e-02  5.65595637e-01],266,1588.4029406903767
705,705,[ 5.42985621e+04  1.58924583e+03 -3.17995200e-02  5.65595637e-01],975,1587.628856945681
706,706,[ 5.42985621e+04  1.58924583e+03 -3.17995200e-02  5.65595637e-01],760,1590.2199854324717
707,707,[ 5.42985621e+04  1.58924583e+03 -3.17995200e-02  5.65595637e-01],203,1584.2185070292517
708,708,[ 5.42985621e+04  1.58924583e+03 -3.17995200e-02  5.65595637e-01],738,1591.0733115993128
709,709,[ 5.42985621e+04  1.58924583e+03 -3.17995200e-02  5.65595637e-01],100,1589.8828496131248
710,710,[ 5.42985621e+04  1.58924583e+03 -3.17995200e-02  5.65595637e-01],1217,1586.6998502538527
711,711,[ 5.42985621e+04  1.58924583e+03 -3.17995200e-02  5.65595637e-01],677,1585.91787136321
712,712,[ 5.42985621e+04  1.58924583e+03 -3.17995200e-02  5.65595637e-01],1331,1586.6268451872845
713,713,[ 5.42985621e+04  1.58924583e+03 -3.17995200e-02  5.65595637e-01],860,1590.6384571857602
714,714,[ 5.42985621e+04  1.58924583e+03 -3.17995200e-02  5.65595637e-01],856,1589.9457543408087
715,715,[ 5.42985621e+04  1.58924583e+03 -3.17995200e-02  5.65595637e-01],606,1591.658841203557
716,716,[ 5.42985621e+04  1.58924583e+03 -3.17995200e-02  5.65595637e-01],1455,1589.4408175960584
717,717,[ 5.42985621e+04  1.58924583e+03 -3.17995200e-02  5.65595637e-01],348,1577.419774723506
718,718,[ 5.42985621e+04  1.58924583e+03 -3.17995200e-02  5.65595637e-01],649,1587.4791823154476
719,719,[ 5.42985621e+04  1.58924583e+03 -3.17995200e-02  5.65595637e-01],588,1591.1243846139564
720,720,[ 5.42985621e+04  1.58924583e+03 -3.17995200e-02  5.65595637e-01],1564,1591.2075475325323
721,721,[ 5.42985621e+04  1.58924583e+03 -3.17995200e-02  5.65595637e-01],1443,1590.6800496974838
722,722,[ 5.42985621e+04  1.58924583e+03 -3.17995200e-02  5.65595637e-01],332,1585.3366300518041
723,723,[ 5.42985621e+04  1.58924583e+03 -3.17995200e-02  5.65595637e-01],1172,1583.663818131944
724,724,[ 5.42985621e+04  1.58924583e+03 -3.17995200e-02  5.65595637e-01],1034,1584.3583276907104
725,725,[ 5.42985621e+04  1.58924583e+03 -3.17995200e-02  5.65595637e-01],323,1590.5200398058453
726,726,[ 5.42985621e+04  1.58924583e+03 -3.17995200e-02  5.65595637e-01],589,1587.3826921995071
727,727,[ 5.42985621e+04  1.58924583e+03 -3.17995200e-02  5.65595637e-01],396,1590.6521098124451
728,728,[ 5.42985621e+04  1.58924583e+03 -3.17995200e-02  5.65595637e-01],927,1588.0094247570544
729,729,[ 5.42985621e+04  1.58924583e+03 -3.17995200e-02  5.65595637e-01],828,1588.776679972143
730,730,[ 5.42985621e+04  1.58924583e+03 -3.17995200e-02  5.65595637e-01],710,1587.8242930774868
731,731,[ 5.42985621e+04  1.58924583e+03 -3.17995200e-02  5.65595637e-01],1100,1589.3593810371483
732,732,[ 5.42985621e+04  1.58924583e+03 -3.17995200e-02  5.65595637e-01],1444,1590.440153752522
733,733,[ 5.42985621e+04  1.58924583e+03 -3.17995200e-02  5.65595637e-01],1008,1585.97517220786
734,734,[ 5.42985621e+04  1.58924583e+03 -3.17995200e-02  5.65595637e-01],516,1585.0215530893777
735,735,[ 5.42985621e+04  1.58924583e+03 -3.17995200e-02  5.65595637e-01],1346,1590.5602996217654
736,736,[ 5.42985621e+04  1.58924583e+03 -3.17995200e-02  5.65595637e-01],872,1590.8459442804644
737,737,[ 5.42985621e+04  1.58924583e+03 -3.17995200e-02  5.65595637e-01],1434,1590.1528028745313
738,738,[ 5.42985621e+04  1.58924583e+03 -3.17995200e-02  5.65595637e-01],283,1586.8124345154652
739,739,[ 5.42985621e+04  1.58924583e+03 -3.17995200e-02  5.65595637e-01],939,1580.280250306469
740,740,[ 5.42985621e+04  1.58924583e+03 -3.17995200e-02  5.65595637e-01],1234,1579.825595218984
741,741,[ 5.42985621e+04  1.58924583e+03 -3.17995200e-02  5.65595637e-01],712,1581.1950187413254
742,742,[ 5.42985621e+04  1.58924583e+03 -3.17995200e-02  5.65595637e-01],1422,1589.3362632347726
743,743,[ 5.42985621e+04  1.58924583e+03 -3.17995200e-02  5.65595637e-01],282,1590.6928639171658
744,744,[ 5.42985621e+04  1.58924583e+03 -3.17995200e-02  5.65595637e-01],1266,1591.2675905561866
745,745,[ 5.42985621e+04  1.58924583e+03 -3.17995200e-02  5.65595637e-01],605,1589.6490823874408
746,746,[ 5.42985621e+04  1.58924583e+03 -3.17995200e-02  5.65595637e-01],1354,1590.8202179823902
747,747,[ 5.42985621e+04  1.58924583e+03 -3.17995200e-02  5.65595637e-01],1218,1589.2358535638718
748,748,[ 5.42985621e+04  1.58924583e+03 -3.17995200e-02  5.65595637e-01],1360,1589.8946844702152
749,749,[ 5.42985621e+04  1.58924583e+03 -3.17995200e-02  5.65595637e-01],594,1592.056457628631
750,750,[ 5.42985621e+04  1.58924583e+03 -3.17995200e-02  5.65595637e-01],1152,1585.200296562166
751,751,[ 5.42985621e+04  1.58924583e+03 -3.17995200e-02  5.65595637e-01],1268,1580.6611019987506
752,752,[ 5.42985621e+04  1.58924583e+03 -3.17995200e-02  5.65595637e-01],474,1586.053426101409
753,753,[ 5.42985621e+04  1.58924583e+03 -3.17995200e-02  5.65595637e-01],987,1591.051086051736
754,754,[ 5.42985621e+04  1.58924583e+03 -3.17995200e-02  5.65595637e-01],1238,1586.1547227804438
755,755,[ 5.42985621e+04  1.58924583e+03 -3.17995200e-02  5.65595637e-01],384,1587.4042462750524
756,756,[ 5.42985621e+04  1.58924583e+03 -3.17995200e-02  5.65595637e-01],477,1589.3197275480807
757,757,[ 5.42985621e+04  1.58924583e+03 -3.17995200e-02  5.65595637e-01],1378,1588.5534332891846
758,758,[ 5.42985621e+04  1.58924583e+03 -3.17995200e-02  5.65595637e-01],1465,1587.1334746967232
759,759,[ 5.42985621e+04  1.58924583e+03 -3.17995200e-02  5.65595637e-01],934,1587.205572031131
760,760,[ 5.42985621e+04  1.58924583e+03 -3.17995200e-02  5.65595637e-01],1032,1586.8191997650704
761,761,[ 5.42985621e+04  1.58924583e+03 -3.17995200e-02  5.65595637e-01],1466,1586.9923986810697
762,762,[ 5.42985621e+04  1.58924583e+03 -3.17995200e-02  5.65595637e-01],1380,1590.12565963318
763,763,[ 5.42985621e+04  1.58924583e+03 -3.17995200e-02  5.65595637e-01],1288,1580.8769967762576
764,764,[ 5.42985621e+04  1.58924583e+03 -3.17995200e-02  5.65595637e-01],1326,1589.4241627482236
765,765,[ 5.42985621e+04  1.58924583e+03 -3.17995200e-02  5.65595637e-01],1408,1588.2307165256823
766,766,[ 5.42985621e+04  1.58924583e+03 -3.17995200e-02  5.65595637e-01],923,1589.6963876747732
767,767,[ 5.42985621e+04  1.58924583e+03 -3.17995200e-02  5.65595637e-01],1290,1589.0073746469448
768,768,[ 5.42985621e+04  1.58924583e+03 -3.17995200e-02  5.65595637e-01],1113,1588.6881931307853
769,769,[ 5.42985621e+04  1.58924583e+03 -3.17995200e-02  5.65595637e-01],1490,1582.383306326847
770,770,[ 5.42985621e+04  1.58924583e+03 -3.17995200e-02  5.65595637e-01],843,1588.9766253579164
771,771,[ 5.42985621e+04  1.58924583e+03 -3.17995200e-02  5.65595637e-01],1508,1589.1977812291975
772,772,[ 5.42985621e+04  1.58924583e+03 -3.17995200e-02  5.65595637e-01],1031,1587.273885823231
773,773,[ 5.42985621e+04  1.58924583e+03 -3.17995200e-02  5.65595637e-01],309,1588.807139939062
774,774,[ 5.42985621e+04  1.58924583e+03 -3.17995200e-02  5.65595637e-01],272,1589.7060992669228
775,775,[ 5.42985621e+04  1.58924583e+03 -3.17995200e-02  5.65595637e-01],141,1589.8239129826334
776,776,[ 5.42985621e+04  1.58924583e+03 -3.17995200e-02  5.65595637e-01],629,1588.3240570962969
777,777,[ 5.42985621e+04  1.58924583e+03 -3.17995200e-02  5.65595637e-01],1006,1585.8597026348632
778,778,[ 5.42985621e+04  1.58924583e+03 -3.17995200e-02  5.65595637e-01],1417,1583.6104730252919
779,779,[ 5.42985621e+04  1.58924583e+03 -3.17995200e-02  5.65595637e-01],1287,1589.5080788326684
780,780,[ 5.42985621e+04  1.58924583e+03 -3.17995200e-02  5.65595637e-01],1176,1588.4858210249183
781,781,[ 5.42985621e+04  1.58924583e+03 -3.17995200e-02  5.65595637e-01],1143,1587.0022737857694
782,782,[ 5.42985621e+04  1.58924583e+03 -3.17995200e-02  5.65595637e-01],1394,1587.5049005601911
783,783,[ 5.42985621e+04  1.58924583e+03 -3.17995200e-02  5.65595637e-01],938,1588.901612440205
784,784,[ 5.42985621e+04  1.58924583e+03 -3.17995200e-02  5.65595637e-01],903,1589.4934579090218
785,785,[ 5.42985621e+04  1.58924583e+03 -3.17995200e-02  5.65595637e-01],603,1584.9715467430694
786,786,[ 5.42985621e+04  1.58924583e+03 -3.17995200e-02  5.65595637e-01],1014,1589.451344397871
787,787,[ 5.42985621e+04  1.58924583e+03 -3.17995200e-02  5.65595637e-01],398,1587.317686339927
788,788,[ 5.42985621e+04  1.58924583e+03 -3.17995200e-02  5.65595637e-01],1151,1587.027013350064
789,789,[ 5.42985621e+04  1.58924583e+03 -3.17995200e-02  5.65595637e-01],1390,1588.234056180879
790,790,[ 5.42985621e+04  1.58924583e+03 -3.17995200e-02  5.65595637e-01],130,1588.4648067035387
791,791,[ 5.42985621e+04  1.58924583e+03 -3.17995200e-02  5.65595637e-01],224,1587.2445360349104
792,792,[ 5.42985621e+04  1.58924583e+03 -3.17995200e-02  5.65595637e-01],1054,1586.9907689599527
793,793,[ 5.42985621e+04  1.58924583e+03 -3.17995200e-02  5.65595637e-01],1507,1589.7647167179728
794,794,[ 5.42985621e+04  1.58924583e+03 -3.17995200e-02  5.65595637e-01],1150,1588.703909115178
795,795,[ 5.42985621e+04  1.58924583e+03 -3.17995200e-02  5.65595637e-01],216,1588.771432662428
796,796,[ 5.42985621e+04  1.58924583e+03 -3.17995200e-02  5.65595637e-01],1584,1586.2282775892618
797,797,[ 5.42985621e+04  1.58924583e+03 -3.17995200e-02  5.65595637e-01],1259,1589.1134009131638
798,798,[ 5.42985621e+04  1.58924583e+03 -3.17995200e-02  5.65595637e-01],1207,1589.3082879808908
799,799,[ 5.42985621e+04  1.58924583e+03 -3.17995200e-02  5.65595637e-01],1412,1590.4679015102345
800,800,[ 5.42985621e+04  1.58924583e+03 -3.17995200e-02  5.65595637e-01],458,1584.957206397099
801,801,[ 5.42985621e+04  1.58924583e+03 -3.17995200e-02  5.65595637e-01],929,1585.2120453348782
802,802,[ 5.42985621e+04  1.58924583e+03 -3.17995200e-02  5.65595637e-01],1015,1588.4110758437757
803,803,[ 5.42985621e+04  1.58924583e+03 -3.17995200e-02  5.65595637e-01],521,1582.0492198129348
804,804,[ 5.42985621e+04  1.58924583e+03 -3.17995200e-02  5.65595637e-01],796,1573.889473297859
805,805,[ 5.42985621e+04  1.58924583e+03 -3.17995200e-02  5.65595637e-01],1237,1585.5509522613618
806,806,[ 5.42985621e+04  1.58924583e+03 -3.17995200e-02  5.65595637e-01],223,1590.860469991303
807,807,[ 5.42985621e+04  1.58924583e+03 -3.17995200e-02  5.65595637e-01],1155,1588.950787358422
808,808,[ 5.42985621e+04  1.58924583e+03 -3.17995200e-02  5.65595637e-01],1180,1588.9242941248028
809,809,[ 5.42985621e+04  1.58924583e+03 -3.17995200e-02  5.65595637e-01],899,1583.7887823102474
810,810,[ 5.42985621e+04  1.58924583e+03 -3.17995200e-02  5.65595637e-01],234,1580.0486434185523
811,811,[ 5.42985621e+04  1.58924583e+03 -3.17995200e-02  5.65595637e-01],754,1583.6727053877348
812,812,[ 5.42985621e+04  1.58924583e+03 -3.17995200e-02  5.65595637e-01],1449,1587.3896662405878
813,813,[ 5.42985621e+04  1.58924583e+03 -3.17995200e-02  5.65595637e-01],435,1591.179817134752
814,814,[ 5.42985621e+04  1.58924583e+03 -3.17995200e-02  5.65595637e-01],1571,1590.8901062745333
815,815,[ 5.42985621e+04  1.58924583e+03 -3.17995200e-02  5.65595637e-01],592,1586.0178602621722
816,816,[ 5.42985621e+04  1.58924583e+03 -3.17995200e-02  5.65595637e-01],427,1579.912259767741
817,817,[ 5.42985621e+04  1.58924583e+03 -3.17995200e-02  5.65595637e-01],908,1585.0837322638897
818,818,[ 5.42985621e+04  1.58924583e+03 -3.17995200e-02  5.65595637e-01],1212,1584.0413403944228
819,819,[ 5.42985621e+04  1.58924583e+03 -3.17995200e-02  5.65595637e-01],1199,1587.1788299440864
820,820,[ 5.42985621e+04  1.58924583e+03 -3.17995200e-02  5.65595637e-01],546,1587.6380662981367
821,821,[ 5.42985621e+04  1.58924583e+03 -3.17995200e-02  5.65595637e-01],385,1587.8967156890526
822,822,[ 5.42985621e+04  1.58924583e+03 -3.17995200e-02  5.65595637e-01],20,1587.0972429765768
823,823,[ 5.42985621e+04  1.58924583e+03 -3.17995200e-02  5.65595637e-01],1274,1587.9964657700873
824,824,[ 5.42985621e+04  1.58924583e+03 -3.17995200e-02  5.65595637e-01],235,1590.6634637863192
825,825,[ 5.42985621e+04  1.58924583e+03 -3.17995200e-02  5.65595637e-01],686,1587.9291780424378
826,826,[ 5.42985621e+04  1.58924583e+03 -3.17995200e-02  5.65595637e-01],1292,1588.4116888874264
827,827,[ 5.42985621e+04  1.58924583e+03 -3.17995200e-02  5.65595637e-01],752,1590.8067661737862
828,828,[ 5.42985621e+04  1.58924583e+03 -3.17995200e-02  5.65595637e-01],1427,1586.7099456236065
829,829,[ 5.42985621e+04  1.58924583e+03 -3.17995200e-02  5.65595637e-01],1041,1590.4263167285694
830,830,[ 5.42985621e+04  1.58924583e+03 -3.17995200e-02  5.65595637e-01],1471,1588.0153568277995
831,831,[ 5.42985621e+04  1.58924583e+03 -3.17995200e-02  5.65595637e-01],919,1587.6307249854935
832,832,[ 5.42985621e+04  1.58924583e+03 -3.17995200e-02  5.65595637e-01],1487,1589.1940618992185
833,833,[ 5.42985621e+04  1.58924583e+03 -3.17995200e-02  5.65595637e-01],815,1584.8204665395458
834,834,[ 5.42985621e+04  1.58924583e+03 -3.17995200e-02  5.65595637e-01],226,1590.7277089073552
835,835,[ 5.42985621e+04  1.58924583e+03 -3.17995200e-02  5.65595637e-01],1301,1591.090112759895
836,836,[ 5.42985621e+04  1.58924583e+03 -3.17995200e-02  5.65595637e-01],593,1589.7462190907254
837,837,[ 5.42985621e+04  1.58924583e+03 -3.17995200e-02  5.65595637e-01],733,1588.5754855762198
838,838,[ 5.42985621e+04  1.58924583e+03 -3.17995200e-02  5.65595637e-01],941,1590.3433906387054
839,839,[ 5.42985621e+04  1.58924583e+03 -3.17995200e-02  5.65595637e-01],1222,1587.650162345461
840,840,[ 5.42985621e+04  1.58924583e+03 -3.17995200e-02  5.65595637e-01],1271,1591.55112010048
841,841,[ 5.42985621e+04  1.58924583e+03 -3.17995200e-02  5.65595637e-01],245,1589.658634973906
842,842,[ 5.42985621e+04  1.58924583e+03 -3.17995200e-02  5.65595637e-01],1510,1587.4799541110722
843,843,[ 5.42985621e+04  1.58924583e+03 -3.17995200e-02  5.65595637e-01],534,1586.4230359631638
844,844,[ 5.42985621e+04  1.58924583e+03 -3.17995200e-02  5.65595637e-01],380,1589.7109596319006
845,845,[ 5.42985621e+04  1.58924583e+03 -3.17995200e-02  5.65595637e-01],711,1588.5415628197895
846,846,[ 5.42985621e+04  1.58924583e+03 -3.17995200e-02  5.65595637e-01],325,1590.0779766920928
847,847,[ 5.42985621e+04  1.58924583e+03 -3.17995200e-02  5.65595637e-01],633,1590.783689321412
848,848,[ 5.42985621e+04  1.58924583e+03 -3.17995200e-02  5.65595637e-01],1186,1586.9395858371875
849,849,[ 5.42985621e+04  1.58924583e+03 -3.17995200e-02  5.65595637e-01],452,1587.1029110944285
850,850,[ 5.42985621e+04  1.58924583e+03 -3.17995200e-02  5.65595637e-01],777,1589.051655761206
851,851,[ 5.42985621e+04  1.58924583e+03 -3.17995200e-02  5.65595637e-01],553,1587.9682109885464
852,852,[ 5.42985621e+04  1.58924583e+03 -3.17995200e-02  5.65595637e-01],321,1589.6492287912995
853,853,[ 5.42985621e+04  1.58924583e+03 -3.17995200e-02  5.65595637e-01],907,1588.642808074542
854,854,[ 5.42985621e+04  1.58924583e+03 -3.17995200e-02  5.65595637e-01],1226,1587.9416267940264
855,855,[ 5.42985621e+04  1.58924583e+03 -3.17995200e-02  5.65595637e-01],27,1589.465916796529
856,856,[ 5.42985621e+04  1.58924583e+03 -3.17995200e-02  5.65595637e-01],1026,1586.7922171722007
857,857,[ 5.42985621e+04  1.58924583e+03 -3.17995200e-02  5.65595637e-01],1060,1584.6525943540646
858,858,[ 5.42985621e+04  1.58924583e+03 -3.17995200e-02  5.65595637e-01],660,1584.9778197427238
859,859,[ 5.42985621e+04  1.58924583e+03 -3.17995200e-02  5.65595637e-01],470,1588.4395344144532
860,860,[ 5.42985621e+04  1.58924583e+03 -3.17995200e-02  5.65595637e-01],1096,1586.79788584191
861,861,[ 5.42985621e+04  1.58924583e+03 -3.17995200e-02  5.65595637e-01],148,1588.0315879803313
862,862,[ 5.42985621e+04  1.58924583e+03 -3.17995200e-02  5.65595637e-01],917,1589.0274290419702
863,863,[ 5.42985621e+04  1.58924583e+03 -3.17995200e-02  5.65595637e-01],18,1589.007529338368
864,864,[ 5.42985621e+04  1.58924583e+03 -3.17995200e-02  5.65595637e-01],498,1583.7467695997573
865,865,[ 5.42985621e+04  1.58924583e+03 -3.17995200e-02  5.65595637e-01],1433,1587.9422371778667
866,866,[ 5.42985621e+04  1.58924583e+03 -3.17995200e-02  5.65595637e-01],905,1587.3454606268758
867,867,[ 5.42985621e+04  1.58924583e+03 -3.17995200e-02  5.65595637e-01],1439,1584.3035864704332
868,868,[ 5.42985621e+04  1.58924583e+03 -3.17995200e-02  5.65595637e-01],1197,1587.9482136503564
869,869,[ 5.42985621e+04  1.58924583e+03 -3.17995200e-02  5.65595637e-01],360,1590.7088464718365
870,870,[ 5.42985621e+04  1.58924583e+03 -3.17995200e-02  5.65595637e-01],1255,1591.2905989278859
871,871,[ 5.42985621e+04  1.58924583e+03 -3.17995200e-02  5.65595637e-01],247,1588.5509608859581
872,872,[ 5.42985621e+04  1.58924583e+03 -3.17995200e-02  5.65595637e-01],1498,1586.6692787806671
873,873,[ 5.42985621e+04  1.58924583e+03 -3.17995200e-02  5.65595637e-01],1261,1590.8137387264146
874,874,[ 5.42985621e+04  1.58924583e+03 -3.17995200e-02  5.65595637e-01],1522,1586.9523516242032
875,875,[ 5.42985621e+04  1.58924583e+03 -3.17995200e-02  5.65595637e-01],1528,1590.287546608087
876,876,[ 5.42985621e+04  1.58924583e+03 -3.17995200e-02  5.65595637e-01],220,1589.7841967100514
877,877,[ 5.42985621e+04  1.58924583e+03 -3.17995200e-02  5.65595637e-01],1263,1588.0907940742848
878,878,[ 5.42985621e+04  1.58924583e+03 -3.17995200e-02  5.65595637e-01],639,1587.222811477787
879,879,[ 5.42985621e+04  1.58924583e+03 -3.17995200e-02  5.65595637e-01],279,1588.681284703044
880,880,[ 5.42985621e+04  1.58924583e+03 -3.17995200e-02  5.65595637e-01],642,1587.5362893860754
881,881,[ 5.42985621e+04  1.58924583e+03 -3.17995200e-02  5.65595637e-01],62,1590.8661431922637
882,882,[ 5.42985621e+04  1.58924583e+03 -3.17995200e-02  5.65595637e-01],1459,1589.645566957264
883,883,[ 5.42985621e+04  1.58924583e+03 -3.17995200e-02  5.65595637e-01],1249,1588.9675646202668
884,884,[ 5.42985621e+04  1.58924583e+03 -3.17995200e-02  5.65595637e-01],126,1587.3921632405877
885,885,[ 5.42985621e+04  1.58924583e+03 -3.17995200e-02  5.65595637e-01],1462,1590.2488739777693
886,886,[ 5.42985621e+04  1.58924583e+03 -3.17995200e-02  5.65595637e-01],1484,1587.735293436605
887,887,[ 5.42985621e+04  1.58924583e+03 -3.17995200e-02  5.65595637e-01],40,1589.1218849631202
888,888,[ 5.42985621e+04  1.58924583e+03 -3.17995200e-02  5.65595637e-01],805,1589.807587072598
889,889,[ 5.42985621e+04  1.58924583e+03 -3.17995200e-02  5.65595637e-01],1,1591.9406542224908
890,890,[ 5.42985621e+04  1.58924583e+03 -3.17995200e-02  5.65595637e-01],469,1588.9117986274964
891,891,[ 5.42985621e+04  1.58924583e+03 -3.17995200e-02  5.65595637e-01],389,1589.3707563147998
892,892,[ 5.42985621e+04  1.58924583e+03 -3.17995200e-02  5.65595637e-01],317,1587.8806218238997
893,893,[ 5.42985621e+04  1.58924583e+03 -3.17995200e-02  5.65595637e-01],682,1587.4178927123164
894,894,[ 5.42985621e+04  1.58924583e+03 -3.17995200e-02  5.65595637e-01],355,1590.2173266626553
895,895,[ 5.42985621e+04  1.58924583e+03 -3.17995200e-02  5.65595637e-01],254,1590.6581110025209
896,896,[ 5.42985621e+04  1.58924583e+03 -3.17995200e-02  5.65595637e-01],1252,1590.4660295135366
897,897,[ 5.42985621e+04  1.58924583e+03 -3.17995200e-02  5.65595637e-01],74,1591.6337110622485
898,898,[ 5.42985621e+04  1.58924583e+03 -3.17995200e-02  5.65595637e-01],638,1590.544872322013
899,899,[ 5.42985621e+04  1.58924583e+03 -3.17995200e-02  5.65595637e-01],1470,1586.169565991002
900,900,[ 5.42985621e+04  1.58924583e+03 -3.17995200e-02  5.65595637e-01],1239,1589.464377733874
901,901,[ 5.42985621e+04  1.58924583e+03 -3.17995200e-02  5.65595637e-01],1348,1588.0690578181668
902,902,[ 5.42985621e+04  1.58924583e+03 -3.17995200e-02  5.65595637e-01],1225,1586.9051305531007
903,903,[ 5.42985621e+04  1.58924583e+03 -3.17995200e-02  5.65595637e-01],1329,1586.3713200774584
904,904,[ 5.42985621e+04  1.58924583e+03 -3.17995200e-02  5.65595637e-01],1547,1584.1319614618121
905,905,[ 5.42985621e+04  1.58924583e+03 -3.17995200e-02  5.65595637e-01],1269,1585.7262181176554
906,906,[ 5.42985621e+04  1.58924583e+03 -3.17995200e-02  5.65595637e-01],1170,1579.5055562983814
907,907,[ 5.42985621e+04  1.58924583e+03 -3.17995200e-02  5.65595637e-01],1245,1585.833359232252
908,908,[ 5.42985621e+04  1.58924583e+03 -3.17995200e-02  5.65595637e-01],697,1586.1226535700341
909,909,[ 5.42985621e+04  1.58924583e+03 -3.17995200e-02  5.65595637e-01],1460,1588.887146980728
910,910,[ 5.42985621e+04  1.58924583e+03 -3.17995200e-02  5.65595637e-01],1407,1589.0420616501303
911,911,[ 5.42985621e+04  1.58924583e+03 -3.17995200e-02  5.65595637e-01],596,1590.8560355134518
912,912,[ 5.42985621e+04  1.58924583e+03 -3.17995200e-02  5.65595637e-01],1441,1590.5591649025316
913,913,[ 5.42985621e+04  1.58924583e+03 -3.17995200e-02  5.65595637e-01],1363,1590.1513125544282
914,914,[ 5.42985621e+04  1.58924583e+03 -3.17995200e-02  5.65595637e-01],228,1588.7500253754679
915,915,[ 5.42985621e+04  1.58924583e+03 -3.17995200e-02  5.65595637e-01],1141,1590.3996887999297
916,916,[ 5.42985621e+04  1.58924583e+03 -3.17995200e-02  5.65595637e-01],1250,1589.2862271968177
917,917,[ 5.42985621e+04  1.58924583e+03 -3.17995200e-02  5.65595637e-01],925,1585.7713259261611
918,918,[ 5.42985621e+04  1.58924583e+03 -3.17995200e-02  5.65595637e-01],1339,1588.199249111139
919,919,[ 5.42985621e+04  1.58924583e+03 -3.17995200e-02  5.65595637e-01],950,1586.0249983400367
920,920,[ 5.42985621e+04  1.58924583e+03 -3.17995200e-02  5.65595637e-01],1492,1587.192619475702
921,921,[ 5.42985621e+04  1.58924583e+03 -3.17995200e-02  5.65595637e-01],722,1588.1216433770248
922,922,[ 5.42985621e+04  1.58924583e+03 -3.17995200e-02  5.65595637e-01],968,1589.8121569197795
923,923,[ 5.42985621e+04  1.58924583e+03 -3.17995200e-02  5.65595637e-01],1481,1586.4679085320847
924,924,[ 5.42985621e+04  1.58924583e+03 -3.17995200e-02  5.65595637e-01],352,1590.3502911347596
925,925,[ 5.42985621e+04  1.58924583e+03 -3.17995200e-02  5.65595637e-01],515,1585.3537595558153
926,926,[ 5.42985621e+04  1.58924583e+03 -3.17995200e-02  5.65595637e-01],1356,1587.4656192568405
927,927,[ 5.42985621e+04  1.58924583e+03 -3.17995200e-02  5.65595637e-01],499,1586.7211543852188
928,928,[ 5.42985621e+04  1.58924583e+03 -3.17995200e-02  5.65595637e-01],457,1589.4505500194518
929,929,[ 5.42985621e+04  1.58924583e+03 -3.17995200e-02  5.65595637e-01],1438,1586.2372121436968
930,930,[ 5.42985621e+04  1.58924583e+03 -3.17995200e-02  5.65595637e-01],1445,1580.5290816852248
931,931,[ 5.42985621e+04  1.58924583e+03 -3.17995200e-02  5.65595637e-01],1582,1582.4915348672384
932,932,[ 5.42985621e+04  1.58924583e+03 -3.17995200e-02  5.65595637e-01],150,1585.0132748367046
933,933,[ 5.42985621e+04  1.58924583e+03 -3.17995200e-02  5.65595637e-01],301,1587.4006448152393
934,934,[ 5.42985621e+04  1.58924583e+03 -3.17995200e-02  5.65595637e-01],1351,1586.5170342130436
935,935,[ 5.42985621e+04  1.58924583e+03 -3.17995200e-02  5.65595637e-01],1349,1582.3193054518772
936,936,[ 5.42985621e+04  1.58924583e+03 -3.17995200e-02  5.65595637e-01],1138,1573.647977608154
937,937,[ 5.42985621e+04  1.58924583e+03 -3.17995200e-02  5.65595637e-01],1110,1578.6692730095815
938,938,[ 5.42985621e+04  1.58924583e+03 -3.17995200e-02  5.65595637e-01],1469,1586.3752743607104
939,939,[ 5.42985621e+04  1.58924583e+03 -3.17995200e-02  5.65595637e-01],801,1586.6420230248432
940,940,[ 5.42985621e+04  1.58924583e+03 -3.17995200e-02  5.65595637e-01],1192,1587.8617450975887
941,941,[ 5.42985621e+04  1.58924583e+03 -3.17995200e-02  5.65595637e-01],1416,1585.9531751252587
942,942,[ 5.42985621e+04  1.58924583e+03 -3.17995200e-02  5.65595637e-01],1457,1569.1062799827548
943,943,[ 5.42985621e+04  1.58924583e+03 -3.17995200e-02  5.65595637e-01],750,1579.0404920701853
944,944,[ 5.42985621e+04  1.58924583e+03 -3.17995200e-02  5.65595637e-01],1602,1585.1620532564693
945,945,[ 5.42985621e+04  1.58924583e+03 -3.17995200e-02  5.65595637e-01],493,1590.2901636586685
946,946,[ 5.42985621e+04  1.58924583e+03 -3.17995200e-02  5.65595637e-01],1153,1588.3068986503486
947,947,[ 5.42985621e+04  1.58924583e+03 -3.17995200e-02  5.65595637e-01],460,1588.8378271209692
948,948,[ 5.42985621e+04  1.58924583e+03 -3.17995200e-02  5.65595637e-01],399,1584.7436629485
949,949,[ 5.42985621e+04  1.58924583e+03 -3.17995200e-02  5.65595637e-01],1294,1583.6553667291603
950,950,[ 5.42985621e+04  1.58924583e+03 -3.17995200e-02  5.65595637e-01],944,1585.3389780068278
951,951,[ 5.42985621e+04  1.58924583e+03 -3.17995200e-02  5.65595637e-01],23,1589.0048976694368
952,952,[ 5.42985621e+04  1.58924583e+03 -3.17995200e-02  5.65595637e-01],1388,1590.0399748184402
953,953,[ 5.42985621e+04  1.58924583e+03 -3.17995200e-02  5.65595637e-01],991,1583.3461703204887
954,954,[ 5.42985621e+04  1.58924583e+03 -3.17995200e-02  5.65595637e-01],566,1573.7341916167145
955,955,[ 5.42985621e+04  1.58924583e+03 -3.17995200e-02  5.65595637e-01],985,1575.1455620975346
956,956,[ 5.42985621e+04  1.58924583e+03 -3.17995200e-02  5.65595637e-01],1426,1575.7335298406772
957,957,[ 5.42985621e+04  1.58924583e+03 -3.17995200e-02  5.65595637e-01],1088,1582.5071336889337
958,958,[ 5.42985621e+04  1.58924583e+03 -3.17995200e-02  5.65595637e-01],1215,1582.9928236228627
959,959,[ 5.42985621e+04  1.58924583e+03 -3.17995200e-02  5.65595637e-01],1160,1583.2306487649414
960,960,[ 5.42985621e+04  1.58924583e+03 -3.17995200e-02  5.65595637e-01],1570,1567.6802955836845
961,961,[ 5.42985621e+04  1.58924583e+03 -3.17995200e-02  5.65595637e-01],1488,1580.7693259953141
962,962,[ 5.42985621e+04  1.58924583e+03 -3.17995200e-02  5.65595637e-01],342,1581.7800000126904
963,963,[ 5.42985621e+04  1.58924583e+03 -3.17995200e-02  5.65595637e-01],274,1572.6878888731228
964,964,[ 5.42985621e+04  1.58924583e+03 -3.17995200e-02  5.65595637e-01],817,1554.8437550903025
965,965,[ 5.42985621e+04  1.58924583e+03 -3.17995200e-02  5.65595637e-01],1341,1572.7718985183317
966,966,[ 5.42985621e+04  1.58924583e+03 -3.17995200e-02  5.65595637e-01],1276,1583.5178565114784
967,967,[ 5.42985621e+04  1.58924583e+03 -3.17995200e-02  5.65595637e-01],1450,1584.8183094499354
968,968,[ 5.42985621e+04  1.58924583e+03 -3.17995200e-02  5.65595637e-01],1291,1585.3293806244365
969,969,[ 5.42985621e+04  1.58924583e+03 -3.17995200e-02  5.65595637e-01],69,1583.8046862758702
970,970,[ 5.42985621e+04  1.58924583e+03 -3.17995200e-02  5.65595637e-01],1430,1563.6214072376056
971,971,[ 5.42985621e+04  1.58924583e+03 -3.17995200e-02  5.65595637e-01],734,1572.7504059493917
972,972,[ 5.42985621e+04  1.58924583e+03 -3.17995200e-02  5.65595637e-01],1188,1579.2657814056383
973,973,[ 5.42985621e+04  1.58924583e+03 -3.17995200e-02  5.65595637e-01],932,1584.8559221150438
974,974,[ 5.42985621e+04  1.58924583e+03 -3.17995200e-02  5.65595637e-01],428,1587.5008765636157
975,975,[ 5.42985621e+04  1.58924583e+03 -3.17995200e-02  5.65595637e-01],1476,1586.8351115127193
976,976,[ 5.42985621e+04  1.58924583e+03 -3.17995200e-02  5.65595637e-01],1214,1573.81128092511
977,977,[ 5.42985621e+04  1.58924583e+03 -3.17995200e-02  5.65595637e-01],1048,1580.7573445195749
978,978,[ 5.42985621e+04  1.58924583e+03 -3.17995200e-02  5.65595637e-01],63,1575.6640810713623
979,979,[ 5.42985621e+04  1.58924583e+03 -3.17995200e-02  5.65595637e-01],1429,1587.5959237152847
980,980,[ 5.42985621e+04  1.58924583e+03 -3.17995200e-02  5.65595637e-01],692,1587.7758493940667
981,981,[ 5.42985621e+04  1.58924583e+03 -3.17995200e-02  5.65595637e-01],858,1588.5731522213316
982,982,[ 5.42985621e+04  1.58924583e+03 -3.17995200e-02  5.65595637e-01],785,1575.2452704899924
983,983,[ 5.42985621e+04  1.58924583e+03 -3.17995200e-02  5.65595637e-01],1327,1580.3227994886374
984,984,[ 5.42985621e+04  1.58924583e+03 -3.17995200e-02  5.65595637e-01],1208,1586.8610583747952
985,985,[ 5.42985621e+04  1.58924583e+03 -3.17995200e-02  5.65595637e-01],800,1585.119509435214
986,986,[ 5.42985621e+04  1.58924583e+03 -3.17995200e-02  5.65595637e-01],661,1589.2833077550738
987,987,[ 5.42985621e+04  1.58924583e+03 -3.17995200e-02  5.65595637e-01],1065,1586.5389109133946
988,988,[ 5.42985621e+04  1.58924583e+03 -3.17995200e-02  5.65595637e-01],1518,1581.4707626135248
989,989,[ 5.42985621e+04  1.58924583e+03 -3.17995200e-02  5.65595637e-01],626,1573.5077696152366
990,990,[ 5.42985621e+04  1.58924583e+03 -3.17995200e-02  5.65595637e-01],1603,1578.7638450694649
991,991,[ 5.42985621e+04  1.58924583e+03 -3.17995200e-02  5.65595637e-01],1262,1585.1373282015497
992,992,[ 5.42985621e+04  1.58924583e+03 -3.17995200e-02  5.65595637e-01],1495,1580.423588298995
993,993,[ 5.42985621e+04  1.58924583e+03 -3.17995200e-02  5.65595637e-01],1468,1575.921641734681
994,994,[ 5.42985621e+04  1.58924583e+03 -3.17995200e-02  5.65595637e-01],973,1582.7409773058532
995,995,[ 5.42985621e+04  1.58924583e+03 -3.17995200e-02  5.65595637e-01],292,1588.0416851559119
996,996,[ 5.42985621e+04  1.58924583e+03 -3.17995200e-02  5.65595637e-01],336,1589.9055963664225
997,997,[ 5.42985621e+04  1.58924583e+03 -3.17995200e-02  5.65595637e-01],1352,1588.564457174344
998,998,[ 5.42985621e+04  1.58924583e+03 -3.17995200e-02  5.65595637e-01],685,1587.4444424947437
999,999,[ 5.42985621e+04  1.58924583e+03 -3.17995200e-02  5.65595637e-01],1240,1589.8162212729478
1000,1000,[ 5.42985621e+04  1.58924583e+03 -3.17995200e-02  5.65595637e-01],833,1584.473024456723
1001,1001,[ 5.42985621e+04  1.58924583e+03 -3.17995200e-02  5.65595637e-01],1049,1587.577000912125
1002,1002,[ 5.42985621e+04  1.58924583e+03 -3.17995200e-02  5.65595637e-01],967,1590.0700214565422
1003,1003,[ 5.42985621e+04  1.58924583e+03 -3.17995200e-02  5.65595637e-01],621,1591.2931938557801
1004,1004,[ 5.42985621e+04  1.58924583e+03 -3.17995200e-02  5.65595637e-01],1219,1587.2617289527534
1005,1005,[ 5.42985621e+04  1.58924583e+03 -3.17995200e-02  5.65595637e-01],1436,1582.1173132166232
1006,1006,[ 5.42985621e+04  1.58924583e+03 -3.17995200e-02  5.65595637e-01],1137,1586.3928138153713
1007,1007,[ 5.42985621e+04  1.58924583e+03 -3.17995200e-02  5.65595637e-01],1549,1590.8651173393193
1008,1008,[ 5.42985621e+04  1.58924583e+03 -3.17995200e-02  5.65595637e-01],165,1586.6835935219312
1009,1009,[ 5.42985621e+04  1.58924583e+03 -3.17995200e-02  5.65595637e-01],1302,1587.2784606151597
1010,1010,[ 5.42985621e+04  1.58924583e+03 -3.17995200e-02  5.65595637e-01],948,1588.542185643238
1011,1011,[ 5.42985621e+04  1.58924583e+03 -3.17995200e-02  5.65595637e-01],1092,1588.9844604293032
1012,1012,[ 5.42985621e+04  1.58924583e+03 -3.17995200e-02  5.65595637e-01],52,1587.2390909885762
1013,1013,[ 5.42985621e+04  1.58924583e+03 -3.17995200e-02  5.65595637e-01],1569,1584.4776942497538
1014,1014,[ 5.42985621e+04  1.58924583e+03 -3.17995200e-02  5.65595637e-01],252,1586.3568516391963
1015,1015,[ 5.42985621e+04  1.58924583e+03 -3.17995200e-02  5.65595637e-01],1512,1586.2355375136933
1016,1016,[ 5.42985621e+04  1.58924583e+03 -3.17995200e-02  5.65595637e-01],127,1582.711977249378
1017,1017,[ 5.42985621e+04  1.58924583e+03 -3.17995200e-02  5.65595637e-01],239,1590.4618739180496
1018,1018,[ 5.42985621e+04  1.58924583e+03 -3.17995200e-02  5.65595637e-01],681,1589.1556263054076
1019,1019,[ 5.42985621e+04  1.58924583e+03 -3.17995200e-02  5.65595637e-01],1501,1589.1872253183021
1020,1020,[ 5.42985621e+04  1.58924583e+03 -3.17995200e-02  5.65595637e-01],1123,1588.3287625034236
1021,1021,[ 5.42985621e+04  1.58924583e+03 -3.17995200e-02  5.65595637e-01],1102,1587.8952586189253
1022,1022,[ 5.42985621e+04  1.58924583e+03 -3.17995200e-02  5.65595637e-01],857,1587.713566609386
1023,1023,[ 5.42985621e+04  1.58924583e+03 -3.17995200e-02  5.65595637e-01],1148,1588.1643215791762
1024,1024,[ 5.42985621e+04  1.58924583e+03 -3.17995200e-02  5.65595637e-01],1289,1589.8401490586614
1025,1025,[ 5.42985621e+04  1.58924583e+03 -3.17995200e-02  5.65595637e-01],1198,1591.2804237175615
1026,1026,[ 5.42985621e+04  1.58924583e+03 -3.17995200e-02  5.65595637e-01],1423,1585.793777402983
1027,1027,[ 5.42985621e+04  1.58924583e+03 -3.17995200e-02  5.65595637e-01],1509,1589.4677722519723
1028,1028,[ 5.42985621e+04  1.58924583e+03 -3.17995200e-02  5.65595637e-01],678,1590.490410967166
1029,1029,[ 5.42985621e+04  1.58924583e+03 -3.17995200e-02  5.65595637e-01],1428,1589.9682055125263
1030,1030,[ 5.42985621e+04  1.58924583e+03 -3.17995200e-02  5.65595637e-01],1053,1587.4348897058621
1031,1031,[ 5.42985621e+04  1.58924583e+03 -3.17995200e-02  5.65595637e-01],559,1586.4088379659977
1032,1032,[ 5.42985621e+04  1.58924583e+03 -3.17995200e-02  5.65595637e-01],351,1586.5123494389973
1033,1033,[ 5.42985621e+04  1.58924583e+03 -3.17995200e-02  5.65595637e-01],670,1589.2495874805024
1034,1034,[ 5.42985621e+04  1.58924583e+03 -3.17995200e-02  5.65595637e-01],1467,1586.7456718582055
1035,1035,[ 5.42985621e+04  1.58924583e+03 -3.17995200e-02  5.65595637e-01],1415,1590.6572879182113
1036,1036,[ 5.42985621e+04  1.58924583e+03 -3.17995200e-02  5.65595637e-01],1140,1588.6102574496447
1037,1037,[ 5.42985621e+04  1.58924583e+03 -3.17995200e-02  5.65595637e-01],259,1587.025279915323
1038,1038,[ 5.42985621e+04  1.58924583e+03 -3.17995200e-02  5.65595637e-01],555,1590.8948428381746
1039,1039,[ 5.42985621e+04  1.58924583e+03 -3.17995200e-02  5.65595637e-01],1190,1589.4169947121568
1040,1040,[ 5.42985621e+04  1.58924583e+03 -3.17995200e-02  5.65595637e-01],315,1587.53551942334
1041,1041,[ 5.42985621e+04  1.58924583e+03 -3.17995200e-02  5.65595637e-01],645,1586.0454476060634
1042,1042,[ 5.42985621e+04  1.58924583e+03 -3.17995200e-02  5.65595637e-01],620,1588.2575440442383
1043,1043,[ 5.42985621e+04  1.58924583e+03 -3.17995200e-02  5.65595637e-01],1534,1589.0182307676655
1044,1044,[ 5.42985621e+04  1.58924583e+03 -3.17995200e-02  5.65595637e-01],616,1588.8639524083296
1045,1045,[ 5.42985621e+04  1.58924583e+03 -3.17995200e-02  5.65595637e-01],1474,1590.3194861809127
1046,1046,[ 5.42985621e+04  1.58924583e+03 -3.17995200e-02  5.65595637e-01],1013,1589.402721732845
1047,1047,[ 5.42985621e+04  1.58924583e+03 -3.17995200e-02  5.65595637e-01],1182,1588.743965746715
1048,1048,[ 5.42985621e+04  1.58924583e+03 -3.17995200e-02  5.65595637e-01],1000,1584.9915230071913
1049,1049,[ 5.42985621e+04  1.58924583e+03 -3.17995200e-02  5.65595637e-01],1359,1584.8194311405387
1050,1050,[ 5.42985621e+04  1.58924583e+03 -3.17995200e-02  5.65595637e-01],527,1591.267863720372
1051,1051,[ 5.42985621e+04  1.58924583e+03 -3.17995200e-02  5.65595637e-01],581,1590.6473137306946
1052,1052,[ 5.42985621e+04  1.58924583e+03 -3.17995200e-02  5.65595637e-01],1183,1582.8051349268615
1053,1053,[ 5.42985621e+04  1.58924583e+03 -3.17995200e-02  5.65595637e-01],1440,1584.624855957094
1054,1054,[ 5.42985621e+04  1.58924583e+03 -3.17995200e-02  5.65595637e-01],1523,1586.3221417436498
1055,1055,[ 5.42985621e+04  1.58924583e+03 -3.17995200e-02  5.65595637e-01],1375,1589.321295384256
1056,1056,[ 5.42985621e+04  1.58924583e+03 -3.17995200e-02  5.65595637e-01],1480,1584.297263581814
1057,1057,[ 5.42985621e+04  1.58924583e+03 -3.17995200e-02  5.65595637e-01],724,1589.8001587849005
1058,1058,[ 5.42985621e+04  1.58924583e+03 -3.17995200e-02  5.65595637e-01],1116,1588.4392613452344
1059,1059,[ 5.42985621e+04  1.58924583e+03 -3.17995200e-02  5.65595637e-01],1161,1587.2943959606669
1060,1060,[ 5.42985621e+04  1.58924583e+03 -3.17995200e-02  5.65595637e-01],1169,1585.7916768024127
1061,1061,[ 5.42985621e+04  1.58924583e+03 -3.17995200e-02  5.65595637e-01],509,1588.8885735197239
1062,1062,[ 5.42985621e+04  1.58924583e+03 -3.17995200e-02  5.65595637e-01],1265,1587.3876883084597
1063,1063,[ 5.42985621e+04  1.58924583e+03 -3.17995200e-02  5.65595637e-01],644,1587.0473261817478
1064,1064,[ 5.42985621e+04  1.58924583e+03 -3.17995200e-02  5.65595637e-01],867,1587.3876835900544
1065,1065,[ 5.42985621e+04  1.58924583e+03 -3.17995200e-02  5.65595637e-01],1056,1584.9396040120005
1066,1066,[ 5.42985621e+04  1.58924583e+03 -3.17995200e-02  5.65595637e-01],1325,1587.0312922225487
1067,1067,[ 5.42985621e+04  1.58924583e+03 -3.17995200e-02  5.65595637e-01],1330,1582.2012262836774
1068,1068,[ 5.42985621e+04  1.58924583e+03 -3.17995200e-02  5.65595637e-01],1419,1588.6825497477923
1069,1069,[ 5.42985621e+04  1.58924583e+03 -3.17995200e-02  5.65595637e-01],1473,1588.373167758223
1070,1070,[ 5.42985621e+04  1.58924583e+03 -3.17995200e-02  5.65595637e-01],143,1589.7342386900032
1071,1071,[ 5.42985621e+04  1.58924583e+03 -3.17995200e-02  5.65595637e-01],1561,1587.256053449871
1072,1072,[ 5.42985621e+04  1.58924583e+03 -3.17995200e-02  5.65595637e-01],316,1590.0649333463252
1073,1073,[ 5.42985621e+04  1.58924583e+03 -3.17995200e-02  5.65595637e-01],671,1588.5787527939995
1074,1074,[ 5.42985621e+04  1.58924583e+03 -3.17995200e-02  5.65595637e-01],1479,1591.595237186503
1075,1075,[ 5.42985621e+04  1.58924583e+03 -3.17995200e-02  5.65595637e-01],1540,1587.5962076717863
1076,1076,[ 5.42985621e+04  1.58924583e+03 -3.17995200e-02  5.65595637e-01],1355,1588.3246783765685
1077,1077,[ 5.42985621e+04  1.58924583e+03 -3.17995200e-02  5.65595637e-01],159,1587.9265756260752
1078,1078,[ 5.42985621e+04  1.58924583e+03 -3.17995200e-02  5.65595637e-01],1463,1588.7891721522049
1079,1079,[ 5.42985621e+04  1.58924583e+03 -3.17995200e-02  5.65595637e-01],707,1590.9010696413318
1080,1080,[ 5.42985621e+04  1.58924583e+03 -3.17995200e-02  5.65595637e-01],73,1589.36877845809
1081,1081,[ 5.42985621e+04  1.58924583e+03 -3.17995200e-02  5.65595637e-01],1127,1588.9428370492371
1082,1082,[ 5.42985621e+04  1.58924583e+03 -3.17995200e-02  5.65595637e-01],81,1589.0500969760617
1083,1083,[ 5.42985621e+04  1.58924583e+03 -3.17995200e-02  5.65595637e-01],401,1588.9859953399637
1084,1084,[ 5.42985621e+04  1.58924583e+03 -3.17995200e-02  5.65595637e-01],1535,1582.0109863604937
1085,1085,[ 5.42985621e+04  1.58924583e+03 -3.17995200e-02  5.65595637e-01],1244,1580.387243164362
1086,1086,[ 5.42985621e+04  1.58924583e+03 -3.17995200e-02  5.65595637e-01],185,1589.743018817981
1087,1087,[ 5.42985621e+04  1.58924583e+03 -3.17995200e-02  5.65595637e-01],1491,1586.8972697571592
1088,1088,[ 5.42985621e+04  1.58924583e+03 -3.17995200e-02  5.65595637e-01],1300,1585.1138140205348
1089,1089,[ 5.42985621e+04  1.58924583e+03 -3.17995200e-02  5.65595637e-01],1456,1588.3561054310364
1090,1090,[ 5.42985621e+04  1.58924583e+03 -3.17995200e-02  5.65595637e-01],1601,1582.6605358744403
1091,1091,[ 5.42985621e+04  1.58924583e+03 -3.17995200e-02  5.65595637e-01],904,1579.1083542058086
1092,1092,[ 5.42985621e+04  1.58924583e+03 -3.17995200e-02  5.65595637e-01],1124,1584.732146744746
1093,1093,[ 5.42985621e+04  1.58924583e+03 -3.17995200e-02  5.65595637e-01],1493,1586.9502358714174
1094,1094,[ 5.42985621e+04  1.58924583e+03 -3.17995200e-02  5.65595637e-01],530,1587.1149955753533
1095,1095,[ 5.42985621e+04  1.58924583e+03 -3.17995200e-02  5.65595637e-01],146,1588.5679527600494
1096,1096,[ 5.42985621e+04  1.58924583e+03 -3.17995200e-02  5.65595637e-01],658,1585.7776392388787
1097,1097,[ 5.42985621e+04  1.58924583e+03 -3.17995200e-02  5.65595637e-01],1122,1587.4084206585258
1098,1098,[ 5.42985621e+04  1.58924583e+03 -3.17995200e-02  5.65595637e-01],1544,1589.3899054736546
1099,1099,[ 5.42985621e+04  1.58924583e+03 -3.17995200e-02  5.65595637e-01],1293,1588.269062507928
1100,1100,[ 5.42985621e+04  1.58924583e+03 -3.17995200e-02  5.65595637e-01],545,1586.6893141471023
1101,1101,[ 5.42985621e+04  1.58924583e+03 -3.17995200e-02  5.65595637e-01],1545,1590.0216112750566
1102,1102,[ 5.42985621e+04  1.58924583e+03 -3.17995200e-02  5.65595637e-01],818,1584.6587964262933
1103,1103,[ 5.42985621e+04  1.58924583e+03 -3.17995200e-02  5.65595637e-01],502,1590.627149466098
1104,1104,[ 5.42985621e+04  1.58924583e+03 -3.17995200e-02  5.65595637e-01],7,1583.8486407150262
1105,1105,[ 5.42985621e+04  1.58924583e+03 -3.17995200e-02  5.65595637e-01],577,1587.580138257973
1106,1106,[ 5.42985621e+04  1.58924583e+03 -3.17995200e-02  5.65595637e-01],230,1587.0119237114284
1107,1107,[ 5.42985621e+04  1.58924583e+03 -3.17995200e-02  5.65595637e-01],1347,1590.2810563082937
1108,1108,[ 5.42985621e+04  1.58924583e+03 -3.17995200e-02  5.65595637e-01],1478,1587.7925727386066
1109,1109,[ 5.42985621e+04  1.58924583e+03 -3.17995200e-02  5.65595637e-01],1229,1588.5286833949544
1110,1110,[ 5.42985621e+04  1.58924583e+03 -3.17995200e-02  5.65595637e-01],1297,1585.2194547080305
1111,1111,[ 5.42985621e+04  1.58924583e+03 -3.17995200e-02  5.65595637e-01],1458,1589.1753246460555
1112,1112,[ 5.42985621e+04  1.58924583e+03 -3.17995200e-02  5.65595637e-01],485,1589.3989990752534
1113,1113,[ 5.42985621e+04  1.58924583e+03 -3.17995200e-02  5.65595637e-01],1270,1586.4589584761595
1114,1114,[ 5.42985621e+04  1.58924583e+03 -3.17995200e-02  5.65595637e-01],587,1579.1848627266452
1115,1115,[ 5.42985621e+04  1.58924583e+03 -3.17995200e-02  5.65595637e-01],45,1583.6118379689565
1116,1116,[ 5.42985621e+04  1.58924583e+03 -3.17995200e-02  5.65595637e-01],632,1584.340564799216
1117,1117,[ 5.42985621e+04  1.58924583e+03 -3.17995200e-02  5.65595637e-01],1264,1581.5156799002636
1118,1118,[ 5.42985621e+04  1.58924583e+03 -3.17995200e-02  5.65595637e-01],212,1581.6553616835388
1119,1119,[ 5.42985621e+04  1.58924583e+03 -3.17995200e-02  5.65595637e-01],1431,1588.7054185183126
1120,1120,[ 5.42985621e+04  1.58924583e+03 -3.17995200e-02  5.65595637e-01],1104,1582.7636600832575
1121,1121,[ 5.42985621e+04  1.58924583e+03 -3.17995200e-02  5.65595637e-01],969,1589.4068840661307
1122,1122,[ 5.42985621e+04  1.58924583e+03 -3.17995200e-02  5.65595637e-01],809,1584.0873180125666
1123,1123,[ 5.42985621e+04  1.58924583e+03 -3.17995200e-02  5.65595637e-01],80,1584.664281071219
1124,1124,[ 5.42985621e+04  1.58924583e+03 -3.17995200e-02  5.65595637e-01],1358,1584.1218089630704
1125,1125,[ 5.42985621e+04  1.58924583e+03 -3.17995200e-02  5.65595637e-01],1516,1589.507996319547
1126,1126,[ 5.42985621e+04  1.58924583e+03 -3.17995200e-02  5.65595637e-01],1424,1586.8915340565165
1127,1127,[ 5.42985621e+04  1.58924583e+03 -3.17995200e-02  5.65595637e-01],864,1584.1914432402596
1128,1128,[ 5.42985621e+04  1.58924583e+03 -3.17995200e-02  5.65595637e-01],1598,1586.9039741363981
1129,1129,[ 5.42985621e+04  1.58924583e+03 -3.17995200e-02  5.65595637e-01],405,1589.0362014449652
1130,1130,[ 5.42985621e+04  1.58924583e+03 -3.17995200e-02  5.65595637e-01],1580,1588.777145476987
1131,1131,[ 5.42985621e+04  1.58924583e+03 -3.17995200e-02  5.65595637e-01],98,1587.3348861582406
1132,1132,[ 5.42985621e+04  1.58924583e+03 -3.17995200e-02  5.65595637e-01],622,1588.6786378715574
1133,1133,[ 5.42985621e+04  1.58924583e+03 -3.17995200e-02  5.65595637e-01],1554,1587.2186423595738
1134,1134,[ 5.42985621e+04  1.58924583e+03 -3.17995200e-02  5.65595637e-01],811,1588.7485949283553
1135,1135,[ 5.42985621e+04  1.58924583e+03 -3.17995200e-02  5.65595637e-01],436,1588.2300366342374
1136,1136,[ 5.42985621e+04  1.58924583e+03 -3.17995200e-02  5.65595637e-01],1486,1587.8004653922478
1137,1137,[ 5.42985621e+04  1.58924583e+03 -3.17995200e-02  5.65595637e-01],723,1584.7776598739724
1138,1138,[ 5.42985621e+04  1.58924583e+03 -3.17995200e-02  5.65595637e-01],1585,1585.224850588978
1139,1139,[ 5.42985621e+04  1.58924583e+03 -3.17995200e-02  5.65595637e-01],949,1583.1087031794304
1140,1140,[ 5.42985621e+04  1.58924583e+03 -3.17995200e-02  5.65595637e-01],206,1584.5787180076527
1141,1141,[ 5.42985621e+04  1.58924583e+03 -3.17995200e-02  5.65595637e-01],610,1585.378493984792
1142,1142,[ 5.42985621e+04  1.58924583e+03 -3.17995200e-02  5.65595637e-01],503,1587.5733259939261
1143,1143,[ 5.42985621e+04  1.58924583e+03 -3.17995200e-02  5.65595637e-01],1115,1586.3812627613768
1144,1144,[ 5.42985621e+04  1.58924583e+03 -3.17995200e-02  5.65595637e-01],778,1587.0610779793112
1145,1145,[ 5.42985621e+04  1.58924583e+03 -3.17995200e-02  5.65595637e-01],331,1587.120587083724
1146,1146,[ 5.42985621e+04  1.58924583e+03 -3.17995200e-02  5.65595637e-01],540,1588.993011930496
1147,1147,[ 5.42985621e+04  1.58924583e+03 -3.17995200e-02  5.65595637e-01],1451,1588.6088729173446
1148,1148,[ 5.42985621e+04  1.58924583e+03 -3.17995200e-02  5.65595637e-01],699,1584.651416026781
1149,1149,[ 5.42985621e+04  1.58924583e+03 -3.17995200e-02  5.65595637e-01],244,1588.028000446853
1150,1150,[ 5.42985621e+04  1.58924583e+03 -3.17995200e-02  5.65595637e-01],1489,1586.3020821565972
1151,1151,[ 5.42985621e+04  1.58924583e+03 -3.17995200e-02  5.65595637e-01],966,1586.3451370220375
1152,1152,[ 5.42985621e+04  1.58924583e+03 -3.17995200e-02  5.65595637e-01],1221,1586.5540572530906
1153,1153,[ 5.42985621e+04  1.58924583e+03 -3.17995200e-02  5.65595637e-01],122,1585.176246978005
1154,1154,[ 5.42985621e+04  1.58924583e+03 -3.17995200e-02  5.65595637e-01],114,1587.2271050400077
1155,1155,[ 5.42985621e+04  1.58924583e+03 -3.17995200e-02  5.65595637e-01],412,1586.1853554396293
1156,1156,[ 5.42985621e+04  1.58924583e+03 -3.17995200e-02  5.65595637e-01],1350,1588.8024175383014
1157,1157,[ 5.42985621e+04  1.58924583e+03 -3.17995200e-02  5.65595637e-01],571,1589.5517328897981
1158,1158,[ 5.42985621e+04  1.58924583e+03 -3.17995200e-02  5.65595637e-01],299,1589.5775516945157
1159,1159,[ 5.42985621e+04  1.58924583e+03 -3.17995200e-02  5.65595637e-01],182,1589.1434436929565
1160,1160,[ 5.42985621e+04  1.58924583e+03 -3.17995200e-02  5.65595637e-01],120,1585.1076342229046
1161,1161,[ 5.42985621e+04  1.58924583e+03 -3.17995200e-02  5.65595637e-01],425,1584.3341002283696
1162,1162,[ 5.42985621e+04  1.58924583e+03 -3.17995200e-02  5.65595637e-01],166,1587.4679799568512
1163,1163,[ 5.42985621e+04  1.58924583e+03 -3.17995200e-02  5.65595637e-01],533,1588.6504882334837
1164,1164,[ 5.42985621e+04  1.58924583e+03 -3.17995200e-02  5.65595637e-01],318,1588.8545527232448
1165,1165,[ 5.42985621e+04  1.58924583e+03 -3.17995200e-02  5.65595637e-01],364,1589.5938497148618
1166,1166,[ 5.42985621e+04  1.58924583e+03 -3.17995200e-02  5.65595637e-01],1542,1590.6656009601284
1167,1167,[ 5.42985621e+04  1.58924583e+03 -3.17995200e-02  5.65595637e-01],953,1582.1049621472107
1168,1168,[ 5.42985621e+04  1.58924583e+03 -3.17995200e-02  5.65595637e-01],1336,1587.1302726451365
1169,1169,[ 5.42985621e+04  1.58924583e+03 -3.17995200e-02  5.65595637e-01],191,1584.333526901888
1170,1170,[ 5.42985621e+04  1.58924583e+03 -3.17995200e-02  5.65595637e-01],1410,1585.4639804103833
1171,1171,[ 5.42985621e+04  1.58924583e+03 -3.17995200e-02  5.65595637e-01],959,1588.7540196561597
1172,1172,[ 5.42985621e+04  1.58924583e+03 -3.17995200e-02  5.65595637e-01],68,1586.7461519840713
1173,1173,[ 5.42985621e+04  1.58924583e+03 -3.17995200e-02  5.65595637e-01],564,1589.9578138773013
1174,1174,[ 5.42985621e+04  1.58924583e+03 -3.17995200e-02  5.65595637e-01],1543,1590.1071298651595
1175,1175,[ 5.42985621e+04  1.58924583e+03 -3.17995200e-02  5.65595637e-01],468,1589.8676043365185
1176,1176,[ 5.42985621e+04  1.58924583e+03 -3.17995200e-02  5.65595637e-01],1574,1586.3826006277006
1177,1177,[ 5.42985621e+04  1.58924583e+03 -3.17995200e-02  5.65595637e-01],408,1590.0426810259926
1178,1178,[ 5.42985621e+04  1.58924583e+03 -3.17995200e-02  5.65595637e-01],691,1590.5541831326004
1179,1179,[ 5.42985621e+04  1.58924583e+03 -3.17995200e-02  5.65595637e-01],1597,1586.9017949030592
1180,1180,[ 5.42985621e+04  1.58924583e+03 -3.17995200e-02  5.65595637e-01],1139,1586.1697556583854
1181,1181,[ 5.42985621e+04  1.58924583e+03 -3.17995200e-02  5.65595637e-01],504,1587.0799704391236
1182,1182,[ 5.42985621e+04  1.58924583e+03 -3.17995200e-02  5.65595637e-01],445,1584.4738290413638
1183,1183,[ 5.42985621e+04  1.58924583e+03 -3.17995200e-02  5.65595637e-01],612,1584.4474502978687
1184,1184,[ 5.42985621e+04  1.58924583e+03 -3.17995200e-02  5.65595637e-01],281,1590.7367890719215
1185,1185,[ 5.42985621e+04  1.58924583e+03 -3.17995200e-02  5.65595637e-01],1524,1580.5774696832043
1186,1186,[ 5.42985621e+04  1.58924583e+03 -3.17995200e-02  5.65595637e-01],142,1585.8692773144153
1187,1187,[ 5.42985621e+04  1.58924583e+03 -3.17995200e-02  5.65595637e-01],479,1587.326361252726
1188,1188,[ 5.42985621e+04  1.58924583e+03 -3.17995200e-02  5.65595637e-01],958,1585.0147363595186
1189,1189,[ 5.42985621e+04  1.58924583e+03 -3.17995200e-02  5.65595637e-01],525,1587.678049020055
1190,1190,[ 5.42985621e+04  1.58924583e+03 -3.17995200e-02  5.65595637e-01],368,1584.5687580265283
1191,1191,[ 5.42985621e+04  1.58924583e+03 -3.17995200e-02  5.65595637e-01],1340,1588.3459463891504
1192,1192,[ 5.42985621e+04  1.58924583e+03 -3.17995200e-02  5.65595637e-01],307,1585.2114434157209
1193,1193,[ 5.42985621e+04  1.58924583e+03 -3.17995200e-02  5.65595637e-01],1275,1587.8922300169834
1194,1194,[ 5.42985621e+04  1.58924583e+03 -3.17995200e-02  5.65595637e-01],1052,1589.5460524475607
1195,1195,[ 5.42985621e+04  1.58924583e+03 -3.17995200e-02  5.65595637e-01],1499,1589.5973678909058
1196,1196,[ 5.42985621e+04  1.58924583e+03 -3.17995200e-02  5.65595637e-01],44,1588.5888464120962
1197,1197,[ 5.42985621e+04  1.58924583e+03 -3.17995200e-02  5.65595637e-01],152,1585.707197958097
1198,1198,[ 5.42985621e+04  1.58924583e+03 -3.17995200e-02  5.65595637e-01],1572,1584.645126325588
1199,1199,[ 5.42985621e+04  1.58924583e+03 -3.17995200e-02  5.65595637e-01],251,1586.1203009129952
1200,1200,[ 5.42985621e+04  1.58924583e+03 -3.17995200e-02  5.65595637e-01],1599,1589.138693479027
1201,1201,[ 5.42985621e+04  1.58924583e+03 -3.17995200e-02  5.65595637e-01],1120,1588.3685019053444
1202,1202,[ 5.42985621e+04  1.58924583e+03 -3.17995200e-02  5.65595637e-01],994,1588.2421168132248
1203,1203,[ 5.42985621e+04  1.58924583e+03 -3.17995200e-02  5.65595637e-01],1483,1586.8842010816606
1204,1204,[ 5.42985621e+04  1.58924583e+03 -3.17995200e-02  5.65595637e-01],1357,1578.0614212391567
1205,1205,[ 5.42985621e+04  1.58924583e+03 -3.17995200e-02  5.65595637e-01],1220,1580.1068803719995
1206,1206,[ 5.42985621e+04  1.58924583e+03 -3.17995200e-02  5.65595637e-01],473,1586.8645575159135
1207,1207,[ 5.42985621e+04  1.58924583e+03 -3.17995200e-02  5.65595637e-01],1016,1586.2582945098711
1208,1208,[ 5.42985621e+04  1.58924583e+03 -3.17995200e-02  5.65595637e-01],164,1584.9598259273698
1209,1209,[ 5.42985621e+04  1.58924583e+03 -3.17995200e-02  5.65595637e-01],1581,1578.58719261065
1210,1210,[ 5.42985621e+04  1.58924583e+03 -3.17995200e-02  5.65595637e-01],298,1578.3157893870136
1211,1211,[ 5.42985621e+04  1.58924583e+03 -3.17995200e-02  5.65595637e-01],1090,1587.205726196502
1212,1212,[ 5.42985621e+04  1.58924583e+03 -3.17995200e-02  5.65595637e-01],1482,1586.1222044460706
1213,1213,[ 5.42985621e+04  1.58924583e+03 -3.17995200e-02  5.65595637e-01],132,1587.7921267244978
1214,1214,[ 5.42985621e+04  1.58924583e+03 -3.17995200e-02  5.65595637e-01],551,1585.0010722174106
1215,1215,[ 5.42985621e+04  1.58924583e+03 -3.17995200e-02  5.65595637e-01],1477,1585.1133500601188
1216,1216,[ 5.42985621e+04  1.58924583e+03 -3.17995200e-02  5.65595637e-01],295,1576.5265416011925
1217,1217,[ 5.42985621e+04  1.58924583e+03 -3.17995200e-02  5.65595637e-01],1552,1586.8063205431602
1218,1218,[ 5.42985621e+04  1.58924583e+03 -3.17995200e-02  5.65595637e-01],702,1586.5737733368906
1219,1219,[ 5.42985621e+04  1.58924583e+03 -3.17995200e-02  5.65595637e-01],676,1584.7987723999727
1220,1220,[ 5.42985621e+04  1.58924583e+03 -3.17995200e-02  5.65595637e-01],957,1582.7221874169607
1221,1221,[ 5.42985621e+04  1.58924583e+03 -3.17995200e-02  5.65595637e-01],92,1583.5003941655295
1222,1222,[ 5.42985621e+04  1.58924583e+03 -3.17995200e-02  5.65595637e-01],931,1585.9392614459523
1223,1223,[ 5.42985621e+04  1.58924583e+03 -3.17995200e-02  5.65595637e-01],391,1589.03070939935
1224,1224,[ 5.42985621e+04  1.58924583e+03 -3.17995200e-02  5.65595637e-01],181,1586.841928598978
1225,1225,[ 5.42985621e+04  1.58924583e+03 -3.17995200e-02  5.65595637e-01],134,1585.4863858488977
1226,1226,[ 5.42985621e+04  1.58924583e+03 -3.17995200e-02  5.65595637e-01],1594,1585.8161710730383
1227,1227,[ 5.42985621e+04  1.58924583e+03 -3.17995200e-02  5.65595637e-01],93,1589.5528912611292
1228,1228,[ 5.42985621e+04  1.58924583e+03 -3.17995200e-02  5.65595637e-01],769,1587.3153962556632
1229,1229,[ 5.42985621e+04  1.58924583e+03 -3.17995200e-02  5.65595637e-01],1568,1583.983363814765
1230,1230,[ 5.42985621e+04  1.58924583e+03 -3.17995200e-02  5.65595637e-01],29,1587.436372955591
1231,1231,[ 5.42985621e+04  1.58924583e+03 -3.17995200e-02  5.65595637e-01],345,1587.6572839538574
1232,1232,[ 5.42985621e+04  1.58924583e+03 -3.17995200e-02  5.65595637e-01],1461,1589.4717577825586
