,0,1,2,3
0,0,"[ 4.68254405e+02  1.47043754e+02 -5.69775175e-03  8.07986175e-01
  1.63160564e+04  2.86634689e+02 -6.55385464e-03  1.88025353e-01
  2.84884680e+04  3.01934782e+02 -1.43010587e-02  1.49643639e-03
  5.08817145e+03  3.15476084e+02 -4.85609946e-03 -3.75851113e-01
  3.93761182e+03  5.38156522e+02 -3.90755439e-04 -5.60612144e-02]",579,777.6286066183428
1,1,[ 5.42985621e+04  1.58924583e+03 -3.17995200e-02  5.65595637e-01],772,778.7830383672908
2,2,[ 5.42985621e+04  1.58924583e+03 -3.17995200e-02  5.65595637e-01],578,778.0790747875928
3,3,[ 5.42985621e+04  1.58924583e+03 -3.17995200e-02  5.65595637e-01],614,778.6301335614991
4,4,[ 5.42985621e+04  1.58924583e+03 -3.17995200e-02  5.65595637e-01],695,776.5696067962072
5,5,[ 5.42985621e+04  1.58924583e+03 -3.17995200e-02  5.65595637e-01],425,778.6363439048814
6,6,[ 5.42985621e+04  1.58924583e+03 -3.17995200e-02  5.65595637e-01],631,779.1585082586203
7,7,[ 5.42985621e+04  1.58924583e+03 -3.17995200e-02  5.65595637e-01],566,777.422941379802
8,8,[ 5.42985621e+04  1.58924583e+03 -3.17995200e-02  5.65595637e-01],570,778.1462212053792
9,9,[ 5.42985621e+04  1.58924583e+03 -3.17995200e-02  5.65595637e-01],624,778.7508876501587
10,10,[ 5.42985621e+04  1.58924583e+03 -3.17995200e-02  5.65595637e-01],551,777.2617861695949
11,11,[ 5.42985621e+04  1.58924583e+03 -3.17995200e-02  5.65595637e-01],554,779.2152565663188
12,12,[ 5.42985621e+04  1.58924583e+03 -3.17995200e-02  5.65595637e-01],398,777.784241186976
13,13,[ 5.42985621e+04  1.58924583e+03 -3.17995200e-02  5.65595637e-01],536,779.3272619696666
14,14,[ 5.42985621e+04  1.58924583e+03 -3.17995200e-02  5.65595637e-01],200,778.1225259580026
15,15,[ 5.42985621e+04  1.58924583e+03 -3.17995200e-02  5.65595637e-01],546,778.0291353357918
16,16,[ 5.42985621e+04  1.58924583e+03 -3.17995200e-02  5.65595637e-01],174,779.2884821554292
17,17,[ 5.42985621e+04  1.58924583e+03 -3.17995200e-02  5.65595637e-01],572,778.9689447619404
18,18,[ 5.42985621e+04  1.58924583e+03 -3.17995200e-02  5.65595637e-01],764,778.5034261968444
19,19,[ 5.42985621e+04  1.58924583e+03 -3.17995200e-02  5.65595637e-01],671,779.1237310951288
20,20,[ 5.42985621e+04  1.58924583e+03 -3.17995200e-02  5.65595637e-01],453,778.2028270639802
21,21,[ 5.42985621e+04  1.58924583e+03 -3.17995200e-02  5.65595637e-01],550,779.1569683849921
22,22,[ 5.42985621e+04  1.58924583e+03 -3.17995200e-02  5.65595637e-01],761,778.5343348290216
23,23,[ 5.42985621e+04  1.58924583e+03 -3.17995200e-02  5.65595637e-01],495,778.0609122683679
24,24,[ 5.42985621e+04  1.58924583e+03 -3.17995200e-02  5.65595637e-01],189,778.666624328543
25,25,[ 5.42985621e+04  1.58924583e+03 -3.17995200e-02  5.65595637e-01],711,778.9582480593457
26,26,[ 5.42985621e+04  1.58924583e+03 -3.17995200e-02  5.65595637e-01],203,779.4175008197692
27,27,[ 5.42985621e+04  1.58924583e+03 -3.17995200e-02  5.65595637e-01],496,779.4791851538537
28,28,[ 5.42985621e+04  1.58924583e+03 -3.17995200e-02  5.65595637e-01],674,779.0302097195525
29,29,[ 5.42985621e+04  1.58924583e+03 -3.17995200e-02  5.65595637e-01],254,777.8099927692352
30,30,[ 5.42985621e+04  1.58924583e+03 -3.17995200e-02  5.65595637e-01],345,779.4203567117776
31,31,[ 5.42985621e+04  1.58924583e+03 -3.17995200e-02  5.65595637e-01],151,779.2443386368446
32,32,[ 5.42985621e+04  1.58924583e+03 -3.17995200e-02  5.65595637e-01],488,778.7366922688099
33,33,[ 5.42985621e+04  1.58924583e+03 -3.17995200e-02  5.65595637e-01],402,779.127532144169
34,34,[ 5.42985621e+04  1.58924583e+03 -3.17995200e-02  5.65595637e-01],280,778.6742605414505
35,35,[ 5.42985621e+04  1.58924583e+03 -3.17995200e-02  5.65595637e-01],379,778.0358581020608
36,36,[ 5.42985621e+04  1.58924583e+03 -3.17995200e-02  5.65595637e-01],320,779.0172683870542
37,37,[ 5.42985621e+04  1.58924583e+03 -3.17995200e-02  5.65595637e-01],776,779.4755536467673
38,38,[ 5.42985621e+04  1.58924583e+03 -3.17995200e-02  5.65595637e-01],148,779.153898993669
39,39,[ 5.42985621e+04  1.58924583e+03 -3.17995200e-02  5.65595637e-01],558,779.3292488254098
40,40,[ 5.42985621e+04  1.58924583e+03 -3.17995200e-02  5.65595637e-01],547,779.8975519455558
41,41,[ 5.42985621e+04  1.58924583e+03 -3.17995200e-02  5.65595637e-01],775,778.8692186789406
42,42,[ 5.42985621e+04  1.58924583e+03 -3.17995200e-02  5.65595637e-01],299,779.4899613149507
43,43,[ 5.42985621e+04  1.58924583e+03 -3.17995200e-02  5.65595637e-01],461,779.9752474186743
44,44,[ 5.42985621e+04  1.58924583e+03 -3.17995200e-02  5.65595637e-01],582,779.1762238637667
45,45,[ 5.42985621e+04  1.58924583e+03 -3.17995200e-02  5.65595637e-01],205,778.7182802864576
46,46,[ 5.42985621e+04  1.58924583e+03 -3.17995200e-02  5.65595637e-01],732,779.0418636259906
47,47,[ 5.42985621e+04  1.58924583e+03 -3.17995200e-02  5.65595637e-01],383,778.4703373673176
48,48,[ 5.42985621e+04  1.58924583e+03 -3.17995200e-02  5.65595637e-01],257,779.9800463679979
49,49,[ 5.42985621e+04  1.58924583e+03 -3.17995200e-02  5.65595637e-01],652,779.1463345282511
50,50,[ 5.42985621e+04  1.58924583e+03 -3.17995200e-02  5.65595637e-01],638,779.1910301713094
51,51,[ 5.42985621e+04  1.58924583e+03 -3.17995200e-02  5.65595637e-01],382,780.0551161169318
52,52,[ 5.42985621e+04  1.58924583e+03 -3.17995200e-02  5.65595637e-01],681,778.9560973808191
53,53,[ 5.42985621e+04  1.58924583e+03 -3.17995200e-02  5.65595637e-01],312,779.7695995609163
54,54,[ 5.42985621e+04  1.58924583e+03 -3.17995200e-02  5.65595637e-01],639,779.3297132249894
55,55,[ 5.42985621e+04  1.58924583e+03 -3.17995200e-02  5.65595637e-01],165,777.588732014914
56,56,[ 5.42985621e+04  1.58924583e+03 -3.17995200e-02  5.65595637e-01],716,779.7543936089962
57,57,[ 5.42985621e+04  1.58924583e+03 -3.17995200e-02  5.65595637e-01],451,779.2867105642997
58,58,[ 5.42985621e+04  1.58924583e+03 -3.17995200e-02  5.65595637e-01],766,779.663074136939
59,59,[ 5.42985621e+04  1.58924583e+03 -3.17995200e-02  5.65595637e-01],717,779.1994830327417
60,60,[ 5.42985621e+04  1.58924583e+03 -3.17995200e-02  5.65595637e-01],686,780.2460357799523
61,61,[ 5.42985621e+04  1.58924583e+03 -3.17995200e-02  5.65595637e-01],613,778.9882055404522
62,62,[ 5.42985621e+04  1.58924583e+03 -3.17995200e-02  5.65595637e-01],378,779.4729422275096
63,63,[ 5.42985621e+04  1.58924583e+03 -3.17995200e-02  5.65595637e-01],247,779.4063340759584
64,64,[ 5.42985621e+04  1.58924583e+03 -3.17995200e-02  5.65595637e-01],740,779.3839143967314
65,65,[ 5.42985621e+04  1.58924583e+03 -3.17995200e-02  5.65595637e-01],597,779.6886722627938
66,66,[ 5.42985621e+04  1.58924583e+03 -3.17995200e-02  5.65595637e-01],374,777.996696519691
67,67,[ 5.42985621e+04  1.58924583e+03 -3.17995200e-02  5.65595637e-01],501,780.3228440525518
68,68,[ 5.42985621e+04  1.58924583e+03 -3.17995200e-02  5.65595637e-01],747,779.818617831318
69,69,[ 5.42985621e+04  1.58924583e+03 -3.17995200e-02  5.65595637e-01],545,776.9067986466976
70,70,[ 5.42985621e+04  1.58924583e+03 -3.17995200e-02  5.65595637e-01],583,779.1674035187241
71,71,[ 5.42985621e+04  1.58924583e+03 -3.17995200e-02  5.65595637e-01],442,775.9745787972506
72,72,[ 5.42985621e+04  1.58924583e+03 -3.17995200e-02  5.65595637e-01],750,778.4164345447317
73,73,[ 5.42985621e+04  1.58924583e+03 -3.17995200e-02  5.65595637e-01],508,777.9879755647603
74,74,[ 5.42985621e+04  1.58924583e+03 -3.17995200e-02  5.65595637e-01],163,778.7564536505276
75,75,[ 5.42985621e+04  1.58924583e+03 -3.17995200e-02  5.65595637e-01],625,780.2483661823588
76,76,[ 5.42985621e+04  1.58924583e+03 -3.17995200e-02  5.65595637e-01],561,778.198628915917
77,77,[ 5.42985621e+04  1.58924583e+03 -3.17995200e-02  5.65595637e-01],385,779.0899826192145
78,78,[ 5.42985621e+04  1.58924583e+03 -3.17995200e-02  5.65595637e-01],782,780.2744708009279
79,79,[ 5.42985621e+04  1.58924583e+03 -3.17995200e-02  5.65595637e-01],405,777.9036291222315
80,80,[ 5.42985621e+04  1.58924583e+03 -3.17995200e-02  5.65595637e-01],734,779.8332402233539
81,81,[ 5.42985621e+04  1.58924583e+03 -3.17995200e-02  5.65595637e-01],662,780.096964950418
82,82,[ 5.42985621e+04  1.58924583e+03 -3.17995200e-02  5.65595637e-01],446,777.5555905755917
83,83,[ 5.42985621e+04  1.58924583e+03 -3.17995200e-02  5.65595637e-01],269,779.8932890851578
84,84,[ 5.42985621e+04  1.58924583e+03 -3.17995200e-02  5.65595637e-01],541,779.6269260734141
85,85,[ 5.42985621e+04  1.58924583e+03 -3.17995200e-02  5.65595637e-01],266,778.569056241761
86,86,[ 5.42985621e+04  1.58924583e+03 -3.17995200e-02  5.65595637e-01],642,779.0959087330614
87,87,[ 5.42985621e+04  1.58924583e+03 -3.17995200e-02  5.65595637e-01],655,780.3466377232971
88,88,[ 5.42985621e+04  1.58924583e+03 -3.17995200e-02  5.65595637e-01],684,779.8956135533765
89,89,[ 5.42985621e+04  1.58924583e+03 -3.17995200e-02  5.65595637e-01],318,779.871138925019
90,90,[ 5.42985621e+04  1.58924583e+03 -3.17995200e-02  5.65595637e-01],314,779.7858530817552
91,91,[ 5.42985621e+04  1.58924583e+03 -3.17995200e-02  5.65595637e-01],757,780.144528503855
92,92,[ 5.42985621e+04  1.58924583e+03 -3.17995200e-02  5.65595637e-01],555,779.5819156078134
93,93,[ 5.42985621e+04  1.58924583e+03 -3.17995200e-02  5.65595637e-01],564,778.2299625064462
94,94,[ 5.42985621e+04  1.58924583e+03 -3.17995200e-02  5.65595637e-01],666,779.7460715913099
95,95,[ 5.42985621e+04  1.58924583e+03 -3.17995200e-02  5.65595637e-01],456,780.1699874469114
96,96,[ 5.42985621e+04  1.58924583e+03 -3.17995200e-02  5.65595637e-01],568,779.6225928216327
97,97,[ 5.42985621e+04  1.58924583e+03 -3.17995200e-02  5.65595637e-01],432,779.9428621429548
98,98,[ 5.42985621e+04  1.58924583e+03 -3.17995200e-02  5.65595637e-01],431,780.0571520423499
99,99,[ 5.42985621e+04  1.58924583e+03 -3.17995200e-02  5.65595637e-01],386,779.3273826769098
100,100,[ 5.42985621e+04  1.58924583e+03 -3.17995200e-02  5.65595637e-01],180,780.4686643331196
101,101,[ 5.42985621e+04  1.58924583e+03 -3.17995200e-02  5.65595637e-01],768,780.3855864141161
102,102,[ 5.42985621e+04  1.58924583e+03 -3.17995200e-02  5.65595637e-01],340,779.862345241443
103,103,[ 5.42985621e+04  1.58924583e+03 -3.17995200e-02  5.65595637e-01],241,779.2489929410968
104,104,[ 5.42985621e+04  1.58924583e+03 -3.17995200e-02  5.65595637e-01],627,779.9359640539599
105,105,[ 5.42985621e+04  1.58924583e+03 -3.17995200e-02  5.65595637e-01],471,779.315800717956
106,106,[ 5.42985621e+04  1.58924583e+03 -3.17995200e-02  5.65595637e-01],557,780.4905506755467
107,107,[ 5.42985621e+04  1.58924583e+03 -3.17995200e-02  5.65595637e-01],219,779.3844373422324
108,108,[ 5.42985621e+04  1.58924583e+03 -3.17995200e-02  5.65595637e-01],416,780.3971382583684
109,109,[ 5.42985621e+04  1.58924583e+03 -3.17995200e-02  5.65595637e-01],574,779.942957058149
110,110,[ 5.42985621e+04  1.58924583e+03 -3.17995200e-02  5.65595637e-01],507,780.3281596400956
111,111,[ 5.42985621e+04  1.58924583e+03 -3.17995200e-02  5.65595637e-01],612,779.9622801771288
112,112,[ 5.42985621e+04  1.58924583e+03 -3.17995200e-02  5.65595637e-01],434,779.3958158372031
113,113,[ 5.42985621e+04  1.58924583e+03 -3.17995200e-02  5.65595637e-01],585,779.9324961984452
114,114,[ 5.42985621e+04  1.58924583e+03 -3.17995200e-02  5.65595637e-01],335,779.6351676544837
115,115,[ 5.42985621e+04  1.58924583e+03 -3.17995200e-02  5.65595637e-01],342,778.740482447162
116,116,[ 5.42985621e+04  1.58924583e+03 -3.17995200e-02  5.65595637e-01],720,779.408266636402
117,117,[ 5.42985621e+04  1.58924583e+03 -3.17995200e-02  5.65595637e-01],166,780.3075461798364
118,118,[ 5.42985621e+04  1.58924583e+03 -3.17995200e-02  5.65595637e-01],353,780.0498071575436
119,119,[ 5.42985621e+04  1.58924583e+03 -3.17995200e-02  5.65595637e-01],409,780.1482922894992
120,120,[ 5.42985621e+04  1.58924583e+03 -3.17995200e-02  5.65595637e-01],632,780.0092779839395
121,121,[ 5.42985621e+04  1.58924583e+03 -3.17995200e-02  5.65595637e-01],194,780.1688134884319
122,122,[ 5.42985621e+04  1.58924583e+03 -3.17995200e-02  5.65595637e-01],760,780.3176527357487
123,123,[ 5.42985621e+04  1.58924583e+03 -3.17995200e-02  5.65595637e-01],562,779.7873538779452
124,124,[ 5.42985621e+04  1.58924583e+03 -3.17995200e-02  5.65595637e-01],617,779.667786240947
125,125,[ 5.42985621e+04  1.58924583e+03 -3.17995200e-02  5.65595637e-01],325,779.1975300685812
126,126,[ 5.42985621e+04  1.58924583e+03 -3.17995200e-02  5.65595637e-01],665,779.7179500469781
127,127,[ 5.42985621e+04  1.58924583e+03 -3.17995200e-02  5.65595637e-01],755,779.0571321032776
128,128,[ 5.42985621e+04  1.58924583e+03 -3.17995200e-02  5.65595637e-01],765,779.9712894952407
129,129,[ 5.42985621e+04  1.58924583e+03 -3.17995200e-02  5.65595637e-01],387,779.596600007799
130,130,[ 5.42985621e+04  1.58924583e+03 -3.17995200e-02  5.65595637e-01],408,779.3135049341305
131,131,[ 5.42985621e+04  1.58924583e+03 -3.17995200e-02  5.65595637e-01],347,779.9835866816777
132,132,[ 5.42985621e+04  1.58924583e+03 -3.17995200e-02  5.65595637e-01],630,778.9895547950094
133,133,[ 5.42985621e+04  1.58924583e+03 -3.17995200e-02  5.65595637e-01],518,779.643549799478
134,134,[ 5.42985621e+04  1.58924583e+03 -3.17995200e-02  5.65595637e-01],304,780.0534463783268
135,135,[ 5.42985621e+04  1.58924583e+03 -3.17995200e-02  5.65595637e-01],413,778.4725531602452
136,136,[ 5.42985621e+04  1.58924583e+03 -3.17995200e-02  5.65595637e-01],604,780.12393794773
137,137,[ 5.42985621e+04  1.58924583e+03 -3.17995200e-02  5.65595637e-01],650,779.5008234430297
138,138,[ 5.42985621e+04  1.58924583e+03 -3.17995200e-02  5.65595637e-01],548,779.3572182908581
139,139,[ 5.42985621e+04  1.58924583e+03 -3.17995200e-02  5.65595637e-01],143,780.4048621021633
140,140,[ 5.42985621e+04  1.58924583e+03 -3.17995200e-02  5.65595637e-01],443,779.642820378185
141,141,[ 5.42985621e+04  1.58924583e+03 -3.17995200e-02  5.65595637e-01],697,780.1182030400984
142,142,[ 5.42985621e+04  1.58924583e+03 -3.17995200e-02  5.65595637e-01],576,779.4622029511912
143,143,[ 5.42985621e+04  1.58924583e+03 -3.17995200e-02  5.65595637e-01],560,780.5940853961749
144,144,[ 5.42985621e+04  1.58924583e+03 -3.17995200e-02  5.65595637e-01],575,779.5199825107275
145,145,[ 5.42985621e+04  1.58924583e+03 -3.17995200e-02  5.65595637e-01],232,779.3806066524199
146,146,[ 5.42985621e+04  1.58924583e+03 -3.17995200e-02  5.65595637e-01],651,780.1042236273265
147,147,[ 5.42985621e+04  1.58924583e+03 -3.17995200e-02  5.65595637e-01],316,779.1549841919317
148,148,[ 5.42985621e+04  1.58924583e+03 -3.17995200e-02  5.65595637e-01],177,780.8788641612009
149,149,[ 5.42985621e+04  1.58924583e+03 -3.17995200e-02  5.65595637e-01],556,779.7597729768913
150,150,[ 5.42985621e+04  1.58924583e+03 -3.17995200e-02  5.65595637e-01],224,779.6697200846929
151,151,[ 5.42985621e+04  1.58924583e+03 -3.17995200e-02  5.65595637e-01],356,780.9021883421439
152,152,[ 5.42985621e+04  1.58924583e+03 -3.17995200e-02  5.65595637e-01],160,779.7184802373806
153,153,[ 5.42985621e+04  1.58924583e+03 -3.17995200e-02  5.65595637e-01],628,780.202433988062
154,154,[ 5.42985621e+04  1.58924583e+03 -3.17995200e-02  5.65595637e-01],623,780.0627858154055
155,155,[ 5.42985621e+04  1.58924583e+03 -3.17995200e-02  5.65595637e-01],569,780.150181443563
156,156,[ 5.42985621e+04  1.58924583e+03 -3.17995200e-02  5.65595637e-01],403,778.5116019108929
157,157,[ 5.42985621e+04  1.58924583e+03 -3.17995200e-02  5.65595637e-01],672,780.2884970199885
158,158,[ 5.42985621e+04  1.58924583e+03 -3.17995200e-02  5.65595637e-01],343,779.5121028665027
159,159,[ 5.42985621e+04  1.58924583e+03 -3.17995200e-02  5.65595637e-01],503,779.6821556941866
160,160,[ 5.42985621e+04  1.58924583e+03 -3.17995200e-02  5.65595637e-01],440,780.555196466281
161,161,[ 5.42985621e+04  1.58924583e+03 -3.17995200e-02  5.65595637e-01],429,779.3068692444864
162,162,[ 5.42985621e+04  1.58924583e+03 -3.17995200e-02  5.65595637e-01],489,780.2541836662806
163,163,[ 5.42985621e+04  1.58924583e+03 -3.17995200e-02  5.65595637e-01],230,780.7650025428816
164,164,[ 5.42985621e+04  1.58924583e+03 -3.17995200e-02  5.65595637e-01],588,778.9470429382669
165,165,[ 5.42985621e+04  1.58924583e+03 -3.17995200e-02  5.65595637e-01],494,780.8379141952721
166,166,[ 5.42985621e+04  1.58924583e+03 -3.17995200e-02  5.65595637e-01],333,780.656609191774
167,167,[ 5.42985621e+04  1.58924583e+03 -3.17995200e-02  5.65595637e-01],751,777.7966741692046
168,168,[ 5.42985621e+04  1.58924583e+03 -3.17995200e-02  5.65595637e-01],328,780.0802954431912
169,169,[ 5.42985621e+04  1.58924583e+03 -3.17995200e-02  5.65595637e-01],620,780.4783083093575
170,170,[ 5.42985621e+04  1.58924583e+03 -3.17995200e-02  5.65595637e-01],178,778.7967821896767
171,171,[ 5.42985621e+04  1.58924583e+03 -3.17995200e-02  5.65595637e-01],660,779.6874767152357
172,172,[ 5.42985621e+04  1.58924583e+03 -3.17995200e-02  5.65595637e-01],780,780.3514994418683
173,173,[ 5.42985621e+04  1.58924583e+03 -3.17995200e-02  5.65595637e-01],704,778.9064075103969
174,174,[ 5.42985621e+04  1.58924583e+03 -3.17995200e-02  5.65595637e-01],636,780.9450989848485
175,175,[ 5.42985621e+04  1.58924583e+03 -3.17995200e-02  5.65595637e-01],216,779.8872120279832
176,176,[ 5.42985621e+04  1.58924583e+03 -3.17995200e-02  5.65595637e-01],197,779.2516884468062
177,177,[ 5.42985621e+04  1.58924583e+03 -3.17995200e-02  5.65595637e-01],633,780.5654916377038
178,178,[ 5.42985621e+04  1.58924583e+03 -3.17995200e-02  5.65595637e-01],106,780.5152634054754
179,179,[ 5.42985621e+04  1.58924583e+03 -3.17995200e-02  5.65595637e-01],777,779.8960670860479
180,180,[ 5.42985621e+04  1.58924583e+03 -3.17995200e-02  5.65595637e-01],468,780.7016611247578
181,181,[ 5.42985621e+04  1.58924583e+03 -3.17995200e-02  5.65595637e-01],455,780.2426957219648
182,182,[ 5.42985621e+04  1.58924583e+03 -3.17995200e-02  5.65595637e-01],202,778.6284083153803
183,183,[ 5.42985621e+04  1.58924583e+03 -3.17995200e-02  5.65595637e-01],744,780.3241661525755
184,184,[ 5.42985621e+04  1.58924583e+03 -3.17995200e-02  5.65595637e-01],399,778.2291307914865
185,185,[ 5.42985621e+04  1.58924583e+03 -3.17995200e-02  5.65595637e-01],249,778.8697504067569
186,186,[ 5.42985621e+04  1.58924583e+03 -3.17995200e-02  5.65595637e-01],169,780.4686900805445
187,187,[ 5.42985621e+04  1.58924583e+03 -3.17995200e-02  5.65595637e-01],284,778.6529880655092
188,188,[ 5.42985621e+04  1.58924583e+03 -3.17995200e-02  5.65595637e-01],390,779.8697447676554
189,189,[ 5.42985621e+04  1.58924583e+03 -3.17995200e-02  5.65595637e-01],309,780.9247149792095
190,190,[ 5.42985621e+04  1.58924583e+03 -3.17995200e-02  5.65595637e-01],237,779.1157494712819
191,191,[ 5.42985621e+04  1.58924583e+03 -3.17995200e-02  5.65595637e-01],677,779.203523553445
192,192,[ 5.42985621e+04  1.58924583e+03 -3.17995200e-02  5.65595637e-01],300,779.9004280652861
193,193,[ 5.42985621e+04  1.58924583e+03 -3.17995200e-02  5.65595637e-01],281,778.7759806801147
194,194,[ 5.42985621e+04  1.58924583e+03 -3.17995200e-02  5.65595637e-01],186,780.6326833346869
195,195,[ 5.42985621e+04  1.58924583e+03 -3.17995200e-02  5.65595637e-01],100,780.3088544383911
196,196,[ 5.42985621e+04  1.58924583e+03 -3.17995200e-02  5.65595637e-01],705,779.3215503171134
197,197,[ 5.42985621e+04  1.58924583e+03 -3.17995200e-02  5.65595637e-01],283,780.493011344094
198,198,[ 5.42985621e+04  1.58924583e+03 -3.17995200e-02  5.65595637e-01],491,779.8119126341271
199,199,[ 5.42985621e+04  1.58924583e+03 -3.17995200e-02  5.65595637e-01],752,779.4066703558634
200,200,[ 5.42985621e+04  1.58924583e+03 -3.17995200e-02  5.65595637e-01],609,780.9482863389435
201,201,[ 5.42985621e+04  1.58924583e+03 -3.17995200e-02  5.65595637e-01],739,780.1013996907266
202,202,[ 5.42985621e+04  1.58924583e+03 -3.17995200e-02  5.65595637e-01],616,780.482769128801
203,203,[ 5.42985621e+04  1.58924583e+03 -3.17995200e-02  5.65595637e-01],643,780.915589769965
204,204,[ 5.42985621e+04  1.58924583e+03 -3.17995200e-02  5.65595637e-01],634,779.3050668707322
205,205,[ 5.42985621e+04  1.58924583e+03 -3.17995200e-02  5.65595637e-01],691,780.8691311355126
206,206,[ 5.42985621e+04  1.58924583e+03 -3.17995200e-02  5.65595637e-01],389,779.5603998930064
207,207,[ 5.42985621e+04  1.58924583e+03 -3.17995200e-02  5.65595637e-01],676,779.7269918974301
208,208,[ 5.42985621e+04  1.58924583e+03 -3.17995200e-02  5.65595637e-01],419,780.296960588689
209,209,[ 5.42985621e+04  1.58924583e+03 -3.17995200e-02  5.65595637e-01],363,779.8444487425572
210,210,[ 5.42985621e+04  1.58924583e+03 -3.17995200e-02  5.65595637e-01],602,780.0782314143818
211,211,[ 5.42985621e+04  1.58924583e+03 -3.17995200e-02  5.65595637e-01],770,779.9273120767984
212,212,[ 5.42985621e+04  1.58924583e+03 -3.17995200e-02  5.65595637e-01],361,779.1716111980782
213,213,[ 5.42985621e+04  1.58924583e+03 -3.17995200e-02  5.65595637e-01],350,780.2648584830446
214,214,[ 5.42985621e+04  1.58924583e+03 -3.17995200e-02  5.65595637e-01],445,779.8558960200484
215,215,[ 5.42985621e+04  1.58924583e+03 -3.17995200e-02  5.65595637e-01],544,779.07054224844
216,216,[ 5.42985621e+04  1.58924583e+03 -3.17995200e-02  5.65595637e-01],303,780.494427571793
217,217,[ 5.42985621e+04  1.58924583e+03 -3.17995200e-02  5.65595637e-01],324,779.3318665506273
218,218,[ 5.42985621e+04  1.58924583e+03 -3.17995200e-02  5.65595637e-01],240,780.1279034716305
219,219,[ 5.42985621e+04  1.58924583e+03 -3.17995200e-02  5.65595637e-01],229,780.6821191994507
220,220,[ 5.42985621e+04  1.58924583e+03 -3.17995200e-02  5.65595637e-01],412,779.9561923373356
221,221,[ 5.42985621e+04  1.58924583e+03 -3.17995200e-02  5.65595637e-01],459,779.8436709846056
222,222,[ 5.42985621e+04  1.58924583e+03 -3.17995200e-02  5.65595637e-01],139,780.2326940638764
223,223,[ 5.42985621e+04  1.58924583e+03 -3.17995200e-02  5.65595637e-01],308,777.5518646626581
224,224,[ 5.42985621e+04  1.58924583e+03 -3.17995200e-02  5.65595637e-01],465,780.5596557217744
225,225,[ 5.42985621e+04  1.58924583e+03 -3.17995200e-02  5.65595637e-01],268,779.122053466829
226,226,[ 5.42985621e+04  1.58924583e+03 -3.17995200e-02  5.65595637e-01],108,779.2682228822855
227,227,[ 5.42985621e+04  1.58924583e+03 -3.17995200e-02  5.65595637e-01],368,780.2517151772578
228,228,[ 5.42985621e+04  1.58924583e+03 -3.17995200e-02  5.65595637e-01],297,779.639307016422
229,229,[ 5.42985621e+04  1.58924583e+03 -3.17995200e-02  5.65595637e-01],605,780.4178238218964
230,230,[ 5.42985621e+04  1.58924583e+03 -3.17995200e-02  5.65595637e-01],101,780.5251469481084
231,231,[ 5.42985621e+04  1.58924583e+03 -3.17995200e-02  5.65595637e-01],295,778.6901565820141
232,232,[ 5.42985621e+04  1.58924583e+03 -3.17995200e-02  5.65595637e-01],714,780.5809340563427
233,233,[ 5.42985621e+04  1.58924583e+03 -3.17995200e-02  5.65595637e-01],769,779.8366891180195
234,234,[ 5.42985621e+04  1.58924583e+03 -3.17995200e-02  5.65595637e-01],679,779.9278570513103
235,235,[ 5.42985621e+04  1.58924583e+03 -3.17995200e-02  5.65595637e-01],696,780.0285248845147
236,236,[ 5.42985621e+04  1.58924583e+03 -3.17995200e-02  5.65595637e-01],675,780.2347027558644
237,237,[ 5.42985621e+04  1.58924583e+03 -3.17995200e-02  5.65595637e-01],749,780.4719018149978
238,238,[ 5.42985621e+04  1.58924583e+03 -3.17995200e-02  5.65595637e-01],467,780.1423228903013
239,239,[ 5.42985621e+04  1.58924583e+03 -3.17995200e-02  5.65595637e-01],584,779.0969597131606
240,240,[ 5.42985621e+04  1.58924583e+03 -3.17995200e-02  5.65595637e-01],742,780.422019240473
241,241,[ 5.42985621e+04  1.58924583e+03 -3.17995200e-02  5.65595637e-01],622,780.698919699261
242,242,[ 5.42985621e+04  1.58924583e+03 -3.17995200e-02  5.65595637e-01],392,779.7612496551089
243,243,[ 5.42985621e+04  1.58924583e+03 -3.17995200e-02  5.65595637e-01],535,780.1751116657784
244,244,[ 5.42985621e+04  1.58924583e+03 -3.17995200e-02  5.65595637e-01],307,780.3190820817113
245,245,[ 5.42985621e+04  1.58924583e+03 -3.17995200e-02  5.65595637e-01],172,779.7476527327284
246,246,[ 5.42985621e+04  1.58924583e+03 -3.17995200e-02  5.65595637e-01],87,779.8471938931893
247,247,[ 5.42985621e+04  1.58924583e+03 -3.17995200e-02  5.65595637e-01],410,780.8022102824158
248,248,[ 5.42985621e+04  1.58924583e+03 -3.17995200e-02  5.65595637e-01],426,779.886890193309
249,249,[ 5.42985621e+04  1.58924583e+03 -3.17995200e-02  5.65595637e-01],635,780.4792749602177
250,250,[ 5.42985621e+04  1.58924583e+03 -3.17995200e-02  5.65595637e-01],735,779.6327584751419
251,251,[ 5.42985621e+04  1.58924583e+03 -3.17995200e-02  5.65595637e-01],680,780.09104653202
252,252,[ 5.42985621e+04  1.58924583e+03 -3.17995200e-02  5.65595637e-01],649,778.8865670762611
253,253,[ 5.42985621e+04  1.58924583e+03 -3.17995200e-02  5.65595637e-01],306,779.5340444608815
254,254,[ 5.42985621e+04  1.58924583e+03 -3.17995200e-02  5.65595637e-01],414,780.9091747763558
255,255,[ 5.42985621e+04  1.58924583e+03 -3.17995200e-02  5.65595637e-01],641,780.126397452287
256,256,[ 5.42985621e+04  1.58924583e+03 -3.17995200e-02  5.65595637e-01],499,778.8942195444503
257,257,[ 5.42985621e+04  1.58924583e+03 -3.17995200e-02  5.65595637e-01],110,780.8522092835366
258,258,[ 5.42985621e+04  1.58924583e+03 -3.17995200e-02  5.65595637e-01],421,778.9121441053004
259,259,[ 5.42985621e+04  1.58924583e+03 -3.17995200e-02  5.65595637e-01],448,778.8214281411782
260,260,[ 5.42985621e+04  1.58924583e+03 -3.17995200e-02  5.65595637e-01],338,780.1946865183583
261,261,[ 5.42985621e+04  1.58924583e+03 -3.17995200e-02  5.65595637e-01],183,779.4304706170519
262,262,[ 5.42985621e+04  1.58924583e+03 -3.17995200e-02  5.65595637e-01],67,776.6564809090364
263,263,[ 5.42985621e+04  1.58924583e+03 -3.17995200e-02  5.65595637e-01],244,780.1028428055715
264,264,[ 5.42985621e+04  1.58924583e+03 -3.17995200e-02  5.65595637e-01],506,779.0257754959073
265,265,[ 5.42985621e+04  1.58924583e+03 -3.17995200e-02  5.65595637e-01],122,777.6407914546523
266,266,[ 5.42985621e+04  1.58924583e+03 -3.17995200e-02  5.65595637e-01],603,780.7397297559514
267,267,[ 5.42985621e+04  1.58924583e+03 -3.17995200e-02  5.65595637e-01],722,780.0503480850206
268,268,[ 5.42985621e+04  1.58924583e+03 -3.17995200e-02  5.65595637e-01],311,780.3984350218362
269,269,[ 5.42985621e+04  1.58924583e+03 -3.17995200e-02  5.65595637e-01],377,780.7418066277326
270,270,[ 5.42985621e+04  1.58924583e+03 -3.17995200e-02  5.65595637e-01],329,779.5039226530848
271,271,[ 5.42985621e+04  1.58924583e+03 -3.17995200e-02  5.65595637e-01],539,779.6952744002691
272,272,[ 5.42985621e+04  1.58924583e+03 -3.17995200e-02  5.65595637e-01],348,780.2168179091
273,273,[ 5.42985621e+04  1.58924583e+03 -3.17995200e-02  5.65595637e-01],428,778.1197205306698
274,274,[ 5.42985621e+04  1.58924583e+03 -3.17995200e-02  5.65595637e-01],195,779.9098008250602
275,275,[ 5.42985621e+04  1.58924583e+03 -3.17995200e-02  5.65595637e-01],117,779.3498210285444
276,276,[ 5.42985621e+04  1.58924583e+03 -3.17995200e-02  5.65595637e-01],762,776.3875984386765
277,277,[ 5.42985621e+04  1.58924583e+03 -3.17995200e-02  5.65595637e-01],563,779.765280276628
278,278,[ 5.42985621e+04  1.58924583e+03 -3.17995200e-02  5.65595637e-01],500,779.781701181146
279,279,[ 5.42985621e+04  1.58924583e+03 -3.17995200e-02  5.65595637e-01],580,777.2168145438884
280,280,[ 5.42985621e+04  1.58924583e+03 -3.17995200e-02  5.65595637e-01],657,780.8940404530658
281,281,[ 5.42985621e+04  1.58924583e+03 -3.17995200e-02  5.65595637e-01],208,780.4691512600197
282,282,[ 5.42985621e+04  1.58924583e+03 -3.17995200e-02  5.65595637e-01],481,778.9161870335657
283,283,[ 5.42985621e+04  1.58924583e+03 -3.17995200e-02  5.65595637e-01],565,780.46162414313
284,284,[ 5.42985621e+04  1.58924583e+03 -3.17995200e-02  5.65595637e-01],592,780.4782544939196
285,285,[ 5.42985621e+04  1.58924583e+03 -3.17995200e-02  5.65595637e-01],599,779.9699836270686
286,286,[ 5.42985621e+04  1.58924583e+03 -3.17995200e-02  5.65595637e-01],682,780.2510628275073
287,287,[ 5.42985621e+04  1.58924583e+03 -3.17995200e-02  5.65595637e-01],157,778.4387073686808
288,288,[ 5.42985621e+04  1.58924583e+03 -3.17995200e-02  5.65595637e-01],668,780.0084972359793
289,289,[ 5.42985621e+04  1.58924583e+03 -3.17995200e-02  5.65595637e-01],294,780.1118141541465
290,290,[ 5.42985621e+04  1.58924583e+03 -3.17995200e-02  5.65595637e-01],78,779.2059155914159
291,291,[ 5.42985621e+04  1.58924583e+03 -3.17995200e-02  5.65595637e-01],358,780.0669525100121
292,292,[ 5.42985621e+04  1.58924583e+03 -3.17995200e-02  5.65595637e-01],391,780.2401745711078
293,293,[ 5.42985621e+04  1.58924583e+03 -3.17995200e-02  5.65595637e-01],411,780.1176673336208
294,294,[ 5.42985621e+04  1.58924583e+03 -3.17995200e-02  5.65595637e-01],472,780.2773419265275
295,295,[ 5.42985621e+04  1.58924583e+03 -3.17995200e-02  5.65595637e-01],559,780.3836038008006
296,296,[ 5.42985621e+04  1.58924583e+03 -3.17995200e-02  5.65595637e-01],213,779.7271158796572
297,297,[ 5.42985621e+04  1.58924583e+03 -3.17995200e-02  5.65595637e-01],415,780.3905829597905
298,298,[ 5.42985621e+04  1.58924583e+03 -3.17995200e-02  5.65595637e-01],748,779.8375502774621
299,299,[ 5.42985621e+04  1.58924583e+03 -3.17995200e-02  5.65595637e-01],162,780.872090345753
300,300,[ 5.42985621e+04  1.58924583e+03 -3.17995200e-02  5.65595637e-01],593,780.4692290710366
301,301,[ 5.42985621e+04  1.58924583e+03 -3.17995200e-02  5.65595637e-01],227,779.1346237118256
302,302,[ 5.42985621e+04  1.58924583e+03 -3.17995200e-02  5.65595637e-01],286,776.1667197985442
303,303,[ 5.42985621e+04  1.58924583e+03 -3.17995200e-02  5.65595637e-01],659,780.4249530985519
304,304,[ 5.42985621e+04  1.58924583e+03 -3.17995200e-02  5.65595637e-01],75,780.6015747477624
305,305,[ 5.42985621e+04  1.58924583e+03 -3.17995200e-02  5.65595637e-01],618,780.0596408809344
306,306,[ 5.42985621e+04  1.58924583e+03 -3.17995200e-02  5.65595637e-01],417,780.3357835038413
307,307,[ 5.42985621e+04  1.58924583e+03 -3.17995200e-02  5.65595637e-01],753,780.352869133944
308,308,[ 5.42985621e+04  1.58924583e+03 -3.17995200e-02  5.65595637e-01],60,780.4031763640655
309,309,[ 5.42985621e+04  1.58924583e+03 -3.17995200e-02  5.65595637e-01],181,780.4765235203116
310,310,[ 5.42985621e+04  1.58924583e+03 -3.17995200e-02  5.65595637e-01],395,779.4023942741635
311,311,[ 5.42985621e+04  1.58924583e+03 -3.17995200e-02  5.65595637e-01],292,780.3151213634395
312,312,[ 5.42985621e+04  1.58924583e+03 -3.17995200e-02  5.65595637e-01],317,780.840779873896
313,313,[ 5.42985621e+04  1.58924583e+03 -3.17995200e-02  5.65595637e-01],236,780.137397203057
314,314,[ 5.42985621e+04  1.58924583e+03 -3.17995200e-02  5.65595637e-01],222,780.7247720120572
315,315,[ 5.42985621e+04  1.58924583e+03 -3.17995200e-02  5.65595637e-01],700,779.9850598529213
316,316,[ 5.42985621e+04  1.58924583e+03 -3.17995200e-02  5.65595637e-01],396,780.5673120168364
317,317,[ 5.42985621e+04  1.58924583e+03 -3.17995200e-02  5.65595637e-01],272,780.2357073910981
318,318,[ 5.42985621e+04  1.58924583e+03 -3.17995200e-02  5.65595637e-01],404,780.7269829361545
319,319,[ 5.42985621e+04  1.58924583e+03 -3.17995200e-02  5.65595637e-01],332,779.907870368788
320,320,[ 5.42985621e+04  1.58924583e+03 -3.17995200e-02  5.65595637e-01],449,780.8808039467218
321,321,[ 5.42985621e+04  1.58924583e+03 -3.17995200e-02  5.65595637e-01],153,780.1453801757118
322,322,[ 5.42985621e+04  1.58924583e+03 -3.17995200e-02  5.65595637e-01],339,780.0497320512045
323,323,[ 5.42985621e+04  1.58924583e+03 -3.17995200e-02  5.65595637e-01],331,779.7192341179798
324,324,[ 5.42985621e+04  1.58924583e+03 -3.17995200e-02  5.65595637e-01],330,780.4226835273138
325,325,[ 5.42985621e+04  1.58924583e+03 -3.17995200e-02  5.65595637e-01],656,780.6227811131805
326,326,[ 5.42985621e+04  1.58924583e+03 -3.17995200e-02  5.65595637e-01],260,780.0372429779289
327,327,[ 5.42985621e+04  1.58924583e+03 -3.17995200e-02  5.65595637e-01],552,779.9232806211788
328,328,[ 5.42985621e+04  1.58924583e+03 -3.17995200e-02  5.65595637e-01],537,780.5195432031153
329,329,[ 5.42985621e+04  1.58924583e+03 -3.17995200e-02  5.65595637e-01],365,780.3136130350457
330,330,[ 5.42985621e+04  1.58924583e+03 -3.17995200e-02  5.65595637e-01],589,780.1982653564479
331,331,[ 5.42985621e+04  1.58924583e+03 -3.17995200e-02  5.65595637e-01],608,780.198605256684
332,332,[ 5.42985621e+04  1.58924583e+03 -3.17995200e-02  5.65595637e-01],713,780.2123156656899
333,333,[ 5.42985621e+04  1.58924583e+03 -3.17995200e-02  5.65595637e-01],743,780.5241351613671
334,334,[ 5.42985621e+04  1.58924583e+03 -3.17995200e-02  5.65595637e-01],243,779.4725252255184
335,335,[ 5.42985621e+04  1.58924583e+03 -3.17995200e-02  5.65595637e-01],647,780.6707382895027
336,336,[ 5.42985621e+04  1.58924583e+03 -3.17995200e-02  5.65595637e-01],664,779.52739623319
337,337,[ 5.42985621e+04  1.58924583e+03 -3.17995200e-02  5.65595637e-01],95,780.1332565421051
338,338,[ 5.42985621e+04  1.58924583e+03 -3.17995200e-02  5.65595637e-01],121,780.324956566261
339,339,[ 5.42985621e+04  1.58924583e+03 -3.17995200e-02  5.65595637e-01],756,780.2016122960201
340,340,[ 5.42985621e+04  1.58924583e+03 -3.17995200e-02  5.65595637e-01],380,780.6993603722141
341,341,[ 5.42985621e+04  1.58924583e+03 -3.17995200e-02  5.65595637e-01],458,778.9592266196555
342,342,[ 5.42985621e+04  1.58924583e+03 -3.17995200e-02  5.65595637e-01],155,780.6625966178481
343,343,[ 5.42985621e+04  1.58924583e+03 -3.17995200e-02  5.65595637e-01],384,780.5375396797888
344,344,[ 5.42985621e+04  1.58924583e+03 -3.17995200e-02  5.65595637e-01],119,779.6935924705746
345,345,[ 5.42985621e+04  1.58924583e+03 -3.17995200e-02  5.65595637e-01],667,780.9038314095834
346,346,[ 5.42985621e+04  1.58924583e+03 -3.17995200e-02  5.65595637e-01],480,779.9754736439572
347,347,[ 5.42985621e+04  1.58924583e+03 -3.17995200e-02  5.65595637e-01],321,780.6096340754627
348,348,[ 5.42985621e+04  1.58924583e+03 -3.17995200e-02  5.65595637e-01],450,780.3112285862612
349,349,[ 5.42985621e+04  1.58924583e+03 -3.17995200e-02  5.65595637e-01],91,780.0720171463552
350,350,[ 5.42985621e+04  1.58924583e+03 -3.17995200e-02  5.65595637e-01],238,780.4314408440027
351,351,[ 5.42985621e+04  1.58924583e+03 -3.17995200e-02  5.65595637e-01],457,780.1308718546527
352,352,[ 5.42985621e+04  1.58924583e+03 -3.17995200e-02  5.65595637e-01],670,779.8536821959918
353,353,[ 5.42985621e+04  1.58924583e+03 -3.17995200e-02  5.65595637e-01],313,780.6520991659792
354,354,[ 5.42985621e+04  1.58924583e+03 -3.17995200e-02  5.65595637e-01],692,779.9175517821765
355,355,[ 5.42985621e+04  1.58924583e+03 -3.17995200e-02  5.65595637e-01],337,779.6608988981183
356,356,[ 5.42985621e+04  1.58924583e+03 -3.17995200e-02  5.65595637e-01],596,780.5593580008876
357,357,[ 5.42985621e+04  1.58924583e+03 -3.17995200e-02  5.65595637e-01],351,779.6908549820745
358,358,[ 5.42985621e+04  1.58924583e+03 -3.17995200e-02  5.65595637e-01],218,780.274269401456
359,359,[ 5.42985621e+04  1.58924583e+03 -3.17995200e-02  5.65595637e-01],255,779.8760939785134
360,360,[ 5.42985621e+04  1.58924583e+03 -3.17995200e-02  5.65595637e-01],136,779.9037449504399
361,361,[ 5.42985621e+04  1.58924583e+03 -3.17995200e-02  5.65595637e-01],678,780.4357144190394
362,362,[ 5.42985621e+04  1.58924583e+03 -3.17995200e-02  5.65595637e-01],606,779.489148616387
363,363,[ 5.42985621e+04  1.58924583e+03 -3.17995200e-02  5.65595637e-01],587,780.4389833927806
364,364,[ 5.42985621e+04  1.58924583e+03 -3.17995200e-02  5.65595637e-01],478,780.0401210722723
365,365,[ 5.42985621e+04  1.58924583e+03 -3.17995200e-02  5.65595637e-01],553,780.1909773174982
366,366,[ 5.42985621e+04  1.58924583e+03 -3.17995200e-02  5.65595637e-01],701,780.0613368528382
367,367,[ 5.42985621e+04  1.58924583e+03 -3.17995200e-02  5.65595637e-01],141,779.8421422868691
368,368,[ 5.42985621e+04  1.58924583e+03 -3.17995200e-02  5.65595637e-01],293,780.3971154728539
369,369,[ 5.42985621e+04  1.58924583e+03 -3.17995200e-02  5.65595637e-01],289,779.1516786778317
370,370,[ 5.42985621e+04  1.58924583e+03 -3.17995200e-02  5.65595637e-01],498,779.8988937916223
371,371,[ 5.42985621e+04  1.58924583e+03 -3.17995200e-02  5.65595637e-01],702,779.5532006714913
372,372,[ 5.42985621e+04  1.58924583e+03 -3.17995200e-02  5.65595637e-01],424,779.5620355534945
373,373,[ 5.42985621e+04  1.58924583e+03 -3.17995200e-02  5.65595637e-01],146,779.9712893595331
374,374,[ 5.42985621e+04  1.58924583e+03 -3.17995200e-02  5.65595637e-01],263,780.7781039275283
375,375,[ 5.42985621e+04  1.58924583e+03 -3.17995200e-02  5.65595637e-01],201,778.3039624467236
376,376,[ 5.42985621e+04  1.58924583e+03 -3.17995200e-02  5.65595637e-01],81,779.0800803881463
377,377,[ 5.42985621e+04  1.58924583e+03 -3.17995200e-02  5.65595637e-01],708,780.3149212486699
378,378,[ 5.42985621e+04  1.58924583e+03 -3.17995200e-02  5.65595637e-01],251,780.812924188962
379,379,[ 5.42985621e+04  1.58924583e+03 -3.17995200e-02  5.65595637e-01],502,780.8811312947489
380,380,[ 5.42985621e+04  1.58924583e+03 -3.17995200e-02  5.65595637e-01],504,780.1563226577636
381,381,[ 5.42985621e+04  1.58924583e+03 -3.17995200e-02  5.65595637e-01],781,779.883708859183
382,382,[ 5.42985621e+04  1.58924583e+03 -3.17995200e-02  5.65595637e-01],168,780.8492122846086
383,383,[ 5.42985621e+04  1.58924583e+03 -3.17995200e-02  5.65595637e-01],210,780.8548195752569
384,384,[ 5.42985621e+04  1.58924583e+03 -3.17995200e-02  5.65595637e-01],542,780.1500829888435
385,385,[ 5.42985621e+04  1.58924583e+03 -3.17995200e-02  5.65595637e-01],349,780.7579752020607
386,386,[ 5.42985621e+04  1.58924583e+03 -3.17995200e-02  5.65595637e-01],291,780.7061216480936
387,387,[ 5.42985621e+04  1.58924583e+03 -3.17995200e-02  5.65595637e-01],658,780.6120923315037
388,388,[ 5.42985621e+04  1.58924583e+03 -3.17995200e-02  5.65595637e-01],154,780.0337415309831
389,389,[ 5.42985621e+04  1.58924583e+03 -3.17995200e-02  5.65595637e-01],366,780.4470175667002
390,390,[ 5.42985621e+04  1.58924583e+03 -3.17995200e-02  5.65595637e-01],611,780.4766281638248
391,391,[ 5.42985621e+04  1.58924583e+03 -3.17995200e-02  5.65595637e-01],305,780.2730697949088
392,392,[ 5.42985621e+04  1.58924583e+03 -3.17995200e-02  5.65595637e-01],683,780.3554948457654
393,393,[ 5.42985621e+04  1.58924583e+03 -3.17995200e-02  5.65595637e-01],98,779.7721038978327
394,394,[ 5.42985621e+04  1.58924583e+03 -3.17995200e-02  5.65595637e-01],437,779.8156321328639
395,395,[ 5.42985621e+04  1.58924583e+03 -3.17995200e-02  5.65595637e-01],51,780.2409774223577
396,396,[ 5.42985621e+04  1.58924583e+03 -3.17995200e-02  5.65595637e-01],598,780.2231675857711
397,397,[ 5.42985621e+04  1.58924583e+03 -3.17995200e-02  5.65595637e-01],134,779.9529702054413
398,398,[ 5.42985621e+04  1.58924583e+03 -3.17995200e-02  5.65595637e-01],737,780.9579079971537
399,399,[ 5.42985621e+04  1.58924583e+03 -3.17995200e-02  5.65595637e-01],267,780.4803829347863
400,400,[ 5.42985621e+04  1.58924583e+03 -3.17995200e-02  5.65595637e-01],118,780.028944890517
401,401,[ 5.42985621e+04  1.58924583e+03 -3.17995200e-02  5.65595637e-01],322,779.7967349366143
402,402,[ 5.42985621e+04  1.58924583e+03 -3.17995200e-02  5.65595637e-01],364,780.8943838557739
403,403,[ 5.42985621e+04  1.58924583e+03 -3.17995200e-02  5.65595637e-01],326,780.545730604554
404,404,[ 5.42985621e+04  1.58924583e+03 -3.17995200e-02  5.65595637e-01],767,780.2130276898683
405,405,[ 5.42985621e+04  1.58924583e+03 -3.17995200e-02  5.65595637e-01],615,780.7511730818153
406,406,[ 5.42985621e+04  1.58924583e+03 -3.17995200e-02  5.65595637e-01],581,779.4432271150292
407,407,[ 5.42985621e+04  1.58924583e+03 -3.17995200e-02  5.65595637e-01],729,779.7472938831067
408,408,[ 5.42985621e+04  1.58924583e+03 -3.17995200e-02  5.65595637e-01],388,780.6099022620381
409,409,[ 5.42985621e+04  1.58924583e+03 -3.17995200e-02  5.65595637e-01],745,780.6465387294992
410,410,[ 5.42985621e+04  1.58924583e+03 -3.17995200e-02  5.65595637e-01],758,780.3435010126227
411,411,[ 5.42985621e+04  1.58924583e+03 -3.17995200e-02  5.65595637e-01],400,780.2728098056077
412,412,[ 5.42985621e+04  1.58924583e+03 -3.17995200e-02  5.65595637e-01],235,780.4155866566225
413,413,[ 5.42985621e+04  1.58924583e+03 -3.17995200e-02  5.65595637e-01],646,780.5995003602904
414,414,[ 5.42985621e+04  1.58924583e+03 -3.17995200e-02  5.65595637e-01],759,780.3352962340741
415,415,[ 5.42985621e+04  1.58924583e+03 -3.17995200e-02  5.65595637e-01],738,780.2633266924572
416,416,[ 5.42985621e+04  1.58924583e+03 -3.17995200e-02  5.65595637e-01],719,780.6817997712038
417,417,[ 5.42985621e+04  1.58924583e+03 -3.17995200e-02  5.65595637e-01],663,780.2475694902643
418,418,[ 5.42985621e+04  1.58924583e+03 -3.17995200e-02  5.65595637e-01],120,779.8222314515086
419,419,[ 5.42985621e+04  1.58924583e+03 -3.17995200e-02  5.65595637e-01],288,780.4390841924358
420,420,[ 5.42985621e+04  1.58924583e+03 -3.17995200e-02  5.65595637e-01],420,779.9987746271428
421,421,[ 5.42985621e+04  1.58924583e+03 -3.17995200e-02  5.65595637e-01],619,780.3280432629123
422,422,[ 5.42985621e+04  1.58924583e+03 -3.17995200e-02  5.65595637e-01],466,779.5011725236697
423,423,[ 5.42985621e+04  1.58924583e+03 -3.17995200e-02  5.65595637e-01],315,779.8295133542784
424,424,[ 5.42985621e+04  1.58924583e+03 -3.17995200e-02  5.65595637e-01],577,780.1057091728084
425,425,[ 5.42985621e+04  1.58924583e+03 -3.17995200e-02  5.65595637e-01],131,781.0178694757487
426,426,[ 5.42985621e+04  1.58924583e+03 -3.17995200e-02  5.65595637e-01],497,780.3434690874827
427,427,[ 5.42985621e+04  1.58924583e+03 -3.17995200e-02  5.65595637e-01],48,779.3928796636734
428,428,[ 5.42985621e+04  1.58924583e+03 -3.17995200e-02  5.65595637e-01],519,780.309654077166
429,429,[ 5.42985621e+04  1.58924583e+03 -3.17995200e-02  5.65595637e-01],346,780.5322365861914
430,430,[ 5.42985621e+04  1.58924583e+03 -3.17995200e-02  5.65595637e-01],43,778.671062014028
431,431,[ 5.42985621e+04  1.58924583e+03 -3.17995200e-02  5.65595637e-01],709,780.7068907016177
432,432,[ 5.42985621e+04  1.58924583e+03 -3.17995200e-02  5.65595637e-01],590,780.7072850598709
433,433,[ 5.42985621e+04  1.58924583e+03 -3.17995200e-02  5.65595637e-01],128,778.5505294617932
434,434,[ 5.42985621e+04  1.58924583e+03 -3.17995200e-02  5.65595637e-01],373,780.6739239009381
435,435,[ 5.42985621e+04  1.58924583e+03 -3.17995200e-02  5.65595637e-01],285,779.2110643780737
436,436,[ 5.42985621e+04  1.58924583e+03 -3.17995200e-02  5.65595637e-01],483,779.778245904667
437,437,[ 5.42985621e+04  1.58924583e+03 -3.17995200e-02  5.65595637e-01],111,780.056268774928
438,438,[ 5.42985621e+04  1.58924583e+03 -3.17995200e-02  5.65595637e-01],482,778.8050590687035
439,439,[ 5.42985621e+04  1.58924583e+03 -3.17995200e-02  5.65595637e-01],687,779.9043258689494
440,440,[ 5.42985621e+04  1.58924583e+03 -3.17995200e-02  5.65595637e-01],220,780.5327657921987
441,441,[ 5.42985621e+04  1.58924583e+03 -3.17995200e-02  5.65595637e-01],571,778.7946440005572
442,442,[ 5.42985621e+04  1.58924583e+03 -3.17995200e-02  5.65595637e-01],688,780.7705450168705
443,443,[ 5.42985621e+04  1.58924583e+03 -3.17995200e-02  5.65595637e-01],397,780.5904945363475
444,444,[ 5.42985621e+04  1.58924583e+03 -3.17995200e-02  5.65595637e-01],710,779.8243268189668
445,445,[ 5.42985621e+04  1.58924583e+03 -3.17995200e-02  5.65595637e-01],779,780.4270113797161
446,446,[ 5.42985621e+04  1.58924583e+03 -3.17995200e-02  5.65595637e-01],109,780.7434565169501
447,447,[ 5.42985621e+04  1.58924583e+03 -3.17995200e-02  5.65595637e-01],97,779.2038779818822
448,448,[ 5.42985621e+04  1.58924583e+03 -3.17995200e-02  5.65595637e-01],469,780.3260534691158
449,449,[ 5.42985621e+04  1.58924583e+03 -3.17995200e-02  5.65595637e-01],104,780.2027099514438
450,450,[ 5.42985621e+04  1.58924583e+03 -3.17995200e-02  5.65595637e-01],707,780.1447618993262
451,451,[ 5.42985621e+04  1.58924583e+03 -3.17995200e-02  5.65595637e-01],690,780.8291336948103
452,452,[ 5.42985621e+04  1.58924583e+03 -3.17995200e-02  5.65595637e-01],113,779.8375267534439
453,453,[ 5.42985621e+04  1.58924583e+03 -3.17995200e-02  5.65595637e-01],234,780.9269502149982
454,454,[ 5.42985621e+04  1.58924583e+03 -3.17995200e-02  5.65595637e-01],211,779.740840343625
455,455,[ 5.42985621e+04  1.58924583e+03 -3.17995200e-02  5.65595637e-01],778,780.4840455891687
456,456,[ 5.42985621e+04  1.58924583e+03 -3.17995200e-02  5.65595637e-01],327,780.7143030392998
457,457,[ 5.42985621e+04  1.58924583e+03 -3.17995200e-02  5.65595637e-01],354,780.1397368120322
458,458,[ 5.42985621e+04  1.58924583e+03 -3.17995200e-02  5.65595637e-01],703,780.1534619711397
459,459,[ 5.42985621e+04  1.58924583e+03 -3.17995200e-02  5.65595637e-01],476,780.4082539990649
460,460,[ 5.42985621e+04  1.58924583e+03 -3.17995200e-02  5.65595637e-01],274,778.8201558343745
461,461,[ 5.42985621e+04  1.58924583e+03 -3.17995200e-02  5.65595637e-01],470,780.8712411604238
462,462,[ 5.42985621e+04  1.58924583e+03 -3.17995200e-02  5.65595637e-01],319,779.8524442885764
463,463,[ 5.42985621e+04  1.58924583e+03 -3.17995200e-02  5.65595637e-01],595,779.7153743723275
464,464,[ 5.42985621e+04  1.58924583e+03 -3.17995200e-02  5.65595637e-01],439,779.7046895101594
465,465,[ 5.42985621e+04  1.58924583e+03 -3.17995200e-02  5.65595637e-01],360,780.4000124380681
466,466,[ 5.42985621e+04  1.58924583e+03 -3.17995200e-02  5.65595637e-01],192,779.9893837041662
467,467,[ 5.42985621e+04  1.58924583e+03 -3.17995200e-02  5.65595637e-01],370,780.36132087768
468,468,[ 5.42985621e+04  1.58924583e+03 -3.17995200e-02  5.65595637e-01],40,780.4841751019569
469,469,[ 5.42985621e+04  1.58924583e+03 -3.17995200e-02  5.65595637e-01],179,779.9416950897022
470,470,[ 5.42985621e+04  1.58924583e+03 -3.17995200e-02  5.65595637e-01],88,779.908263324012
471,471,[ 5.42985621e+04  1.58924583e+03 -3.17995200e-02  5.65595637e-01],723,780.68360424034
472,472,[ 5.42985621e+04  1.58924583e+03 -3.17995200e-02  5.65595637e-01],733,780.2686071270991
473,473,[ 5.42985621e+04  1.58924583e+03 -3.17995200e-02  5.65595637e-01],83,779.7593418262803
474,474,[ 5.42985621e+04  1.58924583e+03 -3.17995200e-02  5.65595637e-01],175,779.7607750070225
475,475,[ 5.42985621e+04  1.58924583e+03 -3.17995200e-02  5.65595637e-01],248,779.1868247118683
476,476,[ 5.42985621e+04  1.58924583e+03 -3.17995200e-02  5.65595637e-01],381,779.911674850926
477,477,[ 5.42985621e+04  1.58924583e+03 -3.17995200e-02  5.65595637e-01],549,779.3977272690418
478,478,[ 5.42985621e+04  1.58924583e+03 -3.17995200e-02  5.65595637e-01],653,780.1199269801674
479,479,[ 5.42985621e+04  1.58924583e+03 -3.17995200e-02  5.65595637e-01],359,779.756070717624
480,480,[ 5.42985621e+04  1.58924583e+03 -3.17995200e-02  5.65595637e-01],89,780.1455842613749
481,481,[ 5.42985621e+04  1.58924583e+03 -3.17995200e-02  5.65595637e-01],621,780.2966607185139
482,482,[ 5.42985621e+04  1.58924583e+03 -3.17995200e-02  5.65595637e-01],188,779.9583519397189
483,483,[ 5.42985621e+04  1.58924583e+03 -3.17995200e-02  5.65595637e-01],586,779.9671603327399
484,484,[ 5.42985621e+04  1.58924583e+03 -3.17995200e-02  5.65595637e-01],102,779.5045686269721
485,485,[ 5.42985621e+04  1.58924583e+03 -3.17995200e-02  5.65595637e-01],214,779.2513741775033
486,486,[ 5.42985621e+04  1.58924583e+03 -3.17995200e-02  5.65595637e-01],352,779.2623135703373
487,487,[ 5.42985621e+04  1.58924583e+03 -3.17995200e-02  5.65595637e-01],462,779.7771635565317
488,488,[ 5.42985621e+04  1.58924583e+03 -3.17995200e-02  5.65595637e-01],246,780.8975189139704
489,489,[ 5.42985621e+04  1.58924583e+03 -3.17995200e-02  5.65595637e-01],209,780.529124145796
490,490,[ 5.42985621e+04  1.58924583e+03 -3.17995200e-02  5.65595637e-01],221,778.383889129844
491,491,[ 5.42985621e+04  1.58924583e+03 -3.17995200e-02  5.65595637e-01],367,780.4581692422256
492,492,[ 5.42985621e+04  1.58924583e+03 -3.17995200e-02  5.65595637e-01],736,779.6475336976401
493,493,[ 5.42985621e+04  1.58924583e+03 -3.17995200e-02  5.65595637e-01],298,778.7787308345186
494,494,[ 5.42985621e+04  1.58924583e+03 -3.17995200e-02  5.65595637e-01],452,780.5248605461896
495,495,[ 5.42985621e+04  1.58924583e+03 -3.17995200e-02  5.65595637e-01],233,780.9256206171738
496,496,[ 5.42985621e+04  1.58924583e+03 -3.17995200e-02  5.65595637e-01],80,780.912595710373
497,497,[ 5.42985621e+04  1.58924583e+03 -3.17995200e-02  5.65595637e-01],423,779.9821510720976
498,498,[ 5.42985621e+04  1.58924583e+03 -3.17995200e-02  5.65595637e-01],600,780.1091697917727
499,499,[ 5.42985621e+04  1.58924583e+03 -3.17995200e-02  5.65595637e-01],444,780.3296068833348
500,500,[ 5.42985621e+04  1.58924583e+03 -3.17995200e-02  5.65595637e-01],418,780.3019698207873
501,501,[ 5.42985621e+04  1.58924583e+03 -3.17995200e-02  5.65595637e-01],68,780.775847862421
502,502,[ 5.42985621e+04  1.58924583e+03 -3.17995200e-02  5.65595637e-01],394,780.0875843196743
503,503,[ 5.42985621e+04  1.58924583e+03 -3.17995200e-02  5.65595637e-01],198,780.5353804130821
504,504,[ 5.42985621e+04  1.58924583e+03 -3.17995200e-02  5.65595637e-01],520,780.0814270815931
505,505,[ 5.42985621e+04  1.58924583e+03 -3.17995200e-02  5.65595637e-01],401,779.5625295506943
506,506,[ 5.42985621e+04  1.58924583e+03 -3.17995200e-02  5.65595637e-01],123,780.3187323807537
507,507,[ 5.42985621e+04  1.58924583e+03 -3.17995200e-02  5.65595637e-01],90,780.6787853329851
508,508,[ 5.42985621e+04  1.58924583e+03 -3.17995200e-02  5.65595637e-01],278,780.7662285457369
509,509,[ 5.42985621e+04  1.58924583e+03 -3.17995200e-02  5.65595637e-01],436,778.8908707712195
510,510,[ 5.42985621e+04  1.58924583e+03 -3.17995200e-02  5.65595637e-01],487,777.8535375762343
511,511,[ 5.42985621e+04  1.58924583e+03 -3.17995200e-02  5.65595637e-01],512,778.734366199538
512,512,[ 5.42985621e+04  1.58924583e+03 -3.17995200e-02  5.65595637e-01],393,779.7726667217692
513,513,[ 5.42985621e+04  1.58924583e+03 -3.17995200e-02  5.65595637e-01],53,779.4699034368058
514,514,[ 5.42985621e+04  1.58924583e+03 -3.17995200e-02  5.65595637e-01],771,776.9759834807104
515,515,[ 5.42985621e+04  1.58924583e+03 -3.17995200e-02  5.65595637e-01],277,776.1276671698412
516,516,[ 5.42985621e+04  1.58924583e+03 -3.17995200e-02  5.65595637e-01],242,779.4387684074916
517,517,[ 5.42985621e+04  1.58924583e+03 -3.17995200e-02  5.65595637e-01],474,778.4375502166192
518,518,[ 5.42985621e+04  1.58924583e+03 -3.17995200e-02  5.65595637e-01],607,780.6020295613534
519,519,[ 5.42985621e+04  1.58924583e+03 -3.17995200e-02  5.65595637e-01],149,779.9759664594383
520,520,[ 5.42985621e+04  1.58924583e+03 -3.17995200e-02  5.65595637e-01],473,779.7993669467332
521,521,[ 5.42985621e+04  1.58924583e+03 -3.17995200e-02  5.65595637e-01],479,779.0661409574932
522,522,[ 5.42985621e+04  1.58924583e+03 -3.17995200e-02  5.65595637e-01],56,778.8026097128904
523,523,[ 5.42985621e+04  1.58924583e+03 -3.17995200e-02  5.65595637e-01],754,779.4629926557126
524,524,[ 5.42985621e+04  1.58924583e+03 -3.17995200e-02  5.65595637e-01],245,778.8639712471723
525,525,[ 5.42985621e+04  1.58924583e+03 -3.17995200e-02  5.65595637e-01],407,778.6072803745427
526,526,[ 5.42985621e+04  1.58924583e+03 -3.17995200e-02  5.65595637e-01],706,777.2268571929071
527,527,[ 5.42985621e+04  1.58924583e+03 -3.17995200e-02  5.65595637e-01],94,776.2697698681973
528,528,[ 5.42985621e+04  1.58924583e+03 -3.17995200e-02  5.65595637e-01],454,777.2945361113401
529,529,[ 5.42985621e+04  1.58924583e+03 -3.17995200e-02  5.65595637e-01],296,775.1514975308934
530,530,[ 5.42985621e+04  1.58924583e+03 -3.17995200e-02  5.65595637e-01],207,775.6389679301109
531,531,[ 5.42985621e+04  1.58924583e+03 -3.17995200e-02  5.65595637e-01],323,773.7342468319272
532,532,[ 5.42985621e+04  1.58924583e+03 -3.17995200e-02  5.65595637e-01],610,776.8158107554552
533,533,[ 5.42985621e+04  1.58924583e+03 -3.17995200e-02  5.65595637e-01],152,778.6907641024034
534,534,[ 5.42985621e+04  1.58924583e+03 -3.17995200e-02  5.65595637e-01],126,777.7154066011645
535,535,[ 5.42985621e+04  1.58924583e+03 -3.17995200e-02  5.65595637e-01],567,780.3554674501918
536,536,[ 5.42985621e+04  1.58924583e+03 -3.17995200e-02  5.65595637e-01],463,780.9549216141054
537,537,[ 5.42985621e+04  1.58924583e+03 -3.17995200e-02  5.65595637e-01],464,780.1917220790727
538,538,[ 5.42985621e+04  1.58924583e+03 -3.17995200e-02  5.65595637e-01],271,779.3548665178046
539,539,[ 5.42985621e+04  1.58924583e+03 -3.17995200e-02  5.65595637e-01],344,780.3120765827686
540,540,[ 5.42985621e+04  1.58924583e+03 -3.17995200e-02  5.65595637e-01],731,779.4012819880813
541,541,[ 5.42985621e+04  1.58924583e+03 -3.17995200e-02  5.65595637e-01],357,780.7406096380514
542,542,[ 5.42985621e+04  1.58924583e+03 -3.17995200e-02  5.65595637e-01],65,780.0769254476244
543,543,[ 5.42985621e+04  1.58924583e+03 -3.17995200e-02  5.65595637e-01],171,779.5706557330411
544,544,[ 5.42985621e+04  1.58924583e+03 -3.17995200e-02  5.65595637e-01],159,780.426712691838
545,545,[ 5.42985621e+04  1.58924583e+03 -3.17995200e-02  5.65595637e-01],150,780.7726988803704
546,546,[ 5.42985621e+04  1.58924583e+03 -3.17995200e-02  5.65595637e-01],124,780.9465059650081
547,547,[ 5.42985621e+04  1.58924583e+03 -3.17995200e-02  5.65595637e-01],669,780.8764675601396
548,548,[ 5.42985621e+04  1.58924583e+03 -3.17995200e-02  5.65595637e-01],58,780.5953427094486
549,549,[ 5.42985621e+04  1.58924583e+03 -3.17995200e-02  5.65595637e-01],355,779.8792054153585
550,550,[ 5.42985621e+04  1.58924583e+03 -3.17995200e-02  5.65595637e-01],591,780.9268667282688
551,551,[ 5.42985621e+04  1.58924583e+03 -3.17995200e-02  5.65595637e-01],492,780.9758139575183
552,552,[ 5.42985621e+04  1.58924583e+03 -3.17995200e-02  5.65595637e-01],133,780.194089312848
553,553,[ 5.42985621e+04  1.58924583e+03 -3.17995200e-02  5.65595637e-01],140,780.1192765557099
554,554,[ 5.42985621e+04  1.58924583e+03 -3.17995200e-02  5.65595637e-01],228,780.9673268097541
555,555,[ 5.42985621e+04  1.58924583e+03 -3.17995200e-02  5.65595637e-01],114,780.7216327524833
556,556,[ 5.42985621e+04  1.58924583e+03 -3.17995200e-02  5.65595637e-01],250,780.5645062018017
557,557,[ 5.42985621e+04  1.58924583e+03 -3.17995200e-02  5.65595637e-01],84,780.6831610089056
558,558,[ 5.42985621e+04  1.58924583e+03 -3.17995200e-02  5.65595637e-01],96,780.8766076468355
559,559,[ 5.42985621e+04  1.58924583e+03 -3.17995200e-02  5.65595637e-01],573,780.2667443623093
560,560,[ 5.42985621e+04  1.58924583e+03 -3.17995200e-02  5.65595637e-01],661,780.5816706834194
561,561,[ 5.42985621e+04  1.58924583e+03 -3.17995200e-02  5.65595637e-01],129,780.7603574702808
562,562,[ 5.42985621e+04  1.58924583e+03 -3.17995200e-02  5.65595637e-01],689,780.6242960659712
563,563,[ 5.42985621e+04  1.58924583e+03 -3.17995200e-02  5.65595637e-01],92,780.303180529382
564,564,[ 5.42985621e+04  1.58924583e+03 -3.17995200e-02  5.65595637e-01],543,780.7209918108161
565,565,[ 5.42985621e+04  1.58924583e+03 -3.17995200e-02  5.65595637e-01],505,780.2962221076941
566,566,[ 5.42985621e+04  1.58924583e+03 -3.17995200e-02  5.65595637e-01],372,781.0025708009716
567,567,[ 5.42985621e+04  1.58924583e+03 -3.17995200e-02  5.65595637e-01],206,779.7163170443473
568,568,[ 5.42985621e+04  1.58924583e+03 -3.17995200e-02  5.65595637e-01],371,780.7106355796408
569,569,[ 5.42985621e+04  1.58924583e+03 -3.17995200e-02  5.65595637e-01],637,780.5463182568561
570,570,[ 5.42985621e+04  1.58924583e+03 -3.17995200e-02  5.65595637e-01],253,780.996674673669
571,571,[ 5.42985621e+04  1.58924583e+03 -3.17995200e-02  5.65595637e-01],721,779.956030058212
572,572,[ 5.42985621e+04  1.58924583e+03 -3.17995200e-02  5.65595637e-01],336,780.9395593514059
573,573,[ 5.42985621e+04  1.58924583e+03 -3.17995200e-02  5.65595637e-01],715,779.607365273538
574,574,[ 5.42985621e+04  1.58924583e+03 -3.17995200e-02  5.65595637e-01],144,780.6787991431052
575,575,[ 5.42985621e+04  1.58924583e+03 -3.17995200e-02  5.65595637e-01],601,780.5813006655671
576,576,[ 5.42985621e+04  1.58924583e+03 -3.17995200e-02  5.65595637e-01],158,780.5843154879593
577,577,[ 5.42985621e+04  1.58924583e+03 -3.17995200e-02  5.65595637e-01],640,779.9844953330859
578,578,[ 5.42985621e+04  1.58924583e+03 -3.17995200e-02  5.65595637e-01],484,781.0555144693097
579,579,[ 5.42985621e+04  1.58924583e+03 -3.17995200e-02  5.65595637e-01],270,781.1353908225637
580,580,[ 5.42985621e+04  1.58924583e+03 -3.17995200e-02  5.65595637e-01],422,780.3012887239311
581,581,[ 5.42985621e+04  1.58924583e+03 -3.17995200e-02  5.65595637e-01],137,780.034423702728
582,582,[ 5.42985621e+04  1.58924583e+03 -3.17995200e-02  5.65595637e-01],673,780.8697178494626
583,583,[ 5.42985621e+04  1.58924583e+03 -3.17995200e-02  5.65595637e-01],42,780.7721509948339
584,584,[ 5.42985621e+04  1.58924583e+03 -3.17995200e-02  5.65595637e-01],654,780.3599117335514
585,585,[ 5.42985621e+04  1.58924583e+03 -3.17995200e-02  5.65595637e-01],362,780.6708662557955
586,586,[ 5.42985621e+04  1.58924583e+03 -3.17995200e-02  5.65595637e-01],27,779.8663197685484
587,587,[ 5.42985621e+04  1.58924583e+03 -3.17995200e-02  5.65595637e-01],37,780.1211813600528
588,588,[ 5.42985621e+04  1.58924583e+03 -3.17995200e-02  5.65595637e-01],62,780.525070762371
589,589,[ 5.42985621e+04  1.58924583e+03 -3.17995200e-02  5.65595637e-01],334,780.1861213584159
590,590,[ 5.42985621e+04  1.58924583e+03 -3.17995200e-02  5.65595637e-01],513,779.972470789699
591,591,[ 5.42985621e+04  1.58924583e+03 -3.17995200e-02  5.65595637e-01],523,779.6504157079573
592,592,[ 5.42985621e+04  1.58924583e+03 -3.17995200e-02  5.65595637e-01],142,780.2952721535326
593,593,[ 5.42985621e+04  1.58924583e+03 -3.17995200e-02  5.65595637e-01],406,780.2528769369661
594,594,[ 5.42985621e+04  1.58924583e+03 -3.17995200e-02  5.65595637e-01],725,779.2687370470286
595,595,[ 5.42985621e+04  1.58924583e+03 -3.17995200e-02  5.65595637e-01],516,779.9055211959624
596,596,[ 5.42985621e+04  1.58924583e+03 -3.17995200e-02  5.65595637e-01],693,780.1327870648532
597,597,[ 5.42985621e+04  1.58924583e+03 -3.17995200e-02  5.65595637e-01],261,780.7882851970961
598,598,[ 5.42985621e+04  1.58924583e+03 -3.17995200e-02  5.65595637e-01],30,780.0539202380753
599,599,[ 5.42985621e+04  1.58924583e+03 -3.17995200e-02  5.65595637e-01],26,780.2938864761733
600,600,[ 5.42985621e+04  1.58924583e+03 -3.17995200e-02  5.65595637e-01],116,779.8256102257362
601,601,[ 5.42985621e+04  1.58924583e+03 -3.17995200e-02  5.65595637e-01],199,779.5168065826041
602,602,[ 5.42985621e+04  1.58924583e+03 -3.17995200e-02  5.65595637e-01],63,780.4389005006688
603,603,[ 5.42985621e+04  1.58924583e+03 -3.17995200e-02  5.65595637e-01],310,780.3166008563271
604,604,[ 5.42985621e+04  1.58924583e+03 -3.17995200e-02  5.65595637e-01],540,780.5979449408957
605,605,[ 5.42985621e+04  1.58924583e+03 -3.17995200e-02  5.65595637e-01],477,780.3871844646583
606,606,[ 5.42985621e+04  1.58924583e+03 -3.17995200e-02  5.65595637e-01],112,780.1220711364991
607,607,[ 5.42985621e+04  1.58924583e+03 -3.17995200e-02  5.65595637e-01],427,779.7600048788133
608,608,[ 5.42985621e+04  1.58924583e+03 -3.17995200e-02  5.65595637e-01],107,780.1848013544652
609,609,[ 5.42985621e+04  1.58924583e+03 -3.17995200e-02  5.65595637e-01],64,780.456934974428
610,610,[ 5.42985621e+04  1.58924583e+03 -3.17995200e-02  5.65595637e-01],145,779.7188534383298
611,611,[ 5.42985621e+04  1.58924583e+03 -3.17995200e-02  5.65595637e-01],718,780.0610023191076
612,612,[ 5.42985621e+04  1.58924583e+03 -3.17995200e-02  5.65595637e-01],138,780.6760058081837
613,613,[ 5.42985621e+04  1.58924583e+03 -3.17995200e-02  5.65595637e-01],538,780.8147729047802
614,614,[ 5.42985621e+04  1.58924583e+03 -3.17995200e-02  5.65595637e-01],275,781.0338762151052
615,615,[ 5.42985621e+04  1.58924583e+03 -3.17995200e-02  5.65595637e-01],217,780.0346265070909
616,616,[ 5.42985621e+04  1.58924583e+03 -3.17995200e-02  5.65595637e-01],54,780.4553806217492
617,617,[ 5.42985621e+04  1.58924583e+03 -3.17995200e-02  5.65595637e-01],39,780.6241339048153
618,618,[ 5.42985621e+04  1.58924583e+03 -3.17995200e-02  5.65595637e-01],99,780.2478053399569
619,619,[ 5.42985621e+04  1.58924583e+03 -3.17995200e-02  5.65595637e-01],13,779.9958942401694
620,620,[ 5.42985621e+04  1.58924583e+03 -3.17995200e-02  5.65595637e-01],196,780.5185376040563
621,621,[ 5.42985621e+04  1.58924583e+03 -3.17995200e-02  5.65595637e-01],105,779.8702746525047
622,622,[ 5.42985621e+04  1.58924583e+03 -3.17995200e-02  5.65595637e-01],130,780.3556881739265
623,623,[ 5.42985621e+04  1.58924583e+03 -3.17995200e-02  5.65595637e-01],161,780.548847191939
624,624,[ 5.42985621e+04  1.58924583e+03 -3.17995200e-02  5.65595637e-01],204,780.9790783313513
625,625,[ 5.42985621e+04  1.58924583e+03 -3.17995200e-02  5.65595637e-01],644,780.7627300520141
626,626,[ 5.42985621e+04  1.58924583e+03 -3.17995200e-02  5.65595637e-01],629,778.739712991074
627,627,[ 5.42985621e+04  1.58924583e+03 -3.17995200e-02  5.65595637e-01],16,780.685715697974
628,628,[ 5.42985621e+04  1.58924583e+03 -3.17995200e-02  5.65595637e-01],57,780.5507565247627
629,629,[ 5.42985621e+04  1.58924583e+03 -3.17995200e-02  5.65595637e-01],685,779.294147968303
630,630,[ 5.42985621e+04  1.58924583e+03 -3.17995200e-02  5.65595637e-01],594,780.6064067347762
631,631,[ 5.42985621e+04  1.58924583e+03 -3.17995200e-02  5.65595637e-01],226,781.0076765983583
632,632,[ 5.42985621e+04  1.58924583e+03 -3.17995200e-02  5.65595637e-01],486,780.6379541668347
633,633,[ 5.42985621e+04  1.58924583e+03 -3.17995200e-02  5.65595637e-01],176,780.4925793088544
634,634,[ 5.42985621e+04  1.58924583e+03 -3.17995200e-02  5.65595637e-01],485,780.4516914541925
635,635,[ 5.42985621e+04  1.58924583e+03 -3.17995200e-02  5.65595637e-01],103,780.3431451500217
636,636,[ 5.42985621e+04  1.58924583e+03 -3.17995200e-02  5.65595637e-01],31,780.4963371596172
637,637,[ 5.42985621e+04  1.58924583e+03 -3.17995200e-02  5.65595637e-01],741,779.5346866347976
638,638,[ 5.42985621e+04  1.58924583e+03 -3.17995200e-02  5.65595637e-01],763,780.8503597809098
639,639,[ 5.42985621e+04  1.58924583e+03 -3.17995200e-02  5.65595637e-01],11,780.8399980655361
640,640,[ 5.42985621e+04  1.58924583e+03 -3.17995200e-02  5.65595637e-01],435,779.5109363200979
641,641,[ 5.42985621e+04  1.58924583e+03 -3.17995200e-02  5.65595637e-01],290,780.3350434754057
642,642,[ 5.42985621e+04  1.58924583e+03 -3.17995200e-02  5.65595637e-01],447,780.7395392131981
643,643,[ 5.42985621e+04  1.58924583e+03 -3.17995200e-02  5.65595637e-01],191,780.4520158035035
644,644,[ 5.42985621e+04  1.58924583e+03 -3.17995200e-02  5.65595637e-01],59,779.2968695033409
645,645,[ 5.42985621e+04  1.58924583e+03 -3.17995200e-02  5.65595637e-01],125,778.8280678867078
646,646,[ 5.42985621e+04  1.58924583e+03 -3.17995200e-02  5.65595637e-01],712,780.0250579316144
647,647,[ 5.42985621e+04  1.58924583e+03 -3.17995200e-02  5.65595637e-01],774,780.1723312801984
648,648,[ 5.42985621e+04  1.58924583e+03 -3.17995200e-02  5.65595637e-01],50,779.0972363851763
649,649,[ 5.42985621e+04  1.58924583e+03 -3.17995200e-02  5.65595637e-01],475,780.3393552142101
650,650,[ 5.42985621e+04  1.58924583e+03 -3.17995200e-02  5.65595637e-01],746,780.5959615412347
651,651,[ 5.42985621e+04  1.58924583e+03 -3.17995200e-02  5.65595637e-01],44,780.5806633466154
652,652,[ 5.42985621e+04  1.58924583e+03 -3.17995200e-02  5.65595637e-01],212,780.8516352997316
653,653,[ 5.42985621e+04  1.58924583e+03 -3.17995200e-02  5.65595637e-01],70,779.8761558781068
654,654,[ 5.42985621e+04  1.58924583e+03 -3.17995200e-02  5.65595637e-01],6,779.4892302092403
655,655,[ 5.42985621e+04  1.58924583e+03 -3.17995200e-02  5.65595637e-01],21,780.7319631083919
656,656,[ 5.42985621e+04  1.58924583e+03 -3.17995200e-02  5.65595637e-01],147,780.1982515618694
657,657,[ 5.42985621e+04  1.58924583e+03 -3.17995200e-02  5.65595637e-01],38,780.2981562922489
658,658,[ 5.42985621e+04  1.58924583e+03 -3.17995200e-02  5.65595637e-01],369,780.0665545212084
659,659,[ 5.42985621e+04  1.58924583e+03 -3.17995200e-02  5.65595637e-01],49,780.2508771598943
660,660,[ 5.42985621e+04  1.58924583e+03 -3.17995200e-02  5.65595637e-01],301,780.5087852663913
661,661,[ 5.42985621e+04  1.58924583e+03 -3.17995200e-02  5.65595637e-01],33,779.6008325609508
662,662,[ 5.42985621e+04  1.58924583e+03 -3.17995200e-02  5.65595637e-01],19,780.7484177884091
663,663,[ 5.42985621e+04  1.58924583e+03 -3.17995200e-02  5.65595637e-01],225,780.0101019966297
664,664,[ 5.42985621e+04  1.58924583e+03 -3.17995200e-02  5.65595637e-01],190,780.1703373061172
665,665,[ 5.42985621e+04  1.58924583e+03 -3.17995200e-02  5.65595637e-01],648,780.6218106132033
666,666,[ 5.42985621e+04  1.58924583e+03 -3.17995200e-02  5.65595637e-01],239,780.7190757886486
667,667,[ 5.42985621e+04  1.58924583e+03 -3.17995200e-02  5.65595637e-01],86,780.1464685884981
668,668,[ 5.42985621e+04  1.58924583e+03 -3.17995200e-02  5.65595637e-01],77,780.2845872499688
669,669,[ 5.42985621e+04  1.58924583e+03 -3.17995200e-02  5.65595637e-01],694,779.6656108264635
670,670,[ 5.42985621e+04  1.58924583e+03 -3.17995200e-02  5.65595637e-01],376,780.1390425480918
671,671,[ 5.42985621e+04  1.58924583e+03 -3.17995200e-02  5.65595637e-01],215,780.9278659557888
672,672,[ 5.42985621e+04  1.58924583e+03 -3.17995200e-02  5.65595637e-01],521,780.5415797862526
673,673,[ 5.42985621e+04  1.58924583e+03 -3.17995200e-02  5.65595637e-01],127,779.4960950192469
674,674,[ 5.42985621e+04  1.58924583e+03 -3.17995200e-02  5.65595637e-01],726,780.9101340122668
675,675,[ 5.42985621e+04  1.58924583e+03 -3.17995200e-02  5.65595637e-01],46,780.363645908325
676,676,[ 5.42985621e+04  1.58924583e+03 -3.17995200e-02  5.65595637e-01],28,780.4401861980797
677,677,[ 5.42985621e+04  1.58924583e+03 -3.17995200e-02  5.65595637e-01],264,780.4717406317111
678,678,[ 5.42985621e+04  1.58924583e+03 -3.17995200e-02  5.65595637e-01],36,780.1224025320629
679,679,[ 5.42985621e+04  1.58924583e+03 -3.17995200e-02  5.65595637e-01],132,780.366113375449
680,680,[ 5.42985621e+04  1.58924583e+03 -3.17995200e-02  5.65595637e-01],61,780.3399024715128
681,681,[ 5.42985621e+04  1.58924583e+03 -3.17995200e-02  5.65595637e-01],17,780.8435935406565
682,682,[ 5.42985621e+04  1.58924583e+03 -3.17995200e-02  5.65595637e-01],341,780.2896608511373
683,683,[ 5.42985621e+04  1.58924583e+03 -3.17995200e-02  5.65595637e-01],25,780.0582216364566
684,684,[ 5.42985621e+04  1.58924583e+03 -3.17995200e-02  5.65595637e-01],52,780.7280543581255
685,685,[ 5.42985621e+04  1.58924583e+03 -3.17995200e-02  5.65595637e-01],164,779.2764657613717
686,686,[ 5.42985621e+04  1.58924583e+03 -3.17995200e-02  5.65595637e-01],773,780.8171737011593
687,687,[ 5.42985621e+04  1.58924583e+03 -3.17995200e-02  5.65595637e-01],282,779.9580568658475
688,688,[ 5.42985621e+04  1.58924583e+03 -3.17995200e-02  5.65595637e-01],258,779.9530749208983
689,689,[ 5.42985621e+04  1.58924583e+03 -3.17995200e-02  5.65595637e-01],173,779.5925787545995
690,690,[ 5.42985621e+04  1.58924583e+03 -3.17995200e-02  5.65595637e-01],256,779.935295381173
691,691,[ 5.42985621e+04  1.58924583e+03 -3.17995200e-02  5.65595637e-01],509,780.4493899454006
692,692,[ 5.42985621e+04  1.58924583e+03 -3.17995200e-02  5.65595637e-01],252,780.1360260855503
693,693,[ 5.42985621e+04  1.58924583e+03 -3.17995200e-02  5.65595637e-01],185,779.4342745683161
694,694,[ 5.42985621e+04  1.58924583e+03 -3.17995200e-02  5.65595637e-01],41,779.0899229274137
695,695,[ 5.42985621e+04  1.58924583e+03 -3.17995200e-02  5.65595637e-01],524,781.0312134565718
696,696,[ 5.42985621e+04  1.58924583e+03 -3.17995200e-02  5.65595637e-01],645,780.3651206572405
697,697,[ 5.42985621e+04  1.58924583e+03 -3.17995200e-02  5.65595637e-01],259,780.5845083830018
698,698,[ 5.42985621e+04  1.58924583e+03 -3.17995200e-02  5.65595637e-01],460,777.5459464860859
699,699,[ 5.42985621e+04  1.58924583e+03 -3.17995200e-02  5.65595637e-01],438,776.7966339067464
700,700,[ 5.42985621e+04  1.58924583e+03 -3.17995200e-02  5.65595637e-01],522,780.2317924475409
701,701,[ 5.42985621e+04  1.58924583e+03 -3.17995200e-02  5.65595637e-01],170,780.118320767186
702,702,[ 5.42985621e+04  1.58924583e+03 -3.17995200e-02  5.65595637e-01],441,780.107909510899
703,703,[ 5.42985621e+04  1.58924583e+03 -3.17995200e-02  5.65595637e-01],1,779.9132831164825
704,704,[ 5.42985621e+04  1.58924583e+03 -3.17995200e-02  5.65595637e-01],493,780.4967385607619
705,705,[ 5.42985621e+04  1.58924583e+03 -3.17995200e-02  5.65595637e-01],193,780.4652153341252
706,706,[ 5.42985621e+04  1.58924583e+03 -3.17995200e-02  5.65595637e-01],74,779.7472924784939
707,707,[ 5.42985621e+04  1.58924583e+03 -3.17995200e-02  5.65595637e-01],9,779.9357040575247
708,708,[ 5.42985621e+04  1.58924583e+03 -3.17995200e-02  5.65595637e-01],115,780.0933234089918
709,709,[ 5.42985621e+04  1.58924583e+03 -3.17995200e-02  5.65595637e-01],626,779.9731531010099
710,710,[ 5.42985621e+04  1.58924583e+03 -3.17995200e-02  5.65595637e-01],32,779.9528305878291
711,711,[ 5.42985621e+04  1.58924583e+03 -3.17995200e-02  5.65595637e-01],511,780.9173726168183
712,712,[ 5.42985621e+04  1.58924583e+03 -3.17995200e-02  5.65595637e-01],45,779.1962532748447
713,713,[ 5.42985621e+04  1.58924583e+03 -3.17995200e-02  5.65595637e-01],533,780.1785528183428
714,714,[ 5.42985621e+04  1.58924583e+03 -3.17995200e-02  5.65595637e-01],231,780.3783700429686
715,715,[ 5.42985621e+04  1.58924583e+03 -3.17995200e-02  5.65595637e-01],34,779.5264044867127
716,716,[ 5.42985621e+04  1.58924583e+03 -3.17995200e-02  5.65595637e-01],430,780.830539177983
717,717,[ 5.42985621e+04  1.58924583e+03 -3.17995200e-02  5.65595637e-01],24,780.8237527750523
718,718,[ 5.42985621e+04  1.58924583e+03 -3.17995200e-02  5.65595637e-01],187,779.361763732956
719,719,[ 5.42985621e+04  1.58924583e+03 -3.17995200e-02  5.65595637e-01],5,780.0106900923903
720,720,[ 5.42985621e+04  1.58924583e+03 -3.17995200e-02  5.65595637e-01],3,780.6576162548797
721,721,[ 5.42985621e+04  1.58924583e+03 -3.17995200e-02  5.65595637e-01],182,779.533862958547
722,722,[ 5.42985621e+04  1.58924583e+03 -3.17995200e-02  5.65595637e-01],525,780.3157050344546
723,723,[ 5.42985621e+04  1.58924583e+03 -3.17995200e-02  5.65595637e-01],85,779.8952978728206
724,724,[ 5.42985621e+04  1.58924583e+03 -3.17995200e-02  5.65595637e-01],433,776.9807193318193
725,725,[ 5.42985621e+04  1.58924583e+03 -3.17995200e-02  5.65595637e-01],22,779.4410760862518
726,726,[ 5.42985621e+04  1.58924583e+03 -3.17995200e-02  5.65595637e-01],156,779.0453651021052
727,727,[ 5.42985621e+04  1.58924583e+03 -3.17995200e-02  5.65595637e-01],18,777.3905393553924
728,728,[ 5.42985621e+04  1.58924583e+03 -3.17995200e-02  5.65595637e-01],135,778.349546923395
729,729,[ 5.42985621e+04  1.58924583e+03 -3.17995200e-02  5.65595637e-01],47,780.0341111888864
730,730,[ 5.42985621e+04  1.58924583e+03 -3.17995200e-02  5.65595637e-01],287,777.4231646281612
731,731,[ 5.42985621e+04  1.58924583e+03 -3.17995200e-02  5.65595637e-01],517,779.6931903077598
732,732,[ 5.42985621e+04  1.58924583e+03 -3.17995200e-02  5.65595637e-01],72,780.8628463520396
733,733,[ 5.42985621e+04  1.58924583e+03 -3.17995200e-02  5.65595637e-01],490,779.8950112325663
734,734,[ 5.42985621e+04  1.58924583e+03 -3.17995200e-02  5.65595637e-01],728,780.7504582684119
735,735,[ 5.42985621e+04  1.58924583e+03 -3.17995200e-02  5.65595637e-01],375,780.3407037652036
736,736,[ 5.42985621e+04  1.58924583e+03 -3.17995200e-02  5.65595637e-01],93,779.8381420898894
737,737,[ 5.42985621e+04  1.58924583e+03 -3.17995200e-02  5.65595637e-01],184,780.0519346064048
738,738,[ 5.42985621e+04  1.58924583e+03 -3.17995200e-02  5.65595637e-01],20,780.0127325147829
739,739,[ 5.42985621e+04  1.58924583e+03 -3.17995200e-02  5.65595637e-01],76,780.4556774452824
740,740,[ 5.42985621e+04  1.58924583e+03 -3.17995200e-02  5.65595637e-01],8,780.7983176464778
741,741,[ 5.42985621e+04  1.58924583e+03 -3.17995200e-02  5.65595637e-01],14,779.2205099777655
742,742,[ 5.42985621e+04  1.58924583e+03 -3.17995200e-02  5.65595637e-01],273,780.3563277992032
743,743,[ 5.42985621e+04  1.58924583e+03 -3.17995200e-02  5.65595637e-01],2,780.175401868214
744,744,[ 5.42985621e+04  1.58924583e+03 -3.17995200e-02  5.65595637e-01],23,780.4819036496597
745,745,[ 5.42985621e+04  1.58924583e+03 -3.17995200e-02  5.65595637e-01],35,780.0332978943918
746,746,[ 5.42985621e+04  1.58924583e+03 -3.17995200e-02  5.65595637e-01],15,779.1791845043753
747,747,[ 5.42985621e+04  1.58924583e+03 -3.17995200e-02  5.65595637e-01],66,780.7730372261708
748,748,[ 5.42985621e+04  1.58924583e+03 -3.17995200e-02  5.65595637e-01],73,780.2548914070969
749,749,[ 5.42985621e+04  1.58924583e+03 -3.17995200e-02  5.65595637e-01],79,780.3620616952606
750,750,[ 5.42985621e+04  1.58924583e+03 -3.17995200e-02  5.65595637e-01],510,780.7673228501889
751,751,[ 5.42985621e+04  1.58924583e+03 -3.17995200e-02  5.65595637e-01],29,780.5205270890806
752,752,[ 5.42985621e+04  1.58924583e+03 -3.17995200e-02  5.65595637e-01],167,780.4576711479157
753,753,[ 5.42985621e+04  1.58924583e+03 -3.17995200e-02  5.65595637e-01],12,780.2468070021166
754,754,[ 5.42985621e+04  1.58924583e+03 -3.17995200e-02  5.65595637e-01],534,779.7498443816822
755,755,[ 5.42985621e+04  1.58924583e+03 -3.17995200e-02  5.65595637e-01],265,780.6165249055325
756,756,[ 5.42985621e+04  1.58924583e+03 -3.17995200e-02  5.65595637e-01],0,780.1564027287843
757,757,[ 5.42985621e+04  1.58924583e+03 -3.17995200e-02  5.65595637e-01],55,780.7247007531147
758,758,[ 5.42985621e+04  1.58924583e+03 -3.17995200e-02  5.65595637e-01],82,780.0323756801636
759,759,[ 5.42985621e+04  1.58924583e+03 -3.17995200e-02  5.65595637e-01],223,780.0231794531279
760,760,[ 5.42985621e+04  1.58924583e+03 -3.17995200e-02  5.65595637e-01],698,780.6275445356589
761,761,[ 5.42985621e+04  1.58924583e+03 -3.17995200e-02  5.65595637e-01],730,780.9257020909806
762,762,[ 5.42985621e+04  1.58924583e+03 -3.17995200e-02  5.65595637e-01],7,780.3055562105635
763,763,[ 5.42985621e+04  1.58924583e+03 -3.17995200e-02  5.65595637e-01],727,779.218348680862
764,764,[ 5.42985621e+04  1.58924583e+03 -3.17995200e-02  5.65595637e-01],528,780.929994745057
765,765,[ 5.42985621e+04  1.58924583e+03 -3.17995200e-02  5.65595637e-01],10,780.6139992772096
766,766,[ 5.42985621e+04  1.58924583e+03 -3.17995200e-02  5.65595637e-01],526,780.8257830236606
767,767,[ 5.42985621e+04  1.58924583e+03 -3.17995200e-02  5.65595637e-01],279,780.0352647479007
768,768,[ 5.42985621e+04  1.58924583e+03 -3.17995200e-02  5.65595637e-01],724,780.7003702043876
769,769,[ 5.42985621e+04  1.58924583e+03 -3.17995200e-02  5.65595637e-01],514,780.3778828032428
770,770,[ 5.42985621e+04  1.58924583e+03 -3.17995200e-02  5.65595637e-01],69,780.4385769546786
771,771,[ 5.42985621e+04  1.58924583e+03 -3.17995200e-02  5.65595637e-01],532,779.7693972273055
772,772,[ 5.42985621e+04  1.58924583e+03 -3.17995200e-02  5.65595637e-01],699,781.1086042304506
773,773,[ 5.42985621e+04  1.58924583e+03 -3.17995200e-02  5.65595637e-01],262,778.9413071051439
774,774,[ 5.42985621e+04  1.58924583e+03 -3.17995200e-02  5.65595637e-01],4,779.196031785712
775,775,[ 5.42985621e+04  1.58924583e+03 -3.17995200e-02  5.65595637e-01],276,780.872401183935
776,776,[ 5.42985621e+04  1.58924583e+03 -3.17995200e-02  5.65595637e-01],527,780.8788933562055
777,777,[ 5.42985621e+04  1.58924583e+03 -3.17995200e-02  5.65595637e-01],302,780.484273890538
778,778,[ 5.42985621e+04  1.58924583e+03 -3.17995200e-02  5.65595637e-01],515,779.9257270235104
779,779,[ 5.42985621e+04  1.58924583e+03 -3.17995200e-02  5.65595637e-01],71,779.9521423479849
780,780,[ 5.42985621e+04  1.58924583e+03 -3.17995200e-02  5.65595637e-01],530,780.5059413957003
781,781,[ 5.42985621e+04  1.58924583e+03 -3.17995200e-02  5.65595637e-01],529,780.0810769571336
782,782,[ 5.42985621e+04  1.58924583e+03 -3.17995200e-02  5.65595637e-01],531,780.7554290261486
