,0,1,2,3
0,0,[-4.92553559e+03  3.31368306e+02 -6.70592365e-03 -1.31641694e+07],902,1218.8813064868673
1,1,[-4.96813022e+03  3.31368389e+02 -6.83530611e-03 -1.31641694e+07],815,1218.741691690354
2,2,[-5.33168958e+03  3.31368408e+02 -6.32735773e-03 -1.31641694e+07],837,1219.7814579455744
3,3,[-4.81506409e+03  3.31368338e+02 -6.03904875e-03 -1.31641694e+07],697,1220.7394310533284
4,4,[-5.27342938e+03  3.30367145e+02 -6.95506695e-03 -1.31641694e+07],903,1219.5582823993145
5,5,[-5.66053827e+03  3.31368197e+02 -6.82421254e-03 -1.31641694e+07],654,1220.312225431584
6,6,[-5.56415664e+03  3.30367223e+02 -7.09559650e-03 -1.31641694e+07],926,1223.2856799461424
7,7,[-6.60483929e+03  3.29365985e+02 -9.49342979e-03 -1.31641694e+07],720,1222.7892855394778
8,8,[-6.23543647e+03  3.31368260e+02 -7.79799458e-03 -1.31641694e+07],46,1218.7165935931205
9,9,[-5.59138436e+03  3.30367108e+02 -6.67809687e-03 -1.31641694e+07],1051,1217.7511651145069
10,10,[-6.25224640e+03  3.31368193e+02 -8.05815863e-03 -1.31641694e+07],27,1220.643370302216
11,11,[-6.03833146e+03  3.32369366e+02 -8.21552781e-03 -1.31641694e+07],938,1222.4954423470597
12,12,[-6.89820440e+03  3.30367103e+02 -8.28274726e-03 -1.31641694e+07],165,1221.5557188803614
13,13,[-4.92537976e+03  3.31368345e+02 -5.65990103e-03 -1.31641694e+07],814,1216.3132530962762
14,14,[-5.58401775e+03  3.32369421e+02 -7.86341186e-03 -1.31641694e+07],967,1221.1725199858165
15,15,[-5.31502234e+03  3.30367134e+02 -7.39246468e-03 -1.31641694e+07],221,1219.0519483243202
16,16,[-6.64957543e+03  3.31368215e+02 -7.05313058e-03 -1.31641694e+07],181,1217.2693080467313
17,17,[-6.44692890e+03  3.30367114e+02 -8.51738641e-03 -1.31641694e+07],401,1223.7708061211276
18,18,[-6.01176382e+03  3.32369535e+02 -8.23548657e-03 -1.31641694e+07],454,1222.382996122348
19,19,[-6.15357592e+03  3.32369347e+02 -7.11212544e-03 -1.31641694e+07],53,1217.3302682469687
20,20,[-5.56621495e+03  3.30367169e+02 -6.70348363e-03 -1.31641694e+07],88,1219.16961430217
21,21,[-5.40122735e+03  3.30367178e+02 -7.35717379e-03 -1.31641694e+07],821,1221.7424297003647
22,22,[-6.53660490e+03  3.30367107e+02 -7.92039580e-03 -1.31641694e+07],1049,1222.1812449064453
23,23,[-4.83625472e+03  3.32369303e+02 -5.88969147e-03 -1.31641694e+07],966,1221.6063097845386
24,24,[-4.93181966e+03  3.31368440e+02 -6.56841399e-03 -1.31641694e+07],219,1220.2493368162627
25,25,[-6.43522321e+03  3.29366063e+02 -8.78260951e-03 -1.31641694e+07],549,1220.440373364756
26,26,[-5.24204886e+03  3.31368201e+02 -6.14769225e-03 -1.31641694e+07],899,1219.7138765953487
27,27,[-7.05989097e+03  3.29365973e+02 -1.00684040e-02 -1.31641694e+07],923,1225.0675483560663
28,28,[-6.00442655e+03  3.32369465e+02 -8.12399700e-03 -1.31641694e+07],97,1220.754158391118
29,29,[-5.87541104e+03  3.30367169e+02 -6.82201980e-03 -1.31641694e+07],354,1220.668906982262
30,30,[-4.59368355e+03  3.32369364e+02 -5.79680140e-03 -1.31641694e+07],778,1223.3735853753415
31,31,[-6.04805208e+03  3.29365966e+02 -8.65435565e-03 -1.31641694e+07],855,1221.2610984692637
32,32,[-6.70116353e+03  3.31368212e+02 -7.48914425e-03 -1.31641694e+07],1080,1215.1794489808906
33,33,[-5.46999725e+03  3.32369337e+02 -5.85842820e-03 -1.31641694e+07],436,1223.0970690952413
34,34,[-5.37937996e+03  3.30367078e+02 -7.38170077e-03 -1.31641694e+07],342,1218.752373671705
35,35,[-6.99485325e+03  3.31368287e+02 -7.49715833e-03 -1.31641694e+07],104,1217.1568438434103
36,36,[-6.58958612e+03  3.29365992e+02 -7.98495169e-03 -1.31641694e+07],355,1220.4503665086481
37,37,[-6.15128982e+03  3.31368213e+02 -7.92649236e-03 -1.31641694e+07],901,1217.1018434526623
38,38,[-5.34783601e+03  3.31368382e+02 -7.34506698e-03 -1.31641694e+07],927,1220.946680151853
39,39,[-6.48688268e+03  3.31368222e+02 -7.23860091e-03 -1.31641694e+07],550,1221.5512095482302
40,40,[-4.95029383e+03  3.32369466e+02 -6.18518178e-03 -1.31641694e+07],1156,1223.7523598789076
41,41,[-6.52583374e+03  3.29366009e+02 -8.02658003e-03 -1.31641694e+07],538,1220.244890029815
42,42,[-5.19508215e+03  3.31368316e+02 -6.19868449e-03 -1.31641694e+07],628,1222.6064955725722
43,43,[-6.33015380e+03  3.31368211e+02 -8.58999368e-03 -1.31641694e+07],176,1220.7599633367763
44,44,[-6.31419602e+03  3.29366110e+02 -8.50804446e-03 -1.31641694e+07],852,1217.5422452417088
45,45,[-8.27875656e+03  3.30367128e+02 -8.94307691e-03 -1.31641694e+07],611,1217.2680213254685
46,46,[-6.72347895e+03  3.29366114e+02 -1.02431424e-02 -1.31641694e+07],465,1225.156014598376
47,47,[-6.23422124e+03  3.31368213e+02 -8.05030237e-03 -1.31641694e+07],482,1223.4064872726335
48,48,[-4.73053998e+03  3.31368218e+02 -5.70698948e-03 -1.31641694e+07],184,1216.9196066995255
49,49,[-6.43993069e+03  3.29365992e+02 -8.37602417e-03 -1.31641694e+07],959,1222.9611149354598
50,50,[-6.64968190e+03  3.28364868e+02 -9.77489483e-03 -1.31641694e+07],816,1217.743516624294
51,51,[-6.67485785e+03  3.31368194e+02 -7.38702907e-03 -1.31641694e+07],434,1217.8675335778305
52,52,[-6.53404714e+03  3.29366043e+02 -8.06394289e-03 -1.31641694e+07],381,1221.074719693166
53,53,[-5.01807921e+03  3.31368457e+02 -7.13755443e-03 -1.31641694e+07],448,1224.9349637767134
54,54,[-4.22810440e+03  3.33370669e+02 -4.40068969e-03 -1.31641694e+07],213,1217.4362326875962
55,55,[-5.08052229e+03  3.31368249e+02 -5.69686415e-03 -1.31641694e+07],698,1220.683002332977
56,56,[-5.44821704e+03  3.30367095e+02 -7.57498832e-03 -1.31641694e+07],1152,1216.5578883778426
57,57,[-5.51962233e+03  3.32369375e+02 -5.81298095e-03 -1.31641694e+07],182,1218.8235445347104
58,58,[-6.75528289e+03  3.29365991e+02 -9.39483922e-03 -1.31641694e+07],427,1223.0994401139149
59,59,[-5.71038120e+03  3.30367113e+02 -7.52491021e-03 -1.31641694e+07],943,1217.5465258623537
60,60,[-6.19893579e+03  3.32369326e+02 -7.11285453e-03 -1.31641694e+07],254,1214.6476069657592
61,61,[-6.56644659e+03  3.29366028e+02 -8.85773943e-03 -1.31641694e+07],1120,1220.861722799827
62,62,[-6.03579399e+03  3.31368194e+02 -7.68297414e-03 -1.31641694e+07],995,1216.0878488229637
63,63,[-7.39182311e+03  3.28364882e+02 -9.54606139e-03 -1.31641694e+07],185,1214.9532231893172
64,64,[-6.04547399e+03  3.32369316e+02 -7.07393600e-03 -1.31641694e+07],1050,1220.9819225417807
65,65,[-6.10330839e+03  3.29365973e+02 -9.05246312e-03 -1.31641694e+07],278,1222.4993786794785
66,66,[-5.01984082e+03  3.31368195e+02 -5.62705316e-03 -1.31641694e+07],996,1216.1709539454926
67,67,[-5.09458379e+03  3.31368191e+02 -6.14832259e-03 -1.31641694e+07],644,1221.96148935409
68,68,[-6.20303382e+03  3.30367098e+02 -8.10968408e-03 -1.31641694e+07],705,1222.727694408756
69,69,[-6.47293065e+03  3.31368200e+02 -7.36532547e-03 -1.31641694e+07],227,1216.7433984242664
70,70,[-5.13188595e+03  3.31368228e+02 -5.51393187e-03 -1.31641694e+07],301,1218.7793493582674
71,71,[-6.10171934e+03  3.29366021e+02 -8.53763198e-03 -1.31641694e+07],1090,1221.7017374743884
72,72,[-6.58412060e+03  3.29365984e+02 -9.05591624e-03 -1.31641694e+07],940,1223.5195621464054
73,73,[-2.52235614e+03  3.44382645e+02 -2.14238614e-03 -1.31641694e+07],718,1214.26175854531
74,74,[-5.18143308e+03  3.31368309e+02 -6.48233607e-03 -1.31641694e+07],421,1223.9033075099599
75,75,[-6.19367287e+03  3.31368265e+02 -8.00707325e-03 -1.31641694e+07],1032,1223.0635675646233
76,76,[-6.17454340e+03  3.31368267e+02 -6.70823330e-03 -1.31641694e+07],597,1219.375491038098
77,77,[-5.70653543e+03  3.30367173e+02 -6.48835378e-03 -1.31641694e+07],879,1220.0079833347982
78,78,[-6.30212625e+03  3.29366018e+02 -9.23778278e-03 -1.31641694e+07],327,1221.2705681792943
79,79,[-6.34287454e+03  3.31368226e+02 -7.57258554e-03 -1.31641694e+07],492,1218.0549003655647
80,80,[-5.94081973e+03  3.30367140e+02 -7.43660179e-03 -1.31641694e+07],834,1222.3143399073977
81,81,[-4.93466044e+03  3.31368200e+02 -6.99712684e-03 -1.31641694e+07],787,1222.8302324946367
82,82,[-6.35704437e+03  3.29366026e+02 -8.86586303e-03 -1.31641694e+07],297,1220.612548601038
83,83,[-5.71389096e+03  3.31368266e+02 -6.18751817e-03 -1.31641694e+07],188,1221.160850894951
84,84,[-7.68996030e+03  3.28364869e+02 -1.11299342e-02 -1.31641694e+07],435,1223.910107839088
85,85,[-6.13878512e+03  3.31368339e+02 -7.95654527e-03 -1.31641694e+07],1144,1220.1691933121642
86,86,[-6.58132129e+03  3.29366098e+02 -8.34629908e-03 -1.31641694e+07],820,1219.3355151289827
87,87,[-6.48649361e+03  3.29365965e+02 -8.05114510e-03 -1.31641694e+07],449,1220.696326362344
88,88,[-6.73234160e+03  3.29365999e+02 -9.35472406e-03 -1.31641694e+07],141,1224.8648407218939
89,89,[-6.62494144e+03  3.30367163e+02 -7.35350993e-03 -1.31641694e+07],322,1221.573189999429
90,90,[-5.65485075e+03  3.31368210e+02 -6.86332432e-03 -1.31641694e+07],405,1222.702064725557
91,91,[-6.11683819e+03  3.31368194e+02 -7.97000248e-03 -1.31641694e+07],593,1215.6083406655498
92,92,[-5.57425353e+03  3.31368263e+02 -6.23800346e-03 -1.31641694e+07],675,1219.731874811919
93,93,[-5.10824000e+03  3.31368212e+02 -5.93846031e-03 -1.31641694e+07],645,1221.3496304190676
94,94,[-4.96105421e+03  3.31368306e+02 -6.06273530e-03 -1.31641694e+07],292,1221.2289044570016
95,95,[-6.15749879e+03  3.30367223e+02 -7.48007807e-03 -1.31641694e+07],904,1222.4894304657587
96,96,[-6.83975763e+03  3.29365997e+02 -8.15192186e-03 -1.31641694e+07],1004,1220.3555380165428
97,97,[-4.95920503e+03  3.32369527e+02 -5.76261279e-03 -1.31641694e+07],627,1224.7747076760334
98,98,[-6.76090929e+03  3.30367119e+02 -8.25763723e-03 -1.31641694e+07],228,1222.4520394273618
99,99,[-5.81523967e+03  3.30367077e+02 -6.75044624e-03 -1.31641694e+07],495,1220.6258841907602
100,100,[-6.23616264e+03  3.29366002e+02 -9.23280362e-03 -1.31641694e+07],655,1221.3847107399247
101,101,[-6.42479293e+03  3.31368199e+02 -7.64001074e-03 -1.31641694e+07],484,1217.8856197569587
102,102,[-5.41534961e+03  3.31368223e+02 -6.44807995e-03 -1.31641694e+07],893,1217.1217306661913
103,103,[-4.28672551e+03  3.32369545e+02 -5.22490779e-03 -1.31641694e+07],880,1221.8968066696511
104,104,[-4.66741495e+03  3.31368227e+02 -6.38216944e-03 -1.31641694e+07],489,1224.714081782493
105,105,[-5.72489724e+03  3.30367118e+02 -7.44913398e-03 -1.31641694e+07],1098,1217.0125594385763
106,106,[-6.62600193e+03  3.29365988e+02 -8.04962941e-03 -1.31641694e+07],957,1219.2522371693867
107,107,[-6.35118877e+03  3.29366031e+02 -8.13310575e-03 -1.31641694e+07],741,1220.906549243024
108,108,[-4.74920169e+03  3.31368510e+02 -6.65772564e-03 -1.31641694e+07],551,1219.4299574204783
109,109,[-5.69462501e+03  3.30367156e+02 -6.53195181e-03 -1.31641694e+07],621,1217.298697976191
110,110,[-6.41594272e+03  3.29365977e+02 -8.15601237e-03 -1.31641694e+07],352,1219.9450864968026
111,111,[-4.30818147e+03  3.33370445e+02 -5.18333696e-03 -1.31641694e+07],884,1221.3818290402364
112,112,[-7.04710712e+03  3.29366008e+02 -9.41485854e-03 -1.31641694e+07],380,1221.5676067063537
113,113,[-6.43064440e+03  3.31368289e+02 -7.16014094e-03 -1.31641694e+07],496,1222.1279403155286
114,114,[-5.64448871e+03  3.30367284e+02 -7.46475545e-03 -1.31641694e+07],266,1220.7273481235895
115,115,[-6.93518862e+03  3.29365964e+02 -9.77975002e-03 -1.31641694e+07],212,1220.034108979877
116,116,[-5.81291856e+03  3.31368485e+02 -7.31806312e-03 -1.31641694e+07],325,1220.6956310845428
117,117,[-5.45927463e+03  3.31368247e+02 -6.25503082e-03 -1.31641694e+07],328,1223.5818964264452
118,118,[-6.27979115e+03  3.31368237e+02 -8.50911729e-03 -1.31641694e+07],224,1222.6790357577133
119,119,[-5.27386643e+03  3.32369306e+02 -6.10604804e-03 -1.31641694e+07],84,1221.2810521295262
120,120,[-7.16937196e+03  3.31368250e+02 -7.36940902e-03 -1.31641694e+07],580,1209.293498359209
121,121,[-6.33778112e+03  3.31368193e+02 -8.05334760e-03 -1.31641694e+07],361,1218.7225088096409
122,122,[-6.41577349e+03  3.29366046e+02 -8.96080779e-03 -1.31641694e+07],74,1222.307371777109
123,123,[-6.49692763e+03  3.31368208e+02 -7.76340397e-03 -1.31641694e+07],186,1213.2871224929715
124,124,[-4.25346578e+03  3.33370438e+02 -4.52908274e-03 -1.31641694e+07],709,1220.3297845435375
125,125,[-6.06592660e+03  3.32369299e+02 -8.16385447e-03 -1.31641694e+07],307,1223.235322226033
126,126,[-6.64359106e+03  3.29365988e+02 -1.06434316e-02 -1.31641694e+07],139,1219.910621352315
127,127,[-6.60603133e+03  3.29365989e+02 -8.07418520e-03 -1.31641694e+07],517,1218.2467367692373
128,128,[-5.68816874e+03  3.30367102e+02 -6.99749093e-03 -1.31641694e+07],391,1217.0661364250445
129,129,[-6.37167615e+03  3.29366081e+02 -9.63279973e-03 -1.31641694e+07],630,1222.2183955442124
130,130,[-6.90382939e+03  3.28364903e+02 -1.12154960e-02 -1.31641694e+07],1143,1221.0765929657146
131,131,[-6.55073831e+03  3.31368188e+02 -7.53443823e-03 -1.31641694e+07],377,1215.8519584661174
132,132,[-5.08428932e+03  3.31368344e+02 -5.69576461e-03 -1.31641694e+07],258,1220.4764542839691
133,133,[-5.55136391e+03  3.32369550e+02 -8.03290330e-03 -1.31641694e+07],637,1218.4552812737472
134,134,[-5.86746623e+03  3.31368230e+02 -7.65010643e-03 -1.31641694e+07],382,1218.707852739249
135,135,[-4.68007560e+03  3.32369593e+02 -5.84637299e-03 -1.31641694e+07],497,1219.0528873365954
136,136,[-6.67139287e+03  3.31368213e+02 -7.56719269e-03 -1.31641694e+07],417,1220.1435877134866
137,137,[-5.63565294e+03  3.30367115e+02 -7.60699714e-03 -1.31641694e+07],285,1220.7680753856405
138,138,[-5.72976498e+03  3.30367128e+02 -6.88193052e-03 -1.31641694e+07],456,1220.3253060965592
139,139,[-5.02769088e+03  3.31368387e+02 -7.38908110e-03 -1.31641694e+07],329,1223.880391574031
140,140,[-5.86724812e+03  3.32369302e+02 -8.10884839e-03 -1.31641694e+07],294,1220.601383978635
141,141,[-6.22047964e+03  3.30367170e+02 -8.02368178e-03 -1.31641694e+07],17,1224.189855993074
142,142,[-5.09931974e+03  3.31368354e+02 -7.72276798e-03 -1.31641694e+07],858,1222.5209372192282
143,143,[-6.05150121e+03  3.31368192e+02 -7.28163053e-03 -1.31641694e+07],40,1221.5709936586854
144,144,[-6.46046668e+03  3.29366005e+02 -8.87343265e-03 -1.31641694e+07],722,1222.7728815583512
145,145,[-5.93907792e+03  3.31368276e+02 -7.60636025e-03 -1.31641694e+07],151,1217.759565807952
146,146,[-6.61682087e+03  3.31368231e+02 -7.47568412e-03 -1.31641694e+07],277,1218.8965257449606
147,147,[-4.24103609e+03  3.33370451e+02 -4.38840008e-03 -1.31641694e+07],220,1215.4315352696683
148,148,[-4.17896120e+03  3.33370414e+02 -4.42060721e-03 -1.31641694e+07],311,1214.8239852588163
149,149,[-6.02380618e+03  3.32369324e+02 -8.44236578e-03 -1.31641694e+07],389,1222.1253136128869
150,150,[-5.93416505e+03  3.32369367e+02 -7.94437862e-03 -1.31641694e+07],388,1220.5700481037131
151,151,[-4.88278601e+03  3.32369365e+02 -6.90560545e-03 -1.31641694e+07],253,1223.71937602058
152,152,[-5.18018877e+03  3.31368232e+02 -6.96610371e-03 -1.31641694e+07],939,1222.5024134562216
153,153,[-6.85648442e+03  3.30367133e+02 -8.41934314e-03 -1.31641694e+07],877,1219.5464838990904
154,154,[-6.40604625e+03  3.31368198e+02 -7.78075272e-03 -1.31641694e+07],216,1220.1442951196464
155,155,[-5.64709836e+03  3.30367261e+02 -7.54346798e-03 -1.31641694e+07],226,1221.44832839441
156,156,[-5.87073769e+03  3.32369411e+02 -8.17430360e-03 -1.31641694e+07],117,1221.0446489372193
157,157,[-4.89039655e+03  3.31368218e+02 -6.33405651e-03 -1.31641694e+07],433,1222.7752683589981
158,158,[-8.10156632e+03  3.29366022e+02 -1.04720918e-02 -1.31641694e+07],1207,1214.001466843553
159,159,[-5.48566994e+03  3.33370467e+02 -7.80722155e-03 -1.31641694e+07],351,1221.3667392189845
160,160,[-6.23377715e+03  3.31368309e+02 -7.54430937e-03 -1.31641694e+07],781,1222.841429643929
161,161,[-5.93041642e+03  3.30367130e+02 -8.61945558e-03 -1.31641694e+07],851,1219.2469719617814
162,162,[-5.30706580e+03  3.30367080e+02 -6.87638475e-03 -1.31641694e+07],338,1220.4051687016322
163,163,[-5.71199283e+03  3.31368358e+02 -7.07150441e-03 -1.31641694e+07],72,1221.9698144406875
164,164,[-5.91791186e+03  3.31368307e+02 -7.81527598e-03 -1.31641694e+07],364,1222.9062592883793
165,165,[-3.87872874e+03  3.33370461e+02 -5.25463410e-03 -1.31641694e+07],882,1225.0082418011589
166,166,[-6.84446222e+03  3.29365986e+02 -8.69902705e-03 -1.31641694e+07],817,1222.0602435199596
167,167,[-5.12483790e+03  3.31368286e+02 -5.58380964e-03 -1.31641694e+07],207,1209.9170107390123
168,168,[-5.73967713e+03  3.31368322e+02 -7.69800040e-03 -1.31641694e+07],799,1219.1010667688524
169,169,[-6.32683671e+03  3.30367152e+02 -8.45542410e-03 -1.31641694e+07],453,1221.8350292859059
170,170,[-6.50458825e+03  3.30367103e+02 -9.32216778e-03 -1.31641694e+07],1174,1221.0087624019973
171,171,[-6.11896987e+03  3.32369366e+02 -7.53931801e-03 -1.31641694e+07],751,1221.6110399301049
172,172,[-7.69150850e+03  3.29366025e+02 -1.02635499e-02 -1.31641694e+07],47,1222.9965755027204
173,173,[-6.95531910e+03  3.30367335e+02 -1.10198202e-02 -1.31641694e+07],384,1221.142097348704
174,174,[-6.58656198e+03  3.29365975e+02 -9.80765559e-03 -1.31641694e+07],610,1222.88454152108
175,175,[-6.58649499e+03  3.31368260e+02 -7.68289912e-03 -1.31641694e+07],475,1217.4407968234366
176,176,[-5.36049014e+03  3.30367077e+02 -7.18134145e-03 -1.31641694e+07],30,1224.6183444191042
177,177,[-6.11857145e+03  3.31368281e+02 -7.92925060e-03 -1.31641694e+07],1066,1221.8561478268014
178,178,[-6.06854924e+03  3.31368206e+02 -7.84325680e-03 -1.31641694e+07],768,1220.9870617845088
179,179,[-5.99413968e+03  3.32369373e+02 -7.74041561e-03 -1.31641694e+07],536,1222.9232433522504
180,180,[-6.05984005e+03  3.31368201e+02 -7.66380450e-03 -1.31641694e+07],847,1222.5202145162348
181,181,[-6.80404129e+03  3.29366035e+02 -1.05898168e-02 -1.31641694e+07],250,1224.9763262868478
182,182,[-5.71099196e+03  3.32369391e+02 -7.70082931e-03 -1.31641694e+07],415,1224.4463845781204
183,183,[-4.35806571e+03  3.33370485e+02 -5.83215692e-03 -1.31641694e+07],878,1222.4147697365784
184,184,[-6.07174994e+03  3.31368250e+02 -7.70036859e-03 -1.31641694e+07],296,1224.5823031524874
185,185,[-6.06703676e+03  3.31368209e+02 -8.28367694e-03 -1.31641694e+07],373,1224.3882647351256
186,186,[-6.45886687e+03  3.29366031e+02 -9.44090267e-03 -1.31641694e+07],512,1223.8963783782992
187,187,[-7.34765923e+03  3.28364864e+02 -9.64869934e-03 -1.31641694e+07],856,1218.1005125920076
188,188,[-5.22813573e+03  3.31368195e+02 -6.19363429e-03 -1.31641694e+07],806,1224.2222399630864
189,189,[-6.06426562e+03  3.31368215e+02 -7.98377011e-03 -1.31641694e+07],469,1220.9626778010136
190,190,[-4.82295118e+03  3.31368286e+02 -6.11873019e-03 -1.31641694e+07],924,1220.4177144783648
191,191,[-4.98807731e+03  3.31368421e+02 -5.60175973e-03 -1.31641694e+07],985,1219.0092331330357
192,192,[-7.37767828e+03  3.28364868e+02 -8.84313959e-03 -1.31641694e+07],928,1204.9474893041113
193,193,[-7.12978287e+03  3.31368221e+02 -7.21008854e-03 -1.31641694e+07],895,1192.3018041044572
194,194,[-5.89493773e+03  3.31368321e+02 -6.49411804e-03 -1.31641694e+07],6,1188.1065338948622
195,195,[-4.73858465e+03  3.33370526e+02 -5.35522203e-03 -1.31641694e+07],305,1211.47998481678
196,196,[-5.05880251e+03  3.31368194e+02 -7.79358678e-03 -1.31641694e+07],1186,1210.962770170763
197,197,[-4.37442120e+03  3.32369351e+02 -6.35272817e-03 -1.31641694e+07],125,1216.9547907396898
198,198,[-6.32836744e+03  3.30367121e+02 -1.01095478e-02 -1.31641694e+07],668,1218.024122272256
199,199,[-5.45233615e+03  3.31368203e+02 -7.76249286e-03 -1.31641694e+07],345,1220.4497716406504
200,200,[-6.42899221e+03  3.29366044e+02 -9.52057097e-03 -1.31641694e+07],732,1220.661985028059
201,201,[-5.97606822e+03  3.31368315e+02 -7.66162621e-03 -1.31641694e+07],1003,1219.951912964328
202,202,[-6.34951160e+03  3.31368203e+02 -7.90704651e-03 -1.31641694e+07],215,1219.305855656286
203,203,[-4.02634639e+03  3.33370707e+02 -4.99127691e-03 -1.31641694e+07],733,1222.5804780734989
204,204,[-4.77783136e+03  3.31368368e+02 -6.87893573e-03 -1.31641694e+07],908,1219.262774191517
205,205,[-4.73668812e+03  3.33370432e+02 -5.81399560e-03 -1.31641694e+07],1011,1214.9368707243761
206,206,[-5.85895979e+03  3.31368318e+02 -7.57519526e-03 -1.31641694e+07],1070,1218.8493384664757
207,207,[-6.51176077e+03  3.30367079e+02 -8.30911744e-03 -1.31641694e+07],719,1223.4724555592354
208,208,[-7.57612784e+03  3.29365972e+02 -1.11568856e-02 -1.31641694e+07],788,1222.6800686053198
209,209,[-4.65157285e+03  3.32369351e+02 -6.99296117e-03 -1.31641694e+07],418,1221.7528915645826
210,210,[-5.66664755e+03  3.30367088e+02 -7.56807918e-03 -1.31641694e+07],762,1221.9024851925108
211,211,[-7.49612302e+03  3.29366056e+02 -9.75085627e-03 -1.31641694e+07],1117,1221.8786834074133
212,212,[-5.67684780e+03  3.31368226e+02 -7.81087768e-03 -1.31641694e+07],326,1223.9408867935279
213,213,[-6.17999649e+03  3.29366094e+02 -9.08500136e-03 -1.31641694e+07],422,1224.499959536368
214,214,[-6.60045384e+03  3.31368222e+02 -7.47565602e-03 -1.31641694e+07],653,1219.6321396412686
215,215,[-7.05648228e+03  3.29365985e+02 -9.44535622e-03 -1.31641694e+07],875,1223.2018403160373
216,216,[-5.63540691e+03  3.31368218e+02 -7.73060629e-03 -1.31641694e+07],58,1223.5905967205383
217,217,[-5.64559583e+03  3.31368235e+02 -7.93802244e-03 -1.31641694e+07],33,1220.0571109402813
218,218,[-7.13089083e+03  3.29365983e+02 -9.06083912e-03 -1.31641694e+07],375,1222.7733901243346
219,219,[-5.35684022e+03  3.31368471e+02 -7.13781732e-03 -1.31641694e+07],607,1224.8247288896566
220,220,[-5.82416090e+03  3.31368255e+02 -7.83630955e-03 -1.31641694e+07],989,1223.6982675268341
221,221,[-6.97690688e+03  3.29366055e+02 -1.01543769e-02 -1.31641694e+07],1047,1224.9774515255992
222,222,[-7.17905893e+03  3.29366002e+02 -9.89932872e-03 -1.31641694e+07],1154,1222.9253277692942
223,223,[-6.23433710e+03  3.31368223e+02 -7.66861822e-03 -1.31641694e+07],871,1222.3060096179847
224,224,[-5.90832963e+03  3.29365965e+02 -9.08256912e-03 -1.31641694e+07],75,1223.9250637278449
225,225,[-6.42688401e+03  3.29366038e+02 -9.13981095e-03 -1.31641694e+07],1151,1223.0515315438217
226,226,[-6.17799286e+03  3.29365996e+02 -8.37386337e-03 -1.31641694e+07],801,1223.5828893396592
227,227,[-6.22926226e+03  3.30367219e+02 -8.71066510e-03 -1.31641694e+07],1121,1224.3417402049652
228,228,[-5.41386040e+03  3.30367184e+02 -7.40255620e-03 -1.31641694e+07],225,1224.0757504832463
229,229,[-5.78007805e+03  3.30367144e+02 -6.85568652e-03 -1.31641694e+07],681,1221.5523283529787
230,230,[-5.64491040e+03  3.30367094e+02 -6.55105737e-03 -1.31641694e+07],1226,1219.02232766804
231,231,[-5.95288486e+03  3.32369370e+02 -8.87969614e-03 -1.31641694e+07],865,1220.6570663931695
232,232,[-4.04308777e+03  3.33370723e+02 -5.31983717e-03 -1.31641694e+07],339,1222.952607568202
233,233,[-6.23717849e+03  3.30367082e+02 -7.90308930e-03 -1.31641694e+07],1009,1209.7375295106656
234,234,[-5.66264369e+03  3.30367317e+02 -9.78417481e-03 -1.31641694e+07],853,1200.1959094255283
235,235,[-5.77212066e+03  3.31368318e+02 -7.80850247e-03 -1.31641694e+07],349,1211.2215913270948
236,236,[-5.48278738e+03  3.31368223e+02 -7.01042072e-03 -1.31641694e+07],1227,1219.1528799052169
237,237,[-4.85825485e+03  3.31368262e+02 -6.14154009e-03 -1.31641694e+07],467,1215.5068282801665
238,238,[-6.82869293e+03  3.29365976e+02 -9.65561731e-03 -1.31641694e+07],259,1219.3216441081443
239,239,[-5.84838560e+03  3.31368199e+02 -6.88923442e-03 -1.31641694e+07],172,1220.793639273214
240,240,[-6.08167533e+03  3.30367135e+02 -7.53202331e-03 -1.31641694e+07],729,1219.2673663040812
241,241,[-6.69042679e+03  3.28364874e+02 -1.07649945e-02 -1.31641694e+07],347,1220.3930739145655
242,242,[-6.88072410e+03  3.30367209e+02 -1.11440321e-02 -1.31641694e+07],1153,1220.9085258995678
243,243,[-6.11881597e+03  3.31368201e+02 -7.69414707e-03 -1.31641694e+07],293,1220.1944711982487
244,244,[-6.57758003e+03  3.30367084e+02 -7.38627762e-03 -1.31641694e+07],761,1213.000118734671
245,245,[-6.41241302e+03  3.29365974e+02 -8.14396065e-03 -1.31641694e+07],324,1212.7059300761555
246,246,[-7.09113233e+03  3.28364855e+02 -1.11079722e-02 -1.31641694e+07],1171,1216.760568700598
247,247,[-6.05613722e+03  3.29366095e+02 -9.57658903e-03 -1.31641694e+07],49,1217.0594761247705
248,248,[-5.69310377e+03  3.31368206e+02 -8.13385778e-03 -1.31641694e+07],451,1220.9450956528574
249,249,[-4.44659532e+03  3.32369480e+02 -5.84782291e-03 -1.31641694e+07],232,1221.330868793796
250,250,[-6.05130348e+03  3.30367325e+02 -8.94776381e-03 -1.31641694e+07],1222,1223.3573929057036
251,251,[-4.70559012e+03  3.31368385e+02 -6.87971159e-03 -1.31641694e+07],1097,1220.6552067064567
252,252,[-6.72873379e+03  3.30367234e+02 -1.00903298e-02 -1.31641694e+07],222,1221.8325514570847
253,253,[-6.18188555e+03  3.31368258e+02 -8.33820015e-03 -1.31641694e+07],842,1223.641211832541
254,254,[-5.68079554e+03  3.32369645e+02 -7.77157207e-03 -1.31641694e+07],179,1224.4321495475192
255,255,[-6.12784853e+03  3.29365976e+02 -8.65354082e-03 -1.31641694e+07],370,1220.071672269865
256,256,[-5.88049378e+03  3.31368282e+02 -7.83125075e-03 -1.31641694e+07],646,1222.1679035901052
257,257,[-6.48948031e+03  3.29366003e+02 -8.94385704e-03 -1.31641694e+07],164,1222.1754897384906
258,258,[-5.35847129e+03  3.31368263e+02 -7.07744460e-03 -1.31641694e+07],1079,1223.8524755512135
259,259,[-6.71149300e+03  3.29365979e+02 -9.23515126e-03 -1.31641694e+07],174,1223.0058350349689
260,260,[-5.32433366e+03  3.30367105e+02 -6.89186569e-03 -1.31641694e+07],1064,1218.7819657523999
261,261,[-5.83563650e+03  3.30367174e+02 -6.93642370e-03 -1.31641694e+07],639,1218.572381853393
262,262,[-5.42281852e+03  3.33370448e+02 -8.30154413e-03 -1.31641694e+07],881,1219.2688896607224
263,263,[-8.17836565e+03  3.30367160e+02 -9.02683855e-03 -1.31641694e+07],669,1211.6425241215525
264,264,[-5.21999538e+03  3.31368209e+02 -5.90561129e-03 -1.31641694e+07],1002,1216.0328687582075
265,265,[-5.06444592e+03  3.31368246e+02 -7.00016432e-03 -1.31641694e+07],160,1219.4817565038356
266,266,[-5.83451185e+03  3.31368243e+02 -7.72614756e-03 -1.31641694e+07],1081,1223.945144429265
267,267,[-6.36680083e+03  3.29366040e+02 -8.42836463e-03 -1.31641694e+07],519,1220.0388986318987
268,268,[-6.16946091e+03  3.29365982e+02 -9.10026007e-03 -1.31641694e+07],81,1219.9138230544854
269,269,[-5.79070149e+03  3.31368328e+02 -8.00027226e-03 -1.31641694e+07],544,1222.6246785199075
270,270,[-4.68735700e+03  3.31368537e+02 -5.77451153e-03 -1.31641694e+07],1173,1215.7226728477206
271,271,[-6.02806132e+03  3.32369321e+02 -8.68681677e-03 -1.31641694e+07],953,1218.1406934654565
272,272,[-5.94590611e+03  3.29365988e+02 -9.13368211e-03 -1.31641694e+07],485,1218.979414601881
273,273,[-6.53864186e+03  3.31368198e+02 -7.59555413e-03 -1.31641694e+07],7,1219.6220118321844
274,274,[-4.62390048e+03  3.31368310e+02 -6.47034930e-03 -1.31641694e+07],790,1222.5916547449633
275,275,[-6.01075214e+03  3.29366045e+02 -9.83357961e-03 -1.31641694e+07],679,1219.5797302925207
276,276,[-5.22289186e+03  3.31368331e+02 -6.96774050e-03 -1.31641694e+07],157,1222.4178151475198
277,277,[-6.11897472e+03  3.29366053e+02 -1.06439914e-02 -1.31641694e+07],1083,1223.7173805371262
278,278,[-4.49019791e+03  3.33370456e+02 -5.46276936e-03 -1.31641694e+07],218,1224.3839983974215
279,279,[-6.47720294e+03  3.31368188e+02 -7.55833369e-03 -1.31641694e+07],144,1222.0870368727542
280,280,[-5.53954676e+03  3.30367106e+02 -7.20504686e-03 -1.31641694e+07],905,1222.205407458824
281,281,[-6.26983239e+03  3.29365999e+02 -8.59278091e-03 -1.31641694e+07],1155,1218.945705951057
282,282,[-6.17538827e+03  3.31368283e+02 -7.63055093e-03 -1.31641694e+07],757,1222.2056301624746
283,283,[-4.94597660e+03  3.31368193e+02 -5.78335876e-03 -1.31641694e+07],304,1220.5964717007523
284,284,[-4.67524644e+03  3.31368385e+02 -6.90752691e-03 -1.31641694e+07],586,1219.41532831793
285,285,[-5.94246537e+03  3.30367177e+02 -8.18171945e-03 -1.31641694e+07],68,1223.803105579276
286,286,[-6.35694869e+03  3.31368285e+02 -7.44668733e-03 -1.31641694e+07],1023,1219.379209650642
287,287,[-6.13680345e+03  3.31368229e+02 -7.95480517e-03 -1.31641694e+07],570,1215.1723184927644
288,288,[-3.95411059e+03  3.34371712e+02 -4.95010205e-03 -1.31641694e+07],90,1214.4179362147936
289,289,[-6.73484676e+03  3.29366032e+02 -9.87792446e-03 -1.31641694e+07],647,1214.059667156573
290,290,[-6.09610749e+03  3.31368344e+02 -7.53321219e-03 -1.31641694e+07],791,1217.6397089205427
291,291,[-5.10890954e+03  3.32369618e+02 -8.21814690e-03 -1.31641694e+07],565,1216.6966016111433
292,292,[-5.70431668e+03  3.31368314e+02 -7.88299301e-03 -1.31641694e+07],559,1224.1007692728845
293,293,[-7.45302261e+03  3.30367125e+02 -8.83411469e-03 -1.31641694e+07],499,1222.9816075259312
294,294,[-5.69195130e+03  3.31368246e+02 -7.93851131e-03 -1.31641694e+07],208,1223.777329601216
295,295,[-4.57780140e+03  3.31368231e+02 -6.89112395e-03 -1.31641694e+07],118,1219.6693403446056
296,296,[-6.73677817e+03  3.30367079e+02 -8.35887260e-03 -1.31641694e+07],455,1223.3482861096156
297,297,[-5.79971865e+03  3.31368230e+02 -7.95957591e-03 -1.31641694e+07],823,1224.226255876602
298,298,[-5.60783463e+03  3.31368216e+02 -7.92465840e-03 -1.31641694e+07],477,1222.6332821588649
299,299,[-5.92442604e+03  3.31368279e+02 -7.88359879e-03 -1.31641694e+07],721,1221.546569909932
300,300,[-6.29352108e+03  3.31368212e+02 -8.11913759e-03 -1.31641694e+07],298,1218.3881256375646
301,301,[-6.33243162e+03  3.29365970e+02 -9.41135449e-03 -1.31641694e+07],1060,1224.3266797066108
302,302,[-5.86112790e+03  3.31368221e+02 -7.83392129e-03 -1.31641694e+07],269,1220.9148786084884
303,303,[-4.81420057e+03  3.31368267e+02 -6.93992622e-03 -1.31641694e+07],340,1222.5051522926726
304,304,[-5.78355509e+03  3.30367220e+02 -7.43771658e-03 -1.31641694e+07],850,1222.7413516186998
305,305,[-5.00919595e+03  3.31368230e+02 -6.10227455e-03 -1.31641694e+07],528,1223.2673159884296
306,306,[-5.60813998e+03  3.30367149e+02 -7.56997368e-03 -1.31641694e+07],42,1222.4105405120977
307,307,[-7.14477974e+03  3.28364861e+02 -1.11929462e-02 -1.31641694e+07],1188,1223.8837766116997
308,308,[-4.89430192e+03  3.31368198e+02 -6.12669411e-03 -1.31641694e+07],274,1221.7609746113399
309,309,[-6.20518718e+03  3.31368356e+02 -7.63068299e-03 -1.31641694e+07],452,1222.5039153037103
310,310,[-5.81252747e+03  3.30367075e+02 -7.24715913e-03 -1.31641694e+07],203,1222.4741907935331
311,311,[-5.75178531e+03  3.31368269e+02 -7.89748991e-03 -1.31641694e+07],1048,1223.6702687633172
312,312,[-5.99273354e+03  3.31368195e+02 -8.01223959e-03 -1.31641694e+07],486,1221.567760382033
313,313,[-5.26924604e+03  3.30367162e+02 -7.46763701e-03 -1.31641694e+07],918,1214.5047349065487
314,314,[-5.24522297e+03  3.30367172e+02 -7.03647051e-03 -1.31641694e+07],539,1200.5370061603433
315,315,[-5.91999890e+03  3.30367137e+02 -8.41625297e-03 -1.31641694e+07],142,1212.6290764009073
316,316,[-7.32120013e+03  3.30367146e+02 -1.13493773e-02 -1.31641694e+07],506,1214.709573907397
317,317,[-5.82370993e+03  3.31368309e+02 -8.67232059e-03 -1.31641694e+07],180,1212.3506914842576
318,318,[-6.22741884e+03  3.31368219e+02 -7.61226929e-03 -1.31641694e+07],857,1220.6463223651538
319,319,[-5.90429493e+03  3.31368218e+02 -8.19181530e-03 -1.31641694e+07],1000,1220.8148280763146
320,320,[-5.90494426e+03  3.31368267e+02 -7.88342299e-03 -1.31641694e+07],303,1220.3895870326764
321,321,[-6.37230769e+03  3.31368265e+02 -7.78716863e-03 -1.31641694e+07],309,1220.0025054486741
322,322,[-5.60521768e+03  3.32369634e+02 -7.95960974e-03 -1.31641694e+07],152,1224.1468377641606
323,323,[-5.39063903e+03  3.31368402e+02 -7.40076285e-03 -1.31641694e+07],838,1222.4256969632893
324,324,[-5.07622249e+03  3.31368200e+02 -7.11043779e-03 -1.31641694e+07],65,1222.9738421711359
325,325,[-4.41342245e+03  3.33370466e+02 -5.00337634e-03 -1.31641694e+07],864,1223.934768673678
326,326,[-7.10017035e+03  3.28364880e+02 -1.12067020e-02 -1.31641694e+07],11,1223.1208216458972
327,327,[-5.89213037e+03  3.31368278e+02 -7.77820415e-03 -1.31641694e+07],516,1224.2462943944959
328,328,[-6.46841735e+03  3.30367119e+02 -8.00049864e-03 -1.31641694e+07],95,1223.9269964699713
329,329,[-6.10735730e+03  3.32369494e+02 -7.89831736e-03 -1.31641694e+07],866,1223.779777267675
330,330,[-6.17290446e+03  3.31368193e+02 -8.02372244e-03 -1.31641694e+07],710,1221.4813180513474
331,331,[-5.13372230e+03  3.31368232e+02 -7.04353150e-03 -1.31641694e+07],833,1221.3019597686048
332,332,[-4.70284311e+03  3.32369747e+02 -7.60739437e-03 -1.31641694e+07],395,1219.491085366842
333,333,[-5.35753964e+03  3.30367128e+02 -6.98235507e-03 -1.31641694e+07],509,1215.5442589172774
334,334,[-7.32141853e+03  3.31368214e+02 -7.59686138e-03 -1.31641694e+07],310,1215.194224101691
335,335,[-5.72253601e+03  3.31368206e+02 -7.97044098e-03 -1.31641694e+07],870,1221.7796984596844
336,336,[-5.81039931e+03  3.30367154e+02 -8.81576342e-03 -1.31641694e+07],962,1220.0346465448383
337,337,[-6.33863121e+03  3.31368327e+02 -7.90367603e-03 -1.31641694e+07],98,1219.6539929020537
338,338,[-6.11339889e+03  3.30367089e+02 -7.52616037e-03 -1.31641694e+07],366,1223.5196773404482
339,339,[-5.91541351e+03  3.29365979e+02 -9.11185032e-03 -1.31641694e+07],542,1223.0281493536888
340,340,[-5.63780559e+03  3.30367135e+02 -7.58601467e-03 -1.31641694e+07],760,1222.623268331539
341,341,[-6.34069907e+03  3.32369377e+02 -7.15027004e-03 -1.31641694e+07],323,1218.0055411564256
342,342,[-5.17415938e+03  3.32369623e+02 -6.19579996e-03 -1.31641694e+07],617,1224.727765466624
343,343,[-5.83983374e+03  3.31368277e+02 -8.21416257e-03 -1.31641694e+07],276,1219.2450181095585
344,344,[-4.71479890e+03  3.33370488e+02 -5.84469342e-03 -1.31641694e+07],629,1219.4580825999726
345,345,[-6.95358953e+03  3.29365963e+02 -9.22662541e-03 -1.31641694e+07],183,1223.2279121574218
346,346,[-6.84558263e+03  3.28364958e+02 -1.08274618e-02 -1.31641694e+07],306,1222.0164847466124
347,347,[-6.03824722e+03  3.31368190e+02 -7.76575046e-03 -1.31641694e+07],692,1222.9883387629543
348,348,[-6.17926956e+03  3.29365991e+02 -8.69661908e-03 -1.31641694e+07],416,1219.1553135358652
349,349,[-4.92561563e+03  3.31368260e+02 -6.56125662e-03 -1.31641694e+07],540,1223.0219150470637
350,350,[-5.42493592e+03  3.30367135e+02 -6.89460636e-03 -1.31641694e+07],840,1220.1026579508564
351,351,[-6.05100121e+03  3.29365981e+02 -9.20300438e-03 -1.31641694e+07],914,1223.5452431627734
352,352,[-5.84091069e+03  3.29365971e+02 -9.10717743e-03 -1.31641694e+07],997,1223.9779555452706
353,353,[-5.61465626e+03  3.30367223e+02 -6.67220111e-03 -1.31641694e+07],18,1220.2887776902612
354,354,[-6.90137776e+03  3.29365964e+02 -9.83345766e-03 -1.31641694e+07],900,1224.7652208210625
355,355,[-7.45059020e+03  3.29366065e+02 -1.10212051e-02 -1.31641694e+07],694,1224.682187952045
356,356,[-5.05628483e+03  3.31368332e+02 -6.37483886e-03 -1.31641694e+07],1065,1221.814947282562
357,357,[-5.49204713e+03  3.31368478e+02 -6.96090262e-03 -1.31641694e+07],954,1215.06130547764
358,358,[-6.25923675e+03  3.31368262e+02 -8.13529931e-03 -1.31641694e+07],612,1218.1200637421377
359,359,[-6.24037591e+03  3.29365983e+02 -9.79665549e-03 -1.31641694e+07],667,1219.1342650983634
360,360,[-5.97742390e+03  3.31368195e+02 -7.41326327e-03 -1.31641694e+07],1221,1221.04461424738
361,361,[-4.34243128e+03  3.33370559e+02 -4.99720747e-03 -1.31641694e+07],1157,1223.9060797639995
362,362,[-5.76954127e+03  3.31368196e+02 -8.29447558e-03 -1.31641694e+07],594,1220.9447732455112
363,363,[-5.47760099e+03  3.31368208e+02 -7.89449692e-03 -1.31641694e+07],558,1221.6287168134656
364,364,[-5.06579002e+03  3.31368264e+02 -6.49140273e-03 -1.31641694e+07],585,1223.5189528953244
365,365,[-4.26422760e+03  3.35372717e+02 -5.11830040e-03 -1.31641694e+07],520,1222.2295622048919
366,366,[-6.28786394e+03  3.29366063e+02 -9.95155835e-03 -1.31641694e+07],80,1222.4493932417333
367,367,[-6.17390425e+03  3.31368292e+02 -8.30798479e-03 -1.31641694e+07],122,1220.6296681982103
368,368,[-5.72392889e+03  3.30367206e+02 -6.92573762e-03 -1.31641694e+07],223,1221.6424087589617
369,369,[-5.21754528e+03  3.31368259e+02 -5.97218940e-03 -1.31641694e+07],859,1221.7467684550195
370,370,[-4.97524093e+03  3.30367099e+02 -7.34350953e-03 -1.31641694e+07],758,1222.9166367453786
371,371,[-5.74281271e+03  3.30367134e+02 -8.57535115e-03 -1.31641694e+07],470,1220.7438672945962
372,372,[-6.36086496e+03  3.29366072e+02 -8.20210603e-03 -1.31641694e+07],740,1219.4158894805282
373,373,[-6.03377062e+03  3.31368205e+02 -7.81226961e-03 -1.31641694e+07],960,1223.3467089106816
374,374,[-6.17193556e+03  3.31368269e+02 -8.25597958e-03 -1.31641694e+07],1031,1220.2593443015812
375,375,[-6.41178839e+03  3.29366043e+02 -9.66801425e-03 -1.31641694e+07],640,1223.0933103173345
376,376,[-5.55621553e+03  3.32369410e+02 -6.07559984e-03 -1.31641694e+07],759,1221.3898372955694
377,377,[-4.51848335e+03  3.33370683e+02 -7.02772375e-03 -1.31641694e+07],1084,1223.8538814187914
378,378,[-5.82130859e+03  3.31368221e+02 -7.96125015e-03 -1.31641694e+07],813,1220.191300484713
379,379,[-5.48771654e+03  3.32369318e+02 -6.10432225e-03 -1.31641694e+07],552,1220.766012952351
380,380,[-5.50863837e+03  3.31368238e+02 -6.32560145e-03 -1.31641694e+07],693,1223.9548089853968
381,381,[-6.62292083e+03  3.29365963e+02 -1.04650000e-02 -1.31641694e+07],365,1224.5128904875571
382,382,[-6.60357290e+03  3.29366026e+02 -1.03988378e-02 -1.31641694e+07],929,1223.8165956168402
383,383,[-6.87360489e+03  3.29366096e+02 -8.50790324e-03 -1.31641694e+07],863,1221.0376455926014
384,384,[-5.98686380e+03  3.30367124e+02 -7.59327228e-03 -1.31641694e+07],129,1223.4027167214667
385,385,[-5.36298909e+03  3.31368463e+02 -8.21621615e-03 -1.31641694e+07],706,1217.3532634865496
386,386,[-5.06248723e+03  3.31368243e+02 -5.72960651e-03 -1.31641694e+07],282,1218.4722759505703
387,387,[-6.53709476e+03  3.29365974e+02 -8.07017050e-03 -1.31641694e+07],280,1218.2331738449786
388,388,[-5.53026897e+03  3.32369320e+02 -8.09405998e-03 -1.31641694e+07],835,1223.6574296077715
389,389,[-4.83048331e+03  3.31368297e+02 -7.37127879e-03 -1.31641694e+07],750,1223.6584183569717
390,390,[-5.43506308e+03  3.32369355e+02 -7.37526630e-03 -1.31641694e+07],619,1218.8604059763559
391,391,[-5.67842155e+03  3.31368271e+02 -8.01100657e-03 -1.31641694e+07],822,1223.8628672723814
392,392,[-5.63866863e+03  3.31368223e+02 -8.11650826e-03 -1.31641694e+07],22,1216.9239415026718
393,393,[-5.14812514e+03  3.31368288e+02 -6.01056085e-03 -1.31641694e+07],257,1219.585419388226
394,394,[-6.08691852e+03  3.31368203e+02 -8.06726767e-03 -1.31641694e+07],922,1220.9635512720101
395,395,[-5.90524847e+03  3.30367168e+02 -8.09807196e-03 -1.31641694e+07],256,1222.4792503959184
396,396,[-5.18847882e+03  3.31368339e+02 -7.02614489e-03 -1.31641694e+07],459,1221.6168255182904
397,397,[-5.63404474e+03  3.30367144e+02 -6.61818468e-03 -1.31641694e+07],398,1220.170849066604
398,398,[-5.13362526e+03  3.30367093e+02 -7.53887085e-03 -1.31641694e+07],731,1222.159046675606
399,399,[-6.10130123e+03  3.31368201e+02 -8.29997949e-03 -1.31641694e+07],1213,1219.697770143669
400,400,[-5.21187727e+03  3.31368192e+02 -6.35836587e-03 -1.31641694e+07],113,1221.9273591606047
401,401,[-6.97120090e+03  3.29366061e+02 -1.01852483e-02 -1.31641694e+07],149,1224.9660592849814
402,402,[-4.50813017e+03  3.33370453e+02 -5.56814329e-03 -1.31641694e+07],1082,1221.8439401828068
403,403,[-6.34261558e+03  3.30367106e+02 -7.86758944e-03 -1.31641694e+07],1216,1221.42790888147
404,404,[-6.18604461e+03  3.31368202e+02 -7.84067259e-03 -1.31641694e+07],279,1221.2741794778508
405,405,[-4.81425640e+03  3.31368276e+02 -7.56121556e-03 -1.31641694e+07],573,1224.1428137565224
406,406,[-5.54564536e+03  3.32369460e+02 -6.16101375e-03 -1.31641694e+07],1159,1221.476513453411
407,407,[-5.61366797e+03  3.31368242e+02 -5.88227899e-03 -1.31641694e+07],463,1214.0402612903656
408,408,[-4.29861522e+03  3.32369323e+02 -5.53190917e-03 -1.31641694e+07],166,1211.3908292247663
409,409,[-6.09746602e+03  3.31368225e+02 -8.20929740e-03 -1.31641694e+07],1096,1220.9269261277532
410,410,[-5.46129660e+03  3.31368197e+02 -8.74209267e-03 -1.31641694e+07],786,1208.7648802408698
411,411,[-6.33688034e+03  3.31368269e+02 -7.94257956e-03 -1.31641694e+07],437,1215.534057539357
412,412,[-6.19077219e+03  3.31368202e+02 -8.58019648e-03 -1.31641694e+07],346,1216.7435945826164
413,413,[-6.28201726e+03  3.29366006e+02 -9.82566396e-03 -1.31641694e+07],1072,1217.2971739321079
414,414,[-6.20814594e+03  3.30367097e+02 -7.54520147e-03 -1.31641694e+07],424,1220.4883477695394
415,415,[-6.24872790e+03  3.31368249e+02 -8.44537395e-03 -1.31641694e+07],616,1223.3501184874444
416,416,[-6.01489436e+03  3.31368228e+02 -7.74500837e-03 -1.31641694e+07],912,1222.398078600321
417,417,[-6.06777942e+03  3.30367079e+02 -7.57196955e-03 -1.31641694e+07],1007,1223.807623760175
418,418,[-5.83366070e+03  3.30367084e+02 -7.42631736e-03 -1.31641694e+07],651,1223.1744178380486
419,419,[-6.76461143e+03  3.31368238e+02 -7.22435843e-03 -1.31641694e+07],163,1217.949550814249
420,420,[-6.18230158e+03  3.31368265e+02 -8.35099751e-03 -1.31641694e+07],67,1220.8968414296019
421,421,[-5.72740884e+03  3.32369412e+02 -7.92368671e-03 -1.31641694e+07],546,1224.2653330868752
422,422,[-6.09589719e+03  3.29366062e+02 -1.10659178e-02 -1.31641694e+07],1206,1223.1195363317509
423,423,[-6.29339089e+03  3.31368215e+02 -7.71229246e-03 -1.31641694e+07],400,1221.130573976618
424,424,[-5.66927292e+03  3.30367077e+02 -7.75834773e-03 -1.31641694e+07],572,1221.9970302726042
425,425,[-5.88008977e+03  3.31368214e+02 -7.82126712e-03 -1.31641694e+07],1010,1217.9936687266647
426,426,[-4.52876328e+03  3.32369393e+02 -4.92175173e-03 -1.31641694e+07],1068,1219.1575071618438
427,427,[-4.52417596e+03  3.33370674e+02 -7.02142153e-03 -1.31641694e+07],445,1224.4443581131804
428,428,[-5.03335370e+03  3.31368236e+02 -6.50290509e-03 -1.31641694e+07],210,1221.514858192861
429,429,[-6.01917574e+03  3.31368218e+02 -7.89165649e-03 -1.31641694e+07],103,1221.833105730576
430,430,[-4.59847447e+03  3.32369338e+02 -6.97382174e-03 -1.31641694e+07],742,1218.7116883355854
431,431,[-5.31638098e+03  3.32369309e+02 -6.22955186e-03 -1.31641694e+07],624,1221.5013386644173
432,432,[-4.72411428e+03  3.33370449e+02 -5.94079001e-03 -1.31641694e+07],907,1218.7822020130284
433,433,[-6.06979762e+03  3.32369476e+02 -8.18122399e-03 -1.31641694e+07],1024,1223.5739076603452
434,434,[-5.01688850e+03  3.32369318e+02 -5.73744273e-03 -1.31641694e+07],717,1224.5200984731232
435,435,[-5.70032618e+03  3.31368342e+02 -7.91450000e-03 -1.31641694e+07],211,1224.220008135017
436,436,[-7.60032847e+03  3.29365990e+02 -1.14218874e-02 -1.31641694e+07],177,1224.7448406463977
437,437,[-5.92854465e+03  3.32369532e+02 -8.05883858e-03 -1.31641694e+07],402,1222.026299100108
438,438,[-4.71784188e+03  3.32369325e+02 -5.50415274e-03 -1.31641694e+07],734,1215.9022933867998
439,439,[-6.10037462e+03  3.30367276e+02 -7.25727515e-03 -1.31641694e+07],948,1205.708894860372
440,440,[-4.91154252e+03  3.33370440e+02 -5.58724342e-03 -1.31641694e+07],973,1206.1057782483817
441,441,[-4.81539673e+03  3.33370470e+02 -5.33503790e-03 -1.31641694e+07],169,1209.1758173525361
442,442,[-6.34927297e+03  3.31368197e+02 -9.12373416e-03 -1.31641694e+07],429,1218.6474600972645
443,443,[-5.75299069e+03  3.30367076e+02 -9.70340013e-03 -1.31641694e+07],1067,1211.2660036423952
444,444,[-5.63956775e+03  3.31368225e+02 -8.33712944e-03 -1.31641694e+07],252,1219.488764960992
445,445,[-5.54950580e+03  3.31368258e+02 -8.19110368e-03 -1.31641694e+07],774,1221.9064107985846
446,446,[-5.79268126e+03  3.31368246e+02 -8.20217222e-03 -1.31641694e+07],356,1218.1907469354567
447,447,[-5.66835493e+03  3.30367100e+02 -7.56640019e-03 -1.31641694e+07],335,1220.9740648808206
448,448,[-6.27975772e+03  3.31368273e+02 -8.42028459e-03 -1.31641694e+07],1223,1224.5111107346654
449,449,[-4.79449288e+03  3.31368192e+02 -7.66472524e-03 -1.31641694e+07],775,1224.2042480697057
450,450,[-5.44456690e+03  3.30367096e+02 -7.01960898e-03 -1.31641694e+07],308,1218.899558715498
451,451,[-5.68090634e+03  3.30367226e+02 -7.63681123e-03 -1.31641694e+07],527,1222.960546857669
452,452,[-4.80659752e+03  3.32369355e+02 -7.16841814e-03 -1.31641694e+07],1089,1222.5821452739997
453,453,[-6.85677378e+03  3.29366002e+02 -1.01799215e-02 -1.31641694e+07],209,1223.448538633015
454,454,[-6.30335974e+03  3.30367227e+02 -8.57528343e-03 -1.31641694e+07],369,1224.960526264266
455,455,[-5.72384662e+03  3.31368487e+02 -8.00013513e-03 -1.31641694e+07],591,1222.669230184874
456,456,[-5.90580477e+03  3.29366030e+02 -8.53321963e-03 -1.31641694e+07],21,1223.7939333147922
457,457,[-6.78825390e+03  3.29365964e+02 -8.56264862e-03 -1.31641694e+07],584,1218.3748792547922
458,458,[-5.27310595e+03  3.31368223e+02 -6.12803375e-03 -1.31641694e+07],657,1220.192923552289
459,459,[-5.43681310e+03  3.30367158e+02 -9.05342052e-03 -1.31641694e+07],1039,1222.1621440913152
460,460,[-6.29298891e+03  3.31368255e+02 -8.36542594e-03 -1.31641694e+07],1142,1219.943330408761
461,461,[-6.92022523e+03  3.30367075e+02 -8.49431744e-03 -1.31641694e+07],1127,1221.7068437536566
462,462,[-7.20188453e+03  3.29365979e+02 -9.90647741e-03 -1.31641694e+07],461,1221.125327906188
463,463,[-5.51768569e+03  3.31368198e+02 -7.92225397e-03 -1.31641694e+07],598,1222.0684214142693
464,464,[-5.65181139e+03  3.31368303e+02 -8.44462615e-03 -1.31641694e+07],71,1217.3072041790404
465,465,[-5.58201684e+03  3.30367117e+02 -8.26686381e-03 -1.31641694e+07],1118,1224.5903669826025
466,466,[-5.02253320e+03  3.33370576e+02 -5.51590271e-03 -1.31641694e+07],587,1218.332296856588
467,467,[-6.30543269e+03  3.30367133e+02 -8.50564599e-03 -1.31641694e+07],1013,1223.0121183600204
468,468,[-5.63606200e+03  3.31368200e+02 -7.91776060e-03 -1.31641694e+07],494,1218.9920784260642
469,469,[-5.18835688e+03  3.31368328e+02 -6.38628226e-03 -1.31641694e+07],537,1223.3151678762558
470,470,[-4.38730067e+03  3.33370604e+02 -5.62442783e-03 -1.31641694e+07],368,1222.2846012020432
471,471,[-6.95438350e+03  3.28364871e+02 -1.09624974e-02 -1.31641694e+07],363,1218.4516265058855
472,472,[-4.67486405e+03  3.31368253e+02 -6.52305952e-03 -1.31641694e+07],873,1221.4006334510302
473,473,[-6.82685303e+03  3.31368261e+02 -7.70653777e-03 -1.31641694e+07],1045,1215.333041753053
474,474,[-6.95557540e+03  3.29366025e+02 -1.02320774e-02 -1.31641694e+07],396,1221.4856450647014
475,475,[-6.19662955e+03  3.32369378e+02 -8.04462980e-03 -1.31641694e+07],171,1223.3833663949995
476,476,[-4.36140545e+03  3.34371667e+02 -5.43681050e-03 -1.31641694e+07],23,1217.3922220433294
477,477,[-7.24260375e+03  3.30367264e+02 -8.62127715e-03 -1.31641694e+07],1169,1222.6638923295334
478,478,[-6.50003896e+03  3.29365964e+02 -9.28582241e-03 -1.31641694e+07],478,1221.5908561371564
479,479,[-6.42200798e+03  3.29365977e+02 -8.69043251e-03 -1.31641694e+07],89,1220.3064281596055
480,480,[-5.87499280e+03  3.30367102e+02 -7.44540165e-03 -1.31641694e+07],143,1219.4511962256001
481,481,[-5.83651668e+03  3.31368201e+02 -7.86441737e-03 -1.31641694e+07],312,1221.5140738092616
482,482,[-4.75415315e+03  3.32369471e+02 -5.84105267e-03 -1.31641694e+07],112,1224.5900956310925
483,483,[-5.75641140e+03  3.30367202e+02 -8.50144282e-03 -1.31641694e+07],666,1219.98361850205
484,484,[-5.68773276e+03  3.31368209e+02 -7.88841597e-03 -1.31641694e+07],12,1224.0666597547995
485,485,[-7.32010343e+03  3.29365993e+02 -1.00438597e-02 -1.31641694e+07],229,1222.8033617203484
486,486,[-4.62142292e+03  3.31368301e+02 -7.40198326e-03 -1.31641694e+07],39,1222.5578597562687
487,487,[-6.84378838e+03  3.28364933e+02 -1.06452304e-02 -1.31641694e+07],299,1221.4086770496838
488,488,[-5.45292144e+03  3.31368254e+02 -8.03453056e-03 -1.31641694e+07],626,1219.8233724863514
489,489,[-6.83209487e+03  3.29366028e+02 -1.01127781e-02 -1.31641694e+07],777,1224.0238986458571
490,490,[-7.02974452e+03  3.28364927e+02 -1.10704878e-02 -1.31641694e+07],869,1221.2241746374907
491,491,[-6.22104027e+03  3.31368269e+02 -8.55456220e-03 -1.31641694e+07],428,1218.1066560987017
492,492,[-6.91827795e+03  3.29366084e+02 -1.01845820e-02 -1.31641694e+07],481,1224.2381154414143
493,493,[-5.87032041e+03  3.31368209e+02 -8.08199229e-03 -1.31641694e+07],753,1219.7887049773344
494,494,[-6.29762500e+03  3.29366011e+02 -9.51018043e-03 -1.31641694e+07],431,1221.6580923014046
495,495,[-5.70549509e+03  3.30367197e+02 -7.50155249e-03 -1.31641694e+07],531,1224.068246606591
496,496,[-6.42794577e+03  3.29365964e+02 -9.93371539e-03 -1.31641694e+07],1085,1223.9519424601906
497,497,[-6.31179207e+03  3.30367136e+02 -9.09520464e-03 -1.31641694e+07],554,1223.8093102501437
498,498,[-5.85905806e+03  3.29365973e+02 -9.12657422e-03 -1.31641694e+07],510,1219.5338945262633
499,499,[-5.90487036e+03  3.31368224e+02 -7.85031334e-03 -1.31641694e+07],474,1222.6807629156551
500,500,[-5.61143108e+03  3.30367147e+02 -7.14570099e-03 -1.31641694e+07],330,1219.1417724745686
501,501,[-4.97331121e+03  3.31368190e+02 -5.70705522e-03 -1.31641694e+07],406,1214.2833237651205
502,502,[-6.82086466e+03  3.29365979e+02 -1.12607872e-02 -1.31641694e+07],955,1220.4185173523801
503,503,[-6.08152851e+03  3.30367101e+02 -9.46066484e-03 -1.31641694e+07],1195,1213.2298640377157
504,504,[-5.68517982e+03  3.30367092e+02 -6.76184337e-03 -1.31641694e+07],1016,1218.6049679872115
505,505,[-5.31812144e+03  3.30367085e+02 -7.58112999e-03 -1.31641694e+07],155,1220.2534152347291
506,506,[-5.54563266e+03  3.31368234e+02 -8.03305967e-03 -1.31641694e+07],1228,1222.5202508690345
507,507,[-5.49106323e+03  3.31368416e+02 -7.98802148e-03 -1.31641694e+07],754,1220.6146925300025
508,508,[-5.72053578e+03  3.29366050e+02 -9.11476058e-03 -1.31641694e+07],876,1217.481325477995
509,509,[-6.64682969e+03  3.29365990e+02 -9.35632012e-03 -1.31641694e+07],771,1222.476868065124
510,510,[-6.15583033e+03  3.31368265e+02 -7.87211622e-03 -1.31641694e+07],403,1221.4872662728415
511,511,[-5.57947538e+03  3.30367077e+02 -6.73931603e-03 -1.31641694e+07],854,1217.3433322212766
512,512,[-5.06741076e+03  3.31368276e+02 -6.14051186e-03 -1.31641694e+07],1148,1223.341209511382
513,513,[-4.41969608e+03  3.33370609e+02 -5.62177962e-03 -1.31641694e+07],937,1219.288886253354
514,514,[-5.62365357e+03  3.31368291e+02 -8.01710121e-03 -1.31641694e+07],752,1220.5864596479814
515,515,[-6.74613683e+03  3.31368220e+02 -7.56875798e-03 -1.31641694e+07],487,1220.9487945874841
516,516,[-6.47964101e+03  3.29366157e+02 -9.94173811e-03 -1.31641694e+07],472,1222.4928979139963
517,517,[-6.33104333e+03  3.29366033e+02 -9.09084365e-03 -1.31641694e+07],683,1223.8798923250577
518,518,[-4.86521986e+03  3.33370419e+02 -5.61679207e-03 -1.31641694e+07],376,1219.5823018408526
519,519,[-6.01452735e+03  3.31368196e+02 -6.91509165e-03 -1.31641694e+07],800,1222.835007883289
520,520,[-6.12112616e+03  3.31368232e+02 -7.88574552e-03 -1.31641694e+07],100,1222.3184960800202
521,521,[-5.26019350e+03  3.31368240e+02 -8.25166208e-03 -1.31641694e+07],111,1212.3384321164642
522,522,[-5.41543758e+03  3.31368288e+02 -7.69312568e-03 -1.31641694e+07],1094,1216.6086640037572
523,523,[-4.24523335e+03  3.34372055e+02 -5.42871561e-03 -1.31641694e+07],159,1218.5270196385895
524,524,[-5.98260310e+03  3.30367119e+02 -8.62037489e-03 -1.31641694e+07],93,1220.68998658964
525,525,[-6.33541317e+03  3.29366050e+02 -9.90498890e-03 -1.31641694e+07],841,1219.58938865342
526,526,[-6.67728122e+03  3.29366146e+02 -1.00722430e-02 -1.31641694e+07],728,1219.9500290593835
527,527,[-5.65880412e+03  3.31368351e+02 -8.05468725e-03 -1.31641694e+07],249,1221.760366588349
528,528,[-6.66506193e+03  3.29366021e+02 -1.00317738e-02 -1.31641694e+07],331,1222.617580529325
529,529,[-4.86496500e+03  3.33370483e+02 -5.52204609e-03 -1.31641694e+07],119,1220.0360518214522
530,530,[-5.09144831e+03  3.31368281e+02 -5.70267627e-03 -1.31641694e+07],404,1219.4844738917336
531,531,[-5.34364472e+03  3.30367100e+02 -8.11556992e-03 -1.31641694e+07],849,1221.4945510229963
532,532,[-4.35938510e+03  3.33370742e+02 -5.69382421e-03 -1.31641694e+07],978,1216.436879573727
533,533,[-5.32467245e+03  3.32369435e+02 -6.15506082e-03 -1.31641694e+07],78,1219.576337509628
534,534,[-5.96349737e+03  3.31368258e+02 -8.27628999e-03 -1.31641694e+07],673,1219.8779713058086
535,535,[-6.05045023e+03  3.29365985e+02 -9.63577676e-03 -1.31641694e+07],1129,1217.8211031494516
536,536,[-6.78936665e+03  3.29365977e+02 -9.78644741e-03 -1.31641694e+07],31,1223.3595750837994
537,537,[-5.46528659e+03  3.32369355e+02 -6.04366184e-03 -1.31641694e+07],782,1221.6503285034626
538,538,[-6.58305073e+03  3.29366037e+02 -1.01912294e-02 -1.31641694e+07],564,1224.6327764588896
539,539,[-5.94383639e+03  3.31368328e+02 -7.85357242e-03 -1.31641694e+07],798,1222.5320324624684
540,540,[-6.08158954e+03  3.29366007e+02 -9.01158114e-03 -1.31641694e+07],94,1222.3886511311807
541,541,[-4.93454642e+03  3.33370703e+02 -5.44491699e-03 -1.31641694e+07],490,1220.629240735713
542,542,[-6.37010060e+03  3.30367159e+02 -7.80397691e-03 -1.31641694e+07],805,1222.444025967235
543,543,[-6.13984217e+03  3.31368206e+02 -8.78122085e-03 -1.31641694e+07],548,1220.7677267595761
544,544,[-5.53026444e+03  3.30367122e+02 -7.71986049e-03 -1.31641694e+07],766,1222.829712853827
545,545,[-5.20629245e+03  3.31368270e+02 -5.94562960e-03 -1.31641694e+07],567,1220.130242085299
546,546,[-5.72372230e+03  3.30367164e+02 -7.09501854e-03 -1.31641694e+07],723,1221.9368112377795
547,547,[-6.19222801e+03  3.31368317e+02 -8.96929469e-03 -1.31641694e+07],14,1215.304492695071
548,548,[-6.39837010e+03  3.29365971e+02 -9.14829770e-03 -1.31641694e+07],767,1221.2092635168067
549,549,[-6.83028918e+03  3.29365986e+02 -9.76166080e-03 -1.31641694e+07],784,1224.8168894211658
550,550,[-5.85501023e+03  3.32369410e+02 -8.50151095e-03 -1.31641694e+07],724,1224.6531109748516
551,551,[-6.02170530e+03  3.31368230e+02 -6.83569254e-03 -1.31641694e+07],590,1223.9824958015145
552,552,[-5.78760232e+03  3.31368218e+02 -8.08816275e-03 -1.31641694e+07],83,1222.2424059177606
553,553,[-5.76826225e+03  3.30367126e+02 -8.68158115e-03 -1.31641694e+07],173,1217.2551046094152
554,554,[-5.91661725e+03  3.32369409e+02 -8.12712335e-03 -1.31641694e+07],423,1221.4887821888813
555,555,[-4.42200924e+03  3.33370499e+02 -5.64951764e-03 -1.31641694e+07],1071,1219.785296110157
556,556,[-4.59758684e+03  3.31368227e+02 -7.57614884e-03 -1.31641694e+07],462,1217.612302494955
557,557,[-4.26236657e+03  3.34371564e+02 -5.51477559e-03 -1.31641694e+07],1191,1216.868200413247
558,558,[-6.05637484e+03  3.30367140e+02 -7.47702893e-03 -1.31641694e+07],130,1222.335480081723
559,559,[-4.16747913e+03  3.34371591e+02 -5.35902649e-03 -1.31641694e+07],52,1222.6811795197798
560,560,[-6.05337080e+03  3.31368227e+02 -8.62578624e-03 -1.31641694e+07],1008,1215.642405017298
561,561,[-6.06721631e+03  3.31368228e+02 -7.40129654e-03 -1.31641694e+07],984,1220.9361008374776
562,562,[-6.57663434e+03  3.31368234e+02 -7.71657325e-03 -1.31641694e+07],156,1214.9615231801545
563,563,[-6.18744641e+03  3.31368278e+02 -8.20785691e-03 -1.31641694e+07],360,1216.3614182507245
564,564,[-4.61103642e+03  3.32369556e+02 -7.09056601e-03 -1.31641694e+07],383,1221.248391693698
565,565,[-4.68959617e+03  3.31368436e+02 -7.50210363e-03 -1.31641694e+07],920,1222.6849834744173
566,566,[-5.18378022e+03  3.31368418e+02 -7.40530326e-03 -1.31641694e+07],170,1214.8000568554257
567,567,[-5.55156887e+03  3.31368325e+02 -8.17202865e-03 -1.31641694e+07],608,1221.2064156205374
568,568,[-6.84405253e+03  3.29365977e+02 -1.13497163e-02 -1.31641694e+07],615,1216.8420017958244
569,569,[-5.25063407e+03  3.32369328e+02 -6.25689515e-03 -1.31641694e+07],1025,1219.0555158207248
570,570,[-6.22411037e+03  3.29366147e+02 -1.14556794e-02 -1.31641694e+07],178,1222.705801034177
571,571,[-4.81943475e+03  3.31368283e+02 -6.63391820e-03 -1.31641694e+07],1063,1219.0153302235997
572,572,[-6.37780425e+03  3.29366015e+02 -9.86164221e-03 -1.31641694e+07],64,1221.9251097650492
573,573,[-5.37474971e+03  3.31368204e+02 -7.27136886e-03 -1.31641694e+07],447,1222.0853925393553
574,574,[-6.03918354e+03  3.31368238e+02 -6.69017244e-03 -1.31641694e+07],394,1218.2867757968702
575,575,[-6.31336119e+03  3.31368188e+02 -7.94883532e-03 -1.31641694e+07],189,1211.942441442404
576,576,[-4.78647718e+03  3.31368233e+02 -6.54763436e-03 -1.31641694e+07],983,1217.8238375882106
577,577,[-4.26099419e+03  3.33370412e+02 -5.67739236e-03 -1.31641694e+07],592,1219.8351599420625
578,578,[-6.72410882e+03  3.29366040e+02 -9.07987225e-03 -1.31641694e+07],898,1217.2643909628766
579,579,[-5.50836757e+03  3.31368296e+02 -6.94705621e-03 -1.31641694e+07],515,1219.2824997020987
580,580,[-4.19883567e+03  3.34371643e+02 -5.34653075e-03 -1.31641694e+07],38,1223.9085714174284
581,581,[-6.09564623e+03  3.31368187e+02 -8.83136866e-03 -1.31641694e+07],248,1217.0398358492212
582,582,[-6.01694692e+03  3.30367149e+02 -8.95638414e-03 -1.31641694e+07],362,1218.2557702822774
583,583,[-5.65041639e+03  3.32369343e+02 -6.13836004e-03 -1.31641694e+07],561,1220.807428305537
584,584,[-4.82976682e+03  3.33370613e+02 -5.68803605e-03 -1.31641694e+07],409,1221.738782000272
585,585,[-5.58874205e+03  3.30367252e+02 -8.40610402e-03 -1.31641694e+07],302,1222.3283440335188
586,586,[-5.96538959e+03  3.30367141e+02 -8.65700649e-03 -1.31641694e+07],242,1222.72905409817
587,587,[-5.62694249e+03  3.31368313e+02 -8.15179972e-03 -1.31641694e+07],107,1221.6892152147846
588,588,[-6.17416409e+03  3.29366015e+02 -8.79166625e-03 -1.31641694e+07],420,1219.4914616382705
589,589,[-4.11978218e+03  3.35372850e+02 -5.41890794e-03 -1.31641694e+07],980,1214.9831261027864
590,590,[-4.09508950e+03  3.35372655e+02 -5.30281363e-03 -1.31641694e+07],614,1221.162497291887
591,591,[-4.66297802e+03  3.31368381e+02 -7.65809127e-03 -1.31641694e+07],763,1221.7429907311962
592,592,[-5.66536914e+03  3.31368315e+02 -8.17780249e-03 -1.31641694e+07],61,1220.9611945273887
593,593,[-4.90186360e+03  3.31368223e+02 -6.68967158e-03 -1.31641694e+07],1099,1224.1323830719443
594,594,[-7.03168342e+03  3.28364883e+02 -1.10412214e-02 -1.31641694e+07],743,1222.3361575654767
595,595,[-4.64533892e+03  3.33370519e+02 -5.97238043e-03 -1.31641694e+07],1219,1217.5616448859903
596,596,[-5.34163963e+03  3.32369403e+02 -6.26894652e-03 -1.31641694e+07],883,1220.8081442155853
597,597,[-6.21967921e+03  3.29366030e+02 -9.52928816e-03 -1.31641694e+07],1069,1224.2556401774748
598,598,[-4.42034400e+03  3.33370575e+02 -5.67297815e-03 -1.31641694e+07],1012,1221.7037621034433
599,599,[-6.02166059e+03  3.31368280e+02 -8.61630371e-03 -1.31641694e+07],1208,1215.544405774221
600,600,[-6.12246601e+03  3.29366178e+02 -9.45973697e-03 -1.31641694e+07],1214,1220.7057481918794
601,601,[-6.80781031e+03  3.29366032e+02 -7.92234693e-03 -1.31641694e+07],319,1216.008844789535
602,602,[-6.95416357e+03  3.29365981e+02 -9.07815777e-03 -1.31641694e+07],596,1187.6790246746557
603,603,[-4.33084734e+03  3.31368225e+02 -6.92430476e-03 -1.31641694e+07],583,1210.7559967510404
604,604,[-5.49526213e+03  3.30367200e+02 -7.88980240e-03 -1.31641694e+07],239,1219.3867779795187
605,605,[-6.49301978e+03  3.30367115e+02 -8.12930580e-03 -1.31641694e+07],947,1214.8831704977918
606,606,[-5.15215554e+03  3.29366235e+02 -9.36481549e-03 -1.31641694e+07],137,1217.6058236233944
607,607,[-5.42030908e+03  3.31368417e+02 -8.40787912e-03 -1.31641694e+07],543,1223.091528142734
608,608,[-5.69669965e+03  3.31368229e+02 -8.30142399e-03 -1.31641694e+07],379,1221.0054647463967
609,609,[-6.24641504e+03  3.31368234e+02 -7.40858862e-03 -1.31641694e+07],43,1219.9282706891493
610,610,[-6.55352459e+03  3.29366077e+02 -1.02665590e-02 -1.31641694e+07],28,1223.3958008394056
611,611,[-5.60438867e+03  3.31368367e+02 -8.06300390e-03 -1.31641694e+07],708,1224.5970894383806
612,612,[-4.03810233e+03  3.35372858e+02 -5.32424491e-03 -1.31641694e+07],942,1222.3523247547084
613,613,[-4.92615538e+03  3.33370459e+02 -5.63451292e-03 -1.31641694e+07],371,1217.6016082622825
614,614,[-4.66525573e+03  3.31368249e+02 -6.42437548e-03 -1.31641694e+07],3,1220.8796219194028
615,615,[-5.03120441e+03  3.31368442e+02 -6.54720484e-03 -1.31641694e+07],1158,1220.990310212792
616,616,[-6.66057403e+03  3.29366022e+02 -8.69672082e-03 -1.31641694e+07],114,1221.988215539667
617,617,[-4.29609857e+03  3.33370672e+02 -5.69543473e-03 -1.31641694e+07],1091,1222.4218077059415
618,618,[-5.81495175e+03  3.31368248e+02 -8.36293728e-03 -1.31641694e+07],1160,1219.8331454348754
619,619,[-4.87681007e+03  3.31368276e+02 -6.62738690e-03 -1.31641694e+07],1145,1222.1887220825565
620,620,[-5.44213293e+03  3.30367227e+02 -6.68377538e-03 -1.31641694e+07],600,1219.6201926805893
621,621,[-5.60983582e+03  3.31368241e+02 -8.03597540e-03 -1.31641694e+07],87,1223.9799371348834
622,622,[-4.65247084e+03  3.33370476e+02 -5.94970770e-03 -1.31641694e+07],116,1219.6736484472087
623,623,[-4.85955827e+03  3.33370548e+02 -5.57215127e-03 -1.31641694e+07],524,1220.0959739280115
624,624,[-5.64941846e+03  3.30367109e+02 -7.66471298e-03 -1.31641694e+07],55,1221.8904882151314
625,625,[-6.09998032e+03  3.31368203e+02 -8.80727182e-03 -1.31641694e+07],29,1217.391399444599
626,626,[-5.72751023e+03  3.31368241e+02 -7.97412254e-03 -1.31641694e+07],200,1221.5409573935626
627,627,[-6.22786637e+03  3.30367157e+02 -7.92811030e-03 -1.31641694e+07],231,1224.0771998257117
628,628,[-5.55031881e+03  3.31368252e+02 -7.99438833e-03 -1.31641694e+07],251,1224.6269815610149
629,629,[-5.93721770e+03  3.31368196e+02 -7.98022056e-03 -1.31641694e+07],318,1222.4148315451052
630,630,[-5.54948420e+03  3.31368397e+02 -8.08108771e-03 -1.31641694e+07],10,1223.8590764496128
631,631,[-6.19756753e+03  3.31368216e+02 -6.84296392e-03 -1.31641694e+07],824,1218.258349553441
632,632,[-4.61089589e+03  3.31368221e+02 -5.69974704e-03 -1.31641694e+07],367,1213.7550680647232
633,633,[-5.37688307e+03  3.30367229e+02 -8.20259412e-03 -1.31641694e+07],541,1216.9008174897838
634,634,[-4.91268852e+03  3.31368265e+02 -7.75536893e-03 -1.31641694e+07],99,1211.849801767611
635,635,[-5.29323234e+03  3.32369323e+02 -9.23269685e-03 -1.31641694e+07],1046,1211.815233400464
636,636,[-6.09447265e+03  3.31368221e+02 -8.24725366e-03 -1.31641694e+07],1224,1217.5756190662864
637,637,[-5.88621925e+03  3.30367101e+02 -8.98758444e-03 -1.31641694e+07],507,1223.8205120860114
638,638,[-4.52271618e+03  3.31368216e+02 -6.43573948e-03 -1.31641694e+07],82,1220.0229848467409
639,639,[-4.41101747e+03  3.33370520e+02 -5.74456592e-03 -1.31641694e+07],140,1222.86727295263
640,640,[-5.12653963e+03  3.30367261e+02 -7.92344017e-03 -1.31641694e+07],283,1222.276371323055
641,641,[-6.37363012e+03  3.30367189e+02 -7.77706663e-03 -1.31641694e+07],1112,1211.2923735346724
642,642,[-5.63337833e+03  3.31368223e+02 -8.31598875e-03 -1.31641694e+07],514,1218.0368659972617
643,643,[-5.79326279e+03  3.29366167e+02 -9.22564463e-03 -1.31641694e+07],674,1219.5613543564557
644,644,[-6.99389164e+03  3.29366061e+02 -1.11287387e-02 -1.31641694e+07],150,1224.358451855949
645,645,[-5.44094710e+03  3.31368222e+02 -7.08791219e-03 -1.31641694e+07],1146,1224.1252451614876
646,646,[-7.82317104e+03  3.29366004e+02 -1.12721228e-02 -1.31641694e+07],1119,1222.9086639114407
647,647,[-4.82360129e+03  3.32369326e+02 -7.07163389e-03 -1.31641694e+07],1088,1222.6950701131025
648,648,[-5.18547485e+03  3.33370545e+02 -5.55602235e-03 -1.31641694e+07],414,1213.4216658480234
649,649,[-5.86179137e+03  3.31368300e+02 -8.29784128e-03 -1.31641694e+07],132,1220.2732871722346
650,650,[-5.48720079e+03  3.31368330e+02 -8.40078933e-03 -1.31641694e+07],1095,1214.44423787707
651,651,[-5.56252644e+03  3.31368213e+02 -8.17893463e-03 -1.31641694e+07],839,1221.9842572355376
652,652,[-6.32475412e+03  3.29366139e+02 -8.03647139e-03 -1.31641694e+07],36,1219.6458724179936
653,653,[-5.72820077e+03  3.30367088e+02 -7.63742593e-03 -1.31641694e+07],672,1223.1127918805773
654,654,[-5.20185369e+03  3.32369421e+02 -6.44469782e-03 -1.31641694e+07],199,1225.2277919028018
655,655,[-5.72668523e+03  3.31368238e+02 -8.05482348e-03 -1.31641694e+07],1229,1224.0669393591766
656,656,[-4.62187668e+03  3.33370474e+02 -5.98041779e-03 -1.31641694e+07],25,1219.8933477805044
657,657,[-6.75546907e+03  3.30367190e+02 -8.29817615e-03 -1.31641694e+07],502,1221.7261674231577
658,658,[-6.83017695e+03  3.29366078e+02 -9.13251508e-03 -1.31641694e+07],190,1211.5525130861456
659,659,[-5.07226093e+03  3.33370435e+02 -5.33844355e-03 -1.31641694e+07],818,1199.9873518743148
660,660,[-4.19211694e+03  3.32369469e+02 -5.15558426e-03 -1.31641694e+07],162,1193.0263689667433
661,661,[-4.64773886e+03  3.33370521e+02 -5.53884808e-03 -1.31641694e+07],925,1218.245960291757
662,662,[-5.51798319e+03  3.30367080e+02 -9.90262659e-03 -1.31641694e+07],241,1207.216779112193
663,663,[-5.21250007e+03  3.31368245e+02 -8.55610242e-03 -1.31641694e+07],320,1216.8514592387328
664,664,[-6.63961810e+03  3.30367137e+02 -1.16537156e-02 -1.31641694e+07],897,1212.47410561804
665,665,[-5.66940047e+03  3.31368391e+02 -8.05563790e-03 -1.31641694e+07],1211,1218.1278674899443
666,666,[-4.90616628e+03  3.31368221e+02 -6.54311746e-03 -1.31641694e+07],96,1221.5586700864737
667,667,[-7.33424722e+03  3.29365974e+02 -1.11600529e-02 -1.31641694e+07],977,1222.3434149051068
668,668,[-5.86820936e+03  3.31368309e+02 -8.07323585e-03 -1.31641694e+07],124,1223.2280699831074
669,669,[-5.89037185e+03  3.31368273e+02 -8.06631678e-03 -1.31641694e+07],785,1222.8510502363672
670,670,[-4.67052970e+03  3.33370458e+02 -5.79028775e-03 -1.31641694e+07],138,1219.6846403197417
671,671,[-4.36930832e+03  3.34371674e+02 -5.50586542e-03 -1.31641694e+07],5,1218.5588849545034
672,672,[-5.60427482e+03  3.30367115e+02 -7.68269035e-03 -1.31641694e+07],479,1220.450088921617
673,673,[-6.03911878e+03  3.32369414e+02 -8.52067933e-03 -1.31641694e+07],819,1221.2696931002872
674,674,[-5.59291799e+03  3.30367127e+02 -7.21017141e-03 -1.31641694e+07],874,1220.5858973990967
675,675,[-7.51633015e+03  3.29365991e+02 -1.11660965e-02 -1.31641694e+07],353,1224.1322931589193
676,676,[-5.43185427e+03  3.31368511e+02 -7.02613930e-03 -1.31641694e+07],891,1216.1825427874123
677,677,[-4.60821155e+03  3.31368259e+02 -5.53435086e-03 -1.31641694e+07],649,1204.4388879425796
678,678,[-5.11114678e+03  3.32369321e+02 -8.01718858e-03 -1.31641694e+07],789,1215.8856839049204
679,679,[-5.62896119e+03  3.31368231e+02 -8.12818713e-03 -1.31641694e+07],1189,1222.781868203233
680,680,[-5.60832566e+03  3.31368190e+02 -8.38451948e-03 -1.31641694e+07],374,1210.5248795362734
681,681,[-6.70328716e+03  3.30367085e+02 -8.38587295e-03 -1.31641694e+07],836,1223.0440742554836
682,682,[-6.82624852e+03  3.28364915e+02 -1.11538564e-02 -1.31641694e+07],505,1219.4717231966645
683,683,[-5.35662586e+03  3.32369377e+02 -6.24253036e-03 -1.31641694e+07],24,1221.3922674396517
684,684,[-6.06755529e+03  3.31368308e+02 -6.91848036e-03 -1.31641694e+07],737,1219.4188815830178
685,685,[-5.24051289e+03  3.32369350e+02 -6.63005693e-03 -1.31641694e+07],41,1212.4088604272604
686,686,[-5.08489076e+03  3.32369304e+02 -6.30080915e-03 -1.31641694e+07],1196,1211.3528402448094
687,687,[-5.45374841e+03  3.31368208e+02 -6.56086578e-03 -1.31641694e+07],756,1215.269126113593
688,688,[-5.36736569e+03  3.32369312e+02 -6.00630476e-03 -1.31641694e+07],1197,1220.0403848262588
689,689,[-5.74204576e+03  3.30367106e+02 -7.59135426e-03 -1.31641694e+07],243,1216.583733785705
690,690,[-5.65863781e+03  3.30367160e+02 -9.13897615e-03 -1.31641694e+07],458,1217.1310792965198
691,691,[-6.16548940e+03  3.29365975e+02 -1.02021116e-02 -1.31641694e+07],378,1217.852944456532
692,692,[-4.38356284e+03  3.32369411e+02 -6.97464614e-03 -1.31641694e+07],832,1222.3991111880612
693,693,[-5.06162579e+03  3.31368360e+02 -7.90804751e-03 -1.31641694e+07],397,1222.2382351595365
694,694,[-4.07237238e+03  3.33370747e+02 -5.47548156e-03 -1.31641694e+07],85,1222.376971060675
695,695,[-6.38925214e+03  3.29365965e+02 -8.30404149e-03 -1.31641694e+07],154,1219.9933408041234
696,696,[-6.29098101e+03  3.31368197e+02 -8.25462739e-03 -1.31641694e+07],136,1219.8592026642877
697,697,[-6.59723422e+03  3.30367291e+02 -8.90430280e-03 -1.31641694e+07],704,1225.2383511213297
698,698,[-7.64805954e+03  3.29365972e+02 -1.12184100e-02 -1.31641694e+07],545,1224.4735427009125
699,699,[-5.54123130e+03  3.30367104e+02 -6.68512354e-03 -1.31641694e+07],1137,1218.103501470932
700,700,[-5.31056380e+03  3.33370489e+02 -5.49947022e-03 -1.31641694e+07],350,1212.9424036109042
701,701,[-5.36951156e+03  3.31368252e+02 -8.13637837e-03 -1.31641694e+07],780,1219.1550898830826
702,702,[-5.60094954e+03  3.30367090e+02 -7.14528460e-03 -1.31641694e+07],623,1217.6468136289234
703,703,[-5.55616665e+03  3.30367075e+02 -7.00697086e-03 -1.31641694e+07],255,1219.8835006614927
704,704,[-6.14386332e+03  3.29366095e+02 -8.84927127e-03 -1.31641694e+07],1126,1220.1415647322228
705,705,[-5.54709056e+03  3.31368257e+02 -7.13135375e-03 -1.31641694e+07],963,1224.3546572035093
706,706,[-6.90479679e+03  3.30367165e+02 -9.16943406e-03 -1.31641694e+07],217,1222.209429409663
707,707,[-6.21727967e+03  3.29366026e+02 -8.24287156e-03 -1.31641694e+07],952,1217.3786326811405
708,708,[-6.17704569e+03  3.31368219e+02 -7.61237289e-03 -1.31641694e+07],941,1220.7509129427644
709,709,[-6.30345937e+03  3.29365964e+02 -9.09187366e-03 -1.31641694e+07],688,1223.8907680779612
710,710,[-6.58185616e+03  3.29366143e+02 -9.41900827e-03 -1.31641694e+07],267,1222.4858471267062
711,711,[-5.95014856e+03  3.31368249e+02 -6.55449325e-03 -1.31641694e+07],529,1216.916914767617
712,712,[-5.02498403e+03  3.33370446e+02 -5.60127475e-03 -1.31641694e+07],1204,1207.0929169279275
713,713,[-4.38238563e+03  3.31368228e+02 -6.65503718e-03 -1.31641694e+07],336,1206.0887700726037
714,714,[-6.05718128e+03  3.29366083e+02 -9.14595813e-03 -1.31641694e+07],115,1206.923534425249
715,715,[-5.40984655e+03  3.31368259e+02 -8.25751783e-03 -1.31641694e+07],930,1216.6446466744117
716,716,[-5.41416075e+03  3.30367111e+02 -8.23874724e-03 -1.31641694e+07],638,1218.1941311286942
717,717,[-5.69543390e+03  3.30367131e+02 -7.67943959e-03 -1.31641694e+07],1109,1221.8828989986685
718,718,[-4.50158559e+03  3.31368228e+02 -6.35913006e-03 -1.31641694e+07],77,1224.2860756991306
719,719,[-5.71378453e+03  3.31368197e+02 -8.22091549e-03 -1.31641694e+07],321,1223.1786975368527
720,720,[-6.87014327e+03  3.29365996e+02 -1.01977317e-02 -1.31641694e+07],695,1225.1783727024083
721,721,[-5.85254535e+03  3.31368290e+02 -8.16634661e-03 -1.31641694e+07],483,1222.652843786314
722,722,[-6.87120777e+03  3.29366096e+02 -9.74218822e-03 -1.31641694e+07],1168,1223.7236883407895
723,723,[-5.28668653e+03  3.32369346e+02 -6.49689333e-03 -1.31641694e+07],979,1221.1846679000469
724,724,[-6.20908559e+03  3.31368206e+02 -8.26837375e-03 -1.31641694e+07],727,1221.163953032846
725,725,[-7.09706169e+03  3.29366054e+02 -9.61798303e-03 -1.31641694e+07],201,1214.5964884005136
726,726,[-4.98342505e+03  3.33370496e+02 -5.59105617e-03 -1.31641694e+07],526,1215.433455509756
727,727,[-6.86901749e+03  3.29365986e+02 -1.14097730e-02 -1.31641694e+07],110,1219.9547143457705
728,728,[-6.18101463e+03  3.29365971e+02 -9.57385498e-03 -1.31641694e+07],460,1221.3424040549564
729,729,[-4.35664857e+03  3.33370457e+02 -5.73170599e-03 -1.31641694e+07],1149,1222.9963319875485
730,730,[-6.45320716e+03  3.29366133e+02 -8.41990792e-03 -1.31641694e+07],764,1217.4337939005256
731,731,[-6.95479332e+03  3.29365979e+02 -1.09417758e-02 -1.31641694e+07],609,1222.1434645366642
732,732,[-6.22450935e+03  3.30367115e+02 -8.53289129e-03 -1.31641694e+07],268,1223.216967319389
733,733,[-5.67665143e+03  3.30367130e+02 -8.94547585e-03 -1.31641694e+07],126,1223.1922969494995
734,734,[-5.84726176e+03  3.31368203e+02 -8.17837927e-03 -1.31641694e+07],656,1221.841391542864
735,735,[-5.74678062e+03  3.32369379e+02 -6.13539854e-03 -1.31641694e+07],703,1217.1796694400791
736,736,[-5.69537767e+03  3.31368449e+02 -8.34540591e-03 -1.31641694e+07],534,1218.7750521130092
737,737,[-5.39438379e+03  3.31368241e+02 -8.32502830e-03 -1.31641694e+07],769,1220.245422498764
738,738,[-5.88813382e+03  3.31368196e+02 -9.61951272e-03 -1.31641694e+07],696,1212.9662533241162
739,739,[-4.08632433e+03  3.34371933e+02 -5.74688931e-03 -1.31641694e+07],807,1218.3336215101053
740,740,[-4.26334224e+03  3.33370523e+02 -5.75138895e-03 -1.31641694e+07],577,1222.284252883294
741,741,[-4.32458379e+03  3.33370655e+02 -6.00929517e-03 -1.31641694e+07],618,1223.9966078339864
742,742,[-5.04283449e+03  3.32369314e+02 -6.53238676e-03 -1.31641694e+07],488,1221.8926692394884
743,743,[-5.92908972e+03  3.31368542e+02 -8.06276586e-03 -1.31641694e+07],802,1220.8382373249485
744,744,[-6.54835738e+03  3.29366075e+02 -8.14743416e-03 -1.31641694e+07],1170,1209.0485622496533
745,745,[-5.95273434e+03  3.31368262e+02 -6.72644740e-03 -1.31641694e+07],1218,1216.4984065627245
746,746,[-5.82997579e+03  3.31368303e+02 -8.64439706e-03 -1.31641694e+07],772,1216.1863081881415
747,747,[-7.03980781e+03  3.29365985e+02 -1.02904749e-02 -1.31641694e+07],493,1218.408313415226
748,748,[-6.78001272e+03  3.29366104e+02 -1.15673704e-02 -1.31641694e+07],555,1215.9296040545075
749,749,[-5.86675548e+03  3.30367119e+02 -8.77378080e-03 -1.31641694e+07],2,1219.4312602301825
750,750,[-6.02151498e+03  3.30367299e+02 -8.88878569e-03 -1.31641694e+07],885,1222.1911872755607
751,751,[-6.92501225e+03  3.29366041e+02 -1.02520659e-02 -1.31641694e+07],917,1223.424853484417
752,752,[-5.49666639e+03  3.30367133e+02 -7.07155748e-03 -1.31641694e+07],92,1221.4175905880406
753,753,[-4.73173098e+03  3.33370528e+02 -5.82228547e-03 -1.31641694e+07],1134,1221.5038884390906
754,754,[-6.52360158e+03  3.31368208e+02 -7.44688670e-03 -1.31641694e+07],26,1221.438892076614
755,755,[-5.97631321e+03  3.31368244e+02 -6.47889900e-03 -1.31641694e+07],399,1216.7436167835847
756,756,[-5.85498659e+03  3.31368225e+02 -8.27996086e-03 -1.31641694e+07],1185,1220.2201825365637
757,757,[-5.92517790e+03  3.31368458e+02 -8.19631155e-03 -1.31641694e+07],1167,1222.7481439893809
758,758,[-5.69836597e+03  3.31368219e+02 -6.84610455e-03 -1.31641694e+07],670,1222.2980077130214
759,759,[-5.28662877e+03  3.30367200e+02 -8.02924906e-03 -1.31641694e+07],622,1222.251198519341
760,760,[-6.53493464e+03  3.29366002e+02 -1.09889943e-02 -1.31641694e+07],810,1222.4265091279
761,761,[-7.08751907e+03  3.29366002e+02 -1.04143415e-02 -1.31641694e+07],295,1222.9786126907989
762,762,[-5.91172188e+03  3.31368229e+02 -8.17043052e-03 -1.31641694e+07],1128,1223.1611811996097
763,763,[-5.66243716e+03  3.32369378e+02 -6.30432044e-03 -1.31641694e+07],337,1220.8663665733034
764,764,[-7.31348003e+03  3.29365973e+02 -1.14173144e-02 -1.31641694e+07],1150,1219.9331570449094
765,765,[-6.30025832e+03  3.31368214e+02 -8.09873232e-03 -1.31641694e+07],652,1214.9662102182895
766,766,[-5.98910385e+03  3.31368200e+02 -8.05712740e-03 -1.31641694e+07],770,1221.2081572572229
767,767,[-5.20334163e+03  3.31368232e+02 -6.09390537e-03 -1.31641694e+07],214,1221.1720241991843
768,768,[-6.11498216e+03  3.30367082e+02 -9.01930037e-03 -1.31641694e+07],273,1223.3596912543037
769,769,[-5.96876399e+03  3.29365996e+02 -9.37122068e-03 -1.31641694e+07],620,1219.8747670922912
770,770,[-4.95430610e+03  3.31368226e+02 -5.88345408e-03 -1.31641694e+07],889,1219.6348601012073
771,771,[-7.07449497e+03  3.28364911e+02 -1.10730750e-02 -1.31641694e+07],525,1221.4280524925014
772,772,[-4.91134434e+03  3.31368236e+02 -6.54632330e-03 -1.31641694e+07],1014,1219.7960350375106
773,773,[-7.26255690e+03  3.30367137e+02 -8.51726469e-03 -1.31641694e+07],393,1215.1870909601028
774,774,[-5.54423006e+03  3.30367159e+02 -9.01744305e-03 -1.31641694e+07],518,1221.8317122678634
775,775,[-5.28312664e+03  3.30367104e+02 -8.67851922e-03 -1.31641694e+07],275,1221.772555364737
776,776,[-5.92924818e+03  3.31368260e+02 -8.91901434e-03 -1.31641694e+07],533,1215.560931607501
777,777,[-6.69888092e+03  3.29365968e+02 -9.54439085e-03 -1.31641694e+07],643,1221.539742272975
778,778,[-6.84269933e+03  3.29365988e+02 -1.01171017e-02 -1.31641694e+07],4,1224.7617671839232
779,779,[-4.21830331e+03  3.34371598e+02 -5.71708130e-03 -1.31641694e+07],153,1219.1214784792123
780,780,[-4.96639831e+03  3.31368282e+02 -5.87526232e-03 -1.31641694e+07],498,1220.0975893070135
781,781,[-5.50257244e+03  3.30367105e+02 -8.72870473e-03 -1.31641694e+07],1200,1223.5338300358608
782,782,[-4.22938675e+03  3.33370436e+02 -6.20284114e-03 -1.31641694e+07],588,1221.255527305114
783,783,[-4.43863015e+03  3.33370676e+02 -6.24662374e-03 -1.31641694e+07],332,1217.436389517725
784,784,[-6.35514212e+03  3.30367086e+02 -8.99116827e-03 -1.31641694e+07],444,1221.1681721929294
785,785,[-4.84913493e+03  3.33370494e+02 -5.74603988e-03 -1.31641694e+07],530,1220.3284661352993
786,786,[-6.93835924e+03  3.29365971e+02 -9.36656684e-03 -1.31641694e+07],958,1222.0355880870572
787,787,[-6.07038279e+03  3.30367083e+02 -9.04026600e-03 -1.31641694e+07],265,1224.2348730775225
788,788,[-6.25060102e+03  3.29366108e+02 -9.59397596e-03 -1.31641694e+07],682,1223.1779050343946
789,789,[-6.35075396e+03  3.29365987e+02 -1.00423734e-02 -1.31641694e+07],344,1220.2641933375842
790,790,[-6.36827813e+03  3.30367094e+02 -9.16262528e-03 -1.31641694e+07],861,1222.7844477881142
791,791,[-5.74165739e+03  3.31368299e+02 -8.35875389e-03 -1.31641694e+07],480,1222.6849946603063
792,792,[-4.07067076e+03  3.33370720e+02 -4.58370423e-03 -1.31641694e+07],749,1218.515961033164
793,793,[-5.51445416e+03  3.30367167e+02 -6.75445456e-03 -1.31641694e+07],108,1216.8402980183184
794,794,[-7.27761349e+03  3.29366154e+02 -1.03161520e-02 -1.31641694e+07],872,1216.949874757485
795,795,[-5.19749846e+03  3.32369307e+02 -6.47205582e-03 -1.31641694e+07],964,1214.078513113238
796,796,[-5.76437298e+03  3.31368376e+02 -7.31150874e-03 -1.31641694e+07],684,1219.3793601810153
797,797,[-5.95929558e+03  3.29366156e+02 -1.12681409e-02 -1.31641694e+07],1220,1212.5269464099713
798,798,[-5.61784192e+03  3.30367219e+02 -8.40746457e-03 -1.31641694e+07],372,1221.245840951682
799,799,[-5.00779405e+03  3.31368295e+02 -6.43894669e-03 -1.31641694e+07],284,1223.4591113934634
800,800,[-5.05111953e+03  3.33370415e+02 -5.60128986e-03 -1.31641694e+07],956,1221.3861486809858
801,801,[-5.59828734e+03  3.32369315e+02 -6.09302619e-03 -1.31641694e+07],604,1223.0572700508928
802,802,[-6.77413016e+03  3.29365975e+02 -1.17582450e-02 -1.31641694e+07],1172,1219.8118322928592
803,803,[-5.20378773e+03  3.32369361e+02 -7.61872022e-03 -1.31641694e+07],796,1215.3839442974136
804,804,[-3.99567420e+03  3.35372890e+02 -5.58621312e-03 -1.31641694e+07],286,1216.869835722338
805,805,[-5.73149710e+03  3.30367107e+02 -8.25844447e-03 -1.31641694e+07],76,1221.2094924368312
806,806,[-4.45921162e+03  3.31368224e+02 -6.27610801e-03 -1.31641694e+07],86,1223.3282023061454
807,807,[-6.18961208e+03  3.31368213e+02 -8.14825441e-03 -1.31641694e+07],1087,1219.8391401299236
808,808,[-5.37450101e+03  3.31368318e+02 -7.81955246e-03 -1.31641694e+07],808,1219.3254737128825
809,809,[-6.14169058e+03  3.31368216e+02 -6.97052036e-03 -1.31641694e+07],1194,1215.4549752910957
810,810,[-5.62510390e+03  3.31368209e+02 -7.53380065e-03 -1.31641694e+07],238,1219.673223654778
811,811,[-5.34059540e+03  3.30367091e+02 -8.16710858e-03 -1.31641694e+07],202,1218.0420694812722
812,812,[-5.18526700e+03  3.30367168e+02 -8.90955425e-03 -1.31641694e+07],513,1212.1274479943813
813,813,[-5.27536943e+03  3.30367086e+02 -8.93761391e-03 -1.31641694e+07],579,1222.2449701389835
814,814,[-5.81140089e+03  3.30367135e+02 -8.31333605e-03 -1.31641694e+07],1105,1224.9809736787574
815,815,[-6.80750527e+03  3.29366011e+02 -1.03505709e-02 -1.31641694e+07],262,1225.4040258769771
816,816,[-4.77732581e+03  3.30367219e+02 -8.09924895e-03 -1.31641694e+07],240,1224.5259270534793
817,817,[-6.15037886e+03  3.30367095e+02 -9.03589709e-03 -1.31641694e+07],204,1223.4961728499882
818,818,[-5.76516855e+03  3.31368259e+02 -8.06850601e-03 -1.31641694e+07],106,1220.408733423817
819,819,[-6.82268614e+03  3.28364883e+02 -1.08630939e-02 -1.31641694e+07],161,1220.305785514494
820,820,[-5.75174141e+03  3.30367179e+02 -8.46144774e-03 -1.31641694e+07],1201,1224.2050195817149
821,821,[-6.02427244e+03  3.30367140e+02 -8.91707446e-03 -1.31641694e+07],343,1224.8639994770656
822,822,[-6.33360174e+03  3.29365974e+02 -9.07731725e-03 -1.31641694e+07],999,1222.1851015092893
823,823,[-6.84165520e+03  3.29365981e+02 -1.09537077e-02 -1.31641694e+07],1133,1222.664220936813
824,824,[-6.09290862e+03  3.30367108e+02 -9.10371264e-03 -1.31641694e+07],20,1220.6356839493853
825,825,[-5.93958409e+03  3.31368277e+02 -6.99737842e-03 -1.31641694e+07],426,1215.7491670662573
826,826,[-6.58440162e+03  3.31368251e+02 -7.53064774e-03 -1.31641694e+07],348,1207.933482531503
827,827,[-5.48129243e+03  3.31368255e+02 -6.24561249e-03 -1.31641694e+07],701,1201.6389136492007
828,828,[-6.07076229e+03  3.31368267e+02 -6.75505679e-03 -1.31641694e+07],236,1207.79589217512
829,829,[-5.25813756e+03  3.31368363e+02 -8.39060993e-03 -1.31641694e+07],500,1211.0365589604462
830,830,[ 8.37299405e+03  2.97330368e+02 -9.65686539e-03 -1.31641694e+07],359,1210.216340874954
831,831,[-5.26129112e+03  3.31368244e+02 -8.15833493e-03 -1.31641694e+07],1017,1219.096820285477
832,832,[-4.74475409e+03  3.31368378e+02 -7.27789819e-03 -1.31641694e+07],1198,1220.1721897880063
833,833,[-5.97681797e+03  3.30367092e+02 -8.87303072e-03 -1.31641694e+07],779,1222.4794877895
834,834,[-4.98203123e+03  3.32369394e+02 -6.37595607e-03 -1.31641694e+07],1001,1224.236907559381
835,835,[-7.23648394e+03  3.28364897e+02 -1.09457983e-02 -1.31641694e+07],1059,1222.1943035566699
836,836,[-5.44337984e+03  3.30367097e+02 -7.00409517e-03 -1.31641694e+07],168,1220.254402592661
837,837,[-6.14033466e+03  3.30367306e+02 -8.59683603e-03 -1.31641694e+07],831,1225.296409220847
838,838,[-7.07742235e+03  3.29365996e+02 -1.13341961e-02 -1.31641694e+07],1163,1222.5000574204362
839,839,[-5.84532104e+03  3.31368199e+02 -8.04030282e-03 -1.31641694e+07],946,1220.4542724182868
840,840,[-6.19982411e+03  3.30367086e+02 -8.76774833e-03 -1.31641694e+07],569,1222.387348181296
841,841,[-5.05796326e+03  3.32369321e+02 -6.53770363e-03 -1.31641694e+07],135,1221.343167743502
842,842,[-6.50538635e+03  3.30367179e+02 -8.85183280e-03 -1.31641694e+07],15,1222.9243540767663
843,843,[-5.05088881e+03  3.33370528e+02 -5.69147678e-03 -1.31641694e+07],230,1216.07610731583
844,844,[-6.30688388e+03  3.31368248e+02 -7.82199166e-03 -1.31641694e+07],571,1201.4803556726422
845,845,[-5.45271935e+03  3.31368244e+02 -7.52380957e-03 -1.31641694e+07],191,1209.0784077618955
846,846,[-6.89744606e+03  3.29365974e+02 -1.01150902e-02 -1.31641694e+07],468,1216.6713241126565
847,847,[-5.75656483e+03  3.30367119e+02 -8.70314253e-03 -1.31641694e+07],949,1223.358836586012
848,848,[-4.08931877e+03  3.34371610e+02 -5.77041383e-03 -1.31641694e+07],1190,1214.5397582995186
849,849,[-5.48407549e+03  3.30367198e+02 -7.15461942e-03 -1.31641694e+07],272,1221.273705387315
850,850,[-6.49629106e+03  3.29365971e+02 -1.02638794e-02 -1.31641694e+07],862,1222.6198125460576
851,851,[-5.90574159e+03  3.30367411e+02 -8.99678448e-03 -1.31641694e+07],1029,1223.531075845726
852,852,[-6.60932861e+03  3.29366172e+02 -1.06216994e-02 -1.31641694e+07],281,1224.6045664491162
853,853,[-5.37766895e+03  3.30367184e+02 -7.65687492e-03 -1.31641694e+07],1202,1223.0241776222479
854,854,[-5.05703740e+03  3.33370515e+02 -5.58309905e-03 -1.31641694e+07],1005,1221.427055360189
855,855,[-5.78621436e+03  3.30367114e+02 -9.17658776e-03 -1.31641694e+07],921,1224.752919200387
856,856,[-4.36346568e+03  3.31368211e+02 -6.32052232e-03 -1.31641694e+07],450,1223.3347000529277
857,857,[-4.67676683e+03  3.33370594e+02 -5.84226249e-03 -1.31641694e+07],146,1222.5131701227165
858,858,[-6.13044108e+03  3.30367084e+02 -7.97219215e-03 -1.31641694e+07],0,1223.7605134535397
859,859,[-4.68735758e+03  3.33370498e+02 -5.89613427e-03 -1.31641694e+07],390,1222.2985294496043
860,860,[-6.06656855e+03  3.31368311e+02 -8.43838643e-03 -1.31641694e+07],206,1215.9285341734897
861,861,[-5.53177765e+03  3.30367148e+02 -6.98796851e-03 -1.31641694e+07],1203,1219.4565378265274
862,862,[-5.58190052e+03  3.30367110e+02 -6.78549328e-03 -1.31641694e+07],57,1218.9778325638467
863,863,[-5.52755899e+03  3.31368266e+02 -8.35840459e-03 -1.31641694e+07],1030,1222.2214791792298
864,864,[-6.39857552e+03  3.30367153e+02 -8.61281927e-03 -1.31641694e+07],432,1222.495941358791
865,865,[-3.97742295e+03  3.33370679e+02 -5.48030472e-03 -1.31641694e+07],260,1223.0306129129224
866,866,[-6.18879998e+03  3.30367193e+02 -8.22001216e-03 -1.31641694e+07],70,1222.487419784714
867,867,[-7.00852685e+03  3.28364922e+02 -1.08097232e-02 -1.31641694e+07],736,1216.6891121978274
868,868,[-4.22456484e+03  3.33370835e+02 -4.99351035e-03 -1.31641694e+07],998,1217.2278992025522
869,869,[-5.72889580e+03  3.30367088e+02 -8.97944746e-03 -1.31641694e+07],1205,1221.5265605807172
870,870,[-3.98964336e+03  3.35372668e+02 -5.49778151e-03 -1.31641694e+07],34,1222.4715999997147
871,871,[-6.32884643e+03  3.29365970e+02 -9.95632809e-03 -1.31641694e+07],1,1223.0723302965912
872,872,[-4.26135909e+03  3.34371847e+02 -5.69605459e-03 -1.31641694e+07],1061,1219.419293187052
873,873,[-6.82421116e+03  3.29365988e+02 -9.24461838e-03 -1.31641694e+07],121,1221.626593409362
874,874,[-5.85349246e+03  3.31368198e+02 -8.68158261e-03 -1.31641694e+07],8,1220.302654031254
875,875,[-5.71868727e+03  3.31368255e+02 -8.40233170e-03 -1.31641694e+07],430,1223.0995601011646
876,876,[-4.91690673e+03  3.31368488e+02 -6.52541387e-03 -1.31641694e+07],134,1221.4338968128295
877,877,[-5.76415908e+03  3.30367106e+02 -8.95792494e-03 -1.31641694e+07],909,1223.602485420442
878,878,[-3.95558222e+03  3.35372681e+02 -5.48152981e-03 -1.31641694e+07],442,1223.3485406135044
879,879,[-6.49554221e+03  3.28364960e+02 -1.07002254e-02 -1.31641694e+07],913,1224.2474138169919
880,880,[-6.61846040e+03  3.29365967e+02 -9.76135306e-03 -1.31641694e+07],896,1224.0460918778977
881,881,[-5.46685642e+03  3.31368252e+02 -8.15454127e-03 -1.31641694e+07],1193,1222.8545962087403
882,882,[-5.20914174e+03  3.30367272e+02 -8.13429767e-03 -1.31641694e+07],1108,1223.5173513410466
883,883,[-4.70764041e+03  3.31368259e+02 -5.89392423e-03 -1.31641694e+07],504,1220.8281163222825
884,884,[-6.70494471e+03  3.29366021e+02 -1.01797595e-02 -1.31641694e+07],1111,1223.955105194833
885,885,[-6.14273421e+03  3.29366018e+02 -8.97645461e-03 -1.31641694e+07],950,1219.7584401704546
886,886,[-5.66093048e+03  3.30367123e+02 -7.17614772e-03 -1.31641694e+07],1092,1211.8268575580084
887,887,[-6.73692863e+03  3.30367221e+02 -8.67710715e-03 -1.31641694e+07],261,1208.2359748380995
888,888,[-6.36304591e+03  3.30367141e+02 -9.21568670e-03 -1.31641694e+07],671,1216.4381605926092
889,889,[-5.75041841e+03  3.30367437e+02 -9.63660398e-03 -1.31641694e+07],523,1219.6045519963475
890,890,[-5.45113559e+03  3.31368223e+02 -8.76553067e-03 -1.31641694e+07],792,1217.8350821804784
891,891,[-5.68083616e+03  3.31368210e+02 -8.27004652e-03 -1.31641694e+07],1015,1220.2763783777198
892,892,[-5.28746963e+03  3.32369331e+02 -6.43938878e-03 -1.31641694e+07],386,1218.3261992815937
893,893,[-6.21471642e+03  3.32369447e+02 -8.29343145e-03 -1.31641694e+07],133,1224.0590596146171
894,894,[-5.21674501e+03  3.31368276e+02 -5.80013137e-03 -1.31641694e+07],951,1216.0023024079971
895,895,[-5.52974082e+03  3.31368322e+02 -8.43287568e-03 -1.31641694e+07],471,1223.2980455734144
896,896,[-6.06633989e+03  3.29366094e+02 -9.65720872e-03 -1.31641694e+07],747,1218.618706123727
897,897,[-5.26992821e+03  3.30367288e+02 -7.93436718e-03 -1.31641694e+07],300,1220.3688843268744
898,898,[-4.85091014e+03  3.33370441e+02 -5.79435228e-03 -1.31641694e+07],457,1220.9490504404894
899,899,[-6.79831493e+03  3.29366012e+02 -1.01582090e-02 -1.31641694e+07],1217,1224.8068706484707
900,900,[-4.64194019e+03  3.33370424e+02 -5.89785642e-03 -1.31641694e+07],739,1222.3790913109044
901,901,[-7.12557145e+03  3.29365986e+02 -1.14308144e-02 -1.31641694e+07],466,1224.6807155571564
902,902,[-6.17567335e+03  3.30367127e+02 -8.72936482e-03 -1.31641694e+07],892,1225.4396173569874
903,903,[-5.90803721e+03  3.30367085e+02 -8.42219551e-03 -1.31641694e+07],1161,1225.2363984393387
904,904,[-6.59406399e+03  3.29366013e+02 -1.04172979e-02 -1.31641694e+07],574,1224.0936437153732
905,905,[-6.60220527e+03  3.30367104e+02 -8.41046966e-03 -1.31641694e+07],631,1222.7656476804032
906,906,[-5.95031927e+03  3.30367100e+02 -6.63322643e-03 -1.31641694e+07],582,1213.3726263709536
907,907,[-6.78562659e+03  3.29365997e+02 -1.15524792e-02 -1.31641694e+07],127,1221.888227354709
908,908,[-5.36997350e+03  3.30367188e+02 -8.97982433e-03 -1.31641694e+07],661,1223.189134945487
909,909,[-6.64328796e+03  3.29366012e+02 -1.01882690e-02 -1.31641694e+07],1162,1218.6722135248642
910,910,[-5.36088593e+03  3.31368225e+02 -6.55991372e-03 -1.31641694e+07],387,1215.581387084701
911,911,[-4.59115255e+03  3.33370511e+02 -5.94665823e-03 -1.31641694e+07],716,1216.5453371587773
912,912,[-5.27530361e+03  3.31368249e+02 -7.76659339e-03 -1.31641694e+07],446,1221.9872686878823
913,913,[-7.22287869e+03  3.28364921e+02 -1.09990523e-02 -1.31641694e+07],988,1218.620102866441
914,914,[-6.45884275e+03  3.29365964e+02 -9.14102417e-03 -1.31641694e+07],271,1222.385375148658
915,915,[-5.67170262e+03  3.31368321e+02 -6.21092620e-03 -1.31641694e+07],665,1209.65611867225
916,916,[-6.02346287e+03  3.30367107e+02 -9.06642393e-03 -1.31641694e+07],358,1216.0353894802004
917,917,[-6.34404352e+03  3.30367138e+02 -8.96208446e-03 -1.31641694e+07],491,1219.7555624531362
918,918,[-5.83087304e+03  3.30367078e+02 -8.14744276e-03 -1.31641694e+07],699,1222.5496422150488
919,919,[-5.04262152e+03  3.31368196e+02 -5.88336111e-03 -1.31641694e+07],187,1217.4289382716704
920,920,[-6.54175368e+03  3.29365971e+02 -9.12034203e-03 -1.31641694e+07],976,1221.03392560182
921,921,[-4.21165212e+03  3.34371542e+02 -5.76591379e-03 -1.31641694e+07],1124,1218.905190667919
922,922,[-5.78124860e+03  3.30367200e+02 -8.96152621e-03 -1.31641694e+07],79,1222.1715514851733
923,923,[-5.27236974e+03  3.31368198e+02 -7.75048642e-03 -1.31641694e+07],811,1224.791443611482
924,924,[-5.58557259e+03  3.31368230e+02 -8.45858969e-03 -1.31641694e+07],1042,1223.3151584139289
925,925,[-5.82218764e+03  3.31368195e+02 -8.39839555e-03 -1.31641694e+07],642,1220.4008721323883
926,926,[-7.69004665e+03  3.29365989e+02 -1.16271058e-02 -1.31641694e+07],198,1225.2220273044732
927,927,[-6.51153879e+03  3.30367089e+02 -8.62869838e-03 -1.31641694e+07],341,1224.6547333014041
928,928,[-5.71034736e+03  3.30367167e+02 -7.72656741e-03 -1.31641694e+07],425,1223.3049550102742
929,929,[-3.94165092e+03  3.35372925e+02 -5.51805777e-03 -1.31641694e+07],945,1222.222627133129
930,930,[-5.28119722e+03  3.31368196e+02 -6.07130705e-03 -1.31641694e+07],419,1220.033024928405
931,931,[-7.27640437e+03  3.30367127e+02 -8.81942656e-03 -1.31641694e+07],1113,1215.5856655563816
932,932,[-6.21387094e+03  3.31368223e+02 -7.87923100e-03 -1.31641694e+07],101,1206.0021390099123
933,933,[-4.95406892e+03  3.33370420e+02 -5.85723367e-03 -1.31641694e+07],51,1204.7931522353294
934,934,[-4.99019909e+03  3.33370497e+02 -6.00342108e-03 -1.31641694e+07],691,1206.1005408503463
935,935,[-3.73902835e+03  3.35372713e+02 -5.57306864e-03 -1.31641694e+07],968,1217.0279008441646
936,936,[-5.27526734e+03  3.31368259e+02 -9.17693908e-03 -1.31641694e+07],890,1210.9900758063397
937,937,[-6.40325041e+03  3.29365991e+02 -9.98727241e-03 -1.31641694e+07],576,1221.4218700016647
938,938,[-6.86766183e+03  3.30367113e+02 -8.62808946e-03 -1.31641694e+07],535,1225.0168473218139
939,939,[-5.80944189e+03  3.30367111e+02 -8.80104132e-03 -1.31641694e+07],1006,1223.6186632220822
940,940,[-6.08284623e+03  3.30367174e+02 -9.13277987e-03 -1.31641694e+07],1165,1224.3091618406838
941,941,[-4.23766083e+03  3.34371745e+02 -5.74102782e-03 -1.31641694e+07],145,1220.0530166887265
942,942,[-4.24639745e+03  3.34371546e+02 -5.70660101e-03 -1.31641694e+07],9,1220.7470620342874
943,943,[-6.36652214e+03  3.30367117e+02 -8.96192925e-03 -1.31641694e+07],50,1224.432248003072
944,944,[-5.53256226e+03  3.30367193e+02 -6.75496109e-03 -1.31641694e+07],1147,1216.4480283549783
945,945,[-5.59851790e+03  3.30367077e+02 -7.44302269e-03 -1.31641694e+07],994,1217.9564756267512
946,946,[-5.62733105e+03  3.30367177e+02 -8.33859681e-03 -1.31641694e+07],702,1219.0608062051203
947,947,[-5.39265993e+03  3.31368324e+02 -8.36994156e-03 -1.31641694e+07],290,1220.774445995203
948,948,[-4.90827604e+03  3.32369700e+02 -7.53669292e-03 -1.31641694e+07],556,1221.8407433145878
949,949,[-5.99966375e+03  3.29365966e+02 -8.18844674e-03 -1.31641694e+07],1187,1218.9919490124269
950,950,[-6.88696277e+03  3.29365967e+02 -1.03938504e-02 -1.31641694e+07],606,1218.578096974177
951,951,[-5.41883344e+03  3.30367374e+02 -8.65905341e-03 -1.31641694e+07],613,1218.4538105608015
952,952,[-6.75929769e+03  3.29365992e+02 -1.03242472e-02 -1.31641694e+07],961,1220.0563932535729
953,953,[-6.97716086e+03  3.28364868e+02 -1.18813352e-02 -1.31641694e+07],1110,1222.814229530869
954,954,[-6.56549623e+03  3.29366043e+02 -1.02754721e-02 -1.31641694e+07],636,1222.3559773280303
955,955,[-5.78220327e+03  3.30367177e+02 -8.35725614e-03 -1.31641694e+07],595,1221.4626903958956
956,956,[-5.33637909e+03  3.32369339e+02 -7.66673743e-03 -1.31641694e+07],1136,1219.4105762364284
957,957,[-5.84473953e+03  3.30367150e+02 -8.54921292e-03 -1.31641694e+07],59,1223.9998688187109
958,958,[-5.33086643e+03  3.32369308e+02 -7.66943871e-03 -1.31641694e+07],44,1219.4833190258887
959,959,[-6.05715104e+03  3.30367099e+02 -8.59920133e-03 -1.31641694e+07],1022,1224.5396018135798
960,960,[-5.91044908e+03  3.31368199e+02 -7.52885254e-03 -1.31641694e+07],508,1222.283340147834
961,961,[-6.60834970e+03  3.31368251e+02 -7.84374260e-03 -1.31641694e+07],175,1217.6004189696453
962,962,[-5.44397963e+03  3.31368189e+02 -8.67741927e-03 -1.31641694e+07],783,1222.4606770708226
963,963,[-6.61866412e+03  3.31368283e+02 -8.95374720e-03 -1.31641694e+07],54,1220.0588606302342
964,964,[-4.97111182e+03  3.31368249e+02 -6.83825779e-03 -1.31641694e+07],730,1219.4189683255745
965,965,[-5.35751008e+03  3.32369358e+02 -7.98404870e-03 -1.31641694e+07],919,1217.3714778850556
966,966,[-5.98975983e+03  3.30367081e+02 -8.58339200e-03 -1.31641694e+07],476,1224.8375909184754
967,967,[-4.59754606e+03  3.33370568e+02 -5.91785507e-03 -1.31641694e+07],625,1224.980001567254
968,968,[-6.38979866e+03  3.29366131e+02 -8.31679402e-03 -1.31641694e+07],1116,1217.845443047833
969,969,[-6.21522161e+03  3.31368428e+02 -7.80149032e-03 -1.31641694e+07],707,1210.3338024292163
970,970,[-4.89867982e+03  3.33370436e+02 -5.42683645e-03 -1.31641694e+07],986,1204.7062139270308
971,971,[-6.08713387e+03  3.31368329e+02 -7.57543445e-03 -1.31641694e+07],1199,1196.983504885453
972,972,[-4.98800830e+03  3.33370495e+02 -5.59776078e-03 -1.31641694e+07],965,1196.2402847484077
973,973,[-5.44341066e+03  3.31368230e+02 -7.58678755e-03 -1.31641694e+07],385,1221.8383630804162
974,974,[-4.96021668e+03  3.31368219e+02 -8.12615021e-03 -1.31641694e+07],511,1207.8458101071108
975,975,[-5.96943729e+03  3.30367080e+02 -1.03119318e-02 -1.31641694e+07],19,1214.1025663716634
976,976,[-4.13882640e+03  3.33370474e+02 -5.74069995e-03 -1.31641694e+07],464,1218.09478754039
977,977,[-5.81794995e+03  3.30367122e+02 -8.85454984e-03 -1.31641694e+07],109,1220.3481112321217
978,978,[-5.73708236e+03  3.30367125e+02 -8.54199267e-03 -1.31641694e+07],413,1221.271192098171
979,979,[-6.42442144e+03  3.31368359e+02 -8.52659774e-03 -1.31641694e+07],16,1219.9586271419334
980,980,[-4.60342660e+03  3.33370478e+02 -5.96108769e-03 -1.31641694e+07],45,1220.8866409739517
981,981,[-4.69800071e+03  3.33370435e+02 -6.12916156e-03 -1.31641694e+07],578,1217.0801632186406
982,982,[-6.34453588e+03  3.31368264e+02 -8.98238149e-03 -1.31641694e+07],553,1214.136922112414
983,983,[-6.31323159e+03  3.30367157e+02 -8.67538296e-03 -1.31641694e+07],868,1220.9624707790965
984,984,[-7.08475719e+03  3.28364904e+02 -1.10876529e-02 -1.31641694e+07],735,1221.0646247220798
985,985,[-6.90688728e+03  3.30367164e+02 -8.51182419e-03 -1.31641694e+07],35,1223.3144965779115
986,986,[-5.07002906e+03  3.31368233e+02 -6.18550010e-03 -1.31641694e+07],690,1217.3739493691567
987,987,[-5.95326934e+03  3.30367270e+02 -7.20416430e-03 -1.31641694e+07],102,1212.5666864324535
988,988,[-6.27671074e+03  3.31368300e+02 -7.27992196e-03 -1.31641694e+07],37,1218.1899351972884
989,989,[-5.15391553e+03  3.31368434e+02 -7.69516708e-03 -1.31641694e+07],1093,1223.0912623922961
990,990,[-5.80012933e+03  3.27363855e+02 -1.39395567e-02 -1.31641694e+07],1135,1168.8352252862903
991,991,[-4.71792550e+03  3.30367076e+02 -1.05847751e-02 -1.31641694e+07],981,1163.977140683839
992,992,[-5.91629438e+03  3.31368316e+02 -7.47879848e-03 -1.31641694e+07],128,1195.043897750363
993,993,[-5.50640595e+03  3.33370453e+02 -5.07612956e-03 -1.31641694e+07],247,1214.1209400543578
994,994,[-3.86354699e+03  3.32369760e+02 -5.99052992e-03 -1.31641694e+07],581,1217.6491139023194
995,995,[-6.37010959e+03  3.30367108e+02 -8.94929174e-03 -1.31641694e+07],1181,1224.4003501216316
996,996,[-6.67213483e+03  3.29365988e+02 -1.08453088e-02 -1.31641694e+07],935,1224.3694677001702
997,997,[-5.48404691e+03  3.31368380e+02 -8.54348854e-03 -1.31641694e+07],105,1222.3842239403782
998,998,[-5.40378164e+03  3.32369409e+02 -6.31790965e-03 -1.31641694e+07],197,1218.7723384577218
999,999,[-6.44422026e+03  3.28364973e+02 -1.12215517e-02 -1.31641694e+07],794,1219.229817824529
1000,1000,[-5.36683015e+03  3.31368247e+02 -7.58420949e-03 -1.31641694e+07],392,1222.5070970641955
1001,1001,[-5.40006658e+03  3.30367146e+02 -7.19589716e-03 -1.31641694e+07],48,1219.1134234243398
1002,1002,[-6.64814278e+03  3.29365995e+02 -1.04029392e-02 -1.31641694e+07],711,1222.8483309390879
1003,1003,[-7.37009173e+03  3.27363803e+02 -1.56330618e-02 -1.31641694e+07],633,1223.2145374885622
1004,1004,[-5.89942305e+03  3.30367124e+02 -8.91345804e-03 -1.31641694e+07],804,1224.0798803507244
1005,1005,[-6.40967176e+03  3.31368194e+02 -7.36614994e-03 -1.31641694e+07],557,1218.9394395017805
1006,1006,[-5.33729610e+03  3.31368226e+02 -7.27788608e-03 -1.31641694e+07],663,1217.801889329558
1007,1007,[-4.15797000e+03  3.33370462e+02 -5.91681720e-03 -1.31641694e+07],568,1221.9854752402664
1008,1008,[-4.54487325e+03  3.33370684e+02 -6.04169145e-03 -1.31641694e+07],793,1221.070765704058
1009,1009,[-6.10887296e+03  3.29366076e+02 -1.01248040e-02 -1.31641694e+07],1114,1223.027090760027
1010,1010,[-5.25428241e+03  3.30367112e+02 -7.51836967e-03 -1.31641694e+07],246,1221.918679514431
1011,1011,[-4.64967558e+03  3.33370476e+02 -5.86596205e-03 -1.31641694e+07],755,1223.1800536417543
1012,1012,[-6.26607702e+03  3.30367154e+02 -9.16375008e-03 -1.31641694e+07],412,1220.8236823155282
1013,1013,[-7.28973957e+03  3.27363827e+02 -1.46610261e-02 -1.31641694e+07],69,1221.682268689683
1014,1014,[-5.60604069e+03  3.29366101e+02 -9.04561318e-03 -1.31641694e+07],1034,1219.5887980995506
1015,1015,[-6.01013820e+03  3.32369324e+02 -9.63170301e-03 -1.31641694e+07],291,1218.4943678550865
1016,1016,[-5.08330127e+03  3.32369381e+02 -6.91350136e-03 -1.31641694e+07],1166,1221.450152474837
1017,1017,[-5.86350819e+03  3.31368332e+02 -6.78853113e-03 -1.31641694e+07],867,1219.1332624344052
1018,1018,[-4.87431171e+03  3.33370416e+02 -5.86532197e-03 -1.31641694e+07],846,1211.0650238531903
1019,1019,[-4.79586721e+03  3.33370519e+02 -5.91722932e-03 -1.31641694e+07],715,1210.327033035478
1020,1020,[-5.80690244e+03  3.29366005e+02 -9.01351864e-03 -1.31641694e+07],1131,1208.2181393163667
1021,1021,[-5.25379271e+03  3.31368326e+02 -7.65006845e-03 -1.31641694e+07],522,1214.458141513513
1022,1022,[-4.90015981e+03  3.31368233e+02 -7.66147019e-03 -1.31641694e+07],689,1217.4816143966004
1023,1023,[-4.16512472e+03  3.33370429e+02 -6.02785311e-03 -1.31641694e+07],56,1222.7157971297897
1024,1024,[-4.06294583e+03  3.33370442e+02 -6.02083375e-03 -1.31641694e+07],911,1221.8853031755891
1025,1025,[-6.40665783e+03  3.30367096e+02 -8.63569169e-03 -1.31641694e+07],745,1220.987236630113
1026,1026,[-6.53437022e+03  3.30367080e+02 -9.11389705e-03 -1.31641694e+07],1182,1215.0328712722453
1027,1027,[-4.80766594e+03  3.30367094e+02 -7.51286762e-03 -1.31641694e+07],1215,1210.5334912592946
1028,1028,[-6.03052892e+03  3.29366032e+02 -8.85172606e-03 -1.31641694e+07],1052,1209.9599746759652
1029,1029,[-6.10887577e+03  3.30367076e+02 -8.69114242e-03 -1.31641694e+07],944,1218.9648156928351
1030,1030,[-5.70770469e+03  3.30367093e+02 -9.02498315e-03 -1.31641694e+07],888,1218.813922508805
1031,1031,[-6.09998919e+03  3.30367224e+02 -9.43807151e-03 -1.31641694e+07],532,1222.2803137488484
1032,1032,[-6.23444599e+03  3.31368432e+02 -8.97740459e-03 -1.31641694e+07],563,1224.2604947231996
1033,1033,[-4.95184051e+03  3.31368296e+02 -6.30770457e-03 -1.31641694e+07],1100,1213.970366514348
1034,1034,[-6.09445589e+03  3.30367196e+02 -8.83897744e-03 -1.31641694e+07],13,1216.7255561153752
1035,1035,[-4.50619531e+03  3.31368207e+02 -7.53450027e-03 -1.31641694e+07],1123,1215.6754120106116
1036,1036,[-5.59124345e+03  3.31368191e+02 -7.17443590e-03 -1.31641694e+07],746,1214.063670422272
1037,1037,[-4.81559164e+03  3.33370715e+02 -5.34180792e-03 -1.31641694e+07],676,1204.7136154174918
1038,1038,[-5.99319087e+03  3.31368246e+02 -6.80494094e-03 -1.31641694e+07],66,1199.3680978638345
1039,1039,[-5.62268526e+03  3.31368305e+02 -7.36572071e-03 -1.31641694e+07],62,1221.7150819191568
1040,1040,[-5.82260789e+03  3.31368206e+02 -7.40957971e-03 -1.31641694e+07],843,1212.0493861937966
1041,1041,[-5.86293103e+03  3.31368260e+02 -7.96437755e-03 -1.31641694e+07],1115,1204.6578811834818
1042,1042,[-4.50667499e+03  3.33370524e+02 -6.03442669e-03 -1.31641694e+07],916,1218.0394660843497
1043,1043,[-5.73367645e+03  3.30367512e+02 -9.87908741e-03 -1.31641694e+07],264,1215.60302834248
1044,1044,[-4.98815951e+03  3.31368202e+02 -7.87391993e-03 -1.31641694e+07],601,1214.791094370578
1045,1045,[-6.49833168e+03  3.29365984e+02 -1.16649670e-02 -1.31641694e+07],894,1221.6219560083562
1046,1046,[-5.88630770e+03  3.30367105e+02 -7.64820705e-03 -1.31641694e+07],748,1220.6163900033587
1047,1047,[-6.21402681e+03  3.30367082e+02 -9.25464732e-03 -1.31641694e+07],860,1223.0833025404193
1048,1048,[-5.10844305e+03  3.30367090e+02 -7.37185268e-03 -1.31641694e+07],438,1222.5661773038175
1049,1049,[-5.54291400e+03  3.31368253e+02 -6.96448280e-03 -1.31641694e+07],678,1224.8452350874009
1050,1050,[-6.64163699e+03  3.30367075e+02 -9.25789333e-03 -1.31641694e+07],131,1224.3848160192356
1051,1051,[-6.32127256e+03  3.30367102e+02 -8.75777719e-03 -1.31641694e+07],825,1225.071414354188
1052,1052,[-5.11008455e+03  3.33370729e+02 -5.82037099e-03 -1.31641694e+07],270,1216.4681333716908
1053,1053,[-6.17627532e+03  3.31368591e+02 -7.49472693e-03 -1.31641694e+07],1077,1213.1435454667492
1054,1054,[-5.11480381e+03  3.32369337e+02 -6.23462242e-03 -1.31641694e+07],1035,1211.867304659212
1055,1055,[-4.40917988e+03  3.33370433e+02 -6.01252439e-03 -1.31641694e+07],1212,1205.4587571162147
1056,1056,[-5.28985530e+03  3.30367341e+02 -8.45720836e-03 -1.31641694e+07],560,1201.533383657085
1057,1057,[-6.49942661e+03  3.29365998e+02 -9.77062607e-03 -1.31641694e+07],91,1214.0202227233092
1058,1058,[-5.80753782e+03  3.32369441e+02 -9.13296999e-03 -1.31641694e+07],1043,1214.8435732131693
1059,1059,[-5.51106967e+03  3.30367181e+02 -9.07244645e-03 -1.31641694e+07],931,1219.1048024153904
1060,1060,[-6.03328153e+03  3.30367132e+02 -9.26985386e-03 -1.31641694e+07],910,1222.6300273713155
1061,1061,[-6.23996513e+03  3.31368200e+02 -8.67267151e-03 -1.31641694e+07],776,1218.726143225654
1062,1062,[-5.20706800e+03  3.30367092e+02 -6.99966577e-03 -1.31641694e+07],599,1215.3544963666036
1063,1063,[-5.02141676e+03  3.32369367e+02 -6.82321145e-03 -1.31641694e+07],333,1220.985544627588
1064,1064,[-6.30852670e+03  3.30367115e+02 -9.11354258e-03 -1.31641694e+07],411,1222.8809942413097
1065,1065,[-6.34347484e+03  3.29365981e+02 -9.10809278e-03 -1.31641694e+07],237,1222.3593295761564
1066,1066,[-7.20197362e+03  3.29365978e+02 -1.09749193e-02 -1.31641694e+07],809,1223.3692356221043
1067,1067,[-4.00347765e+03  3.34371853e+02 -5.65725031e-03 -1.31641694e+07],1184,1221.8326487139968
1068,1068,[-5.35413207e+03  3.30367293e+02 -8.92419801e-03 -1.31641694e+07],726,1221.9064430227627
1069,1069,[-5.28472703e+03  3.32369597e+02 -8.70788334e-03 -1.31641694e+07],147,1220.8255453965212
1070,1070,[-5.69017545e+03  3.30367075e+02 -9.26929428e-03 -1.31641694e+07],803,1223.1800439392575
1071,1071,[-5.71032867e+03  3.31368195e+02 -8.73847132e-03 -1.31641694e+07],1076,1221.1255100556218
1072,1072,[-7.29292522e+03  3.29365996e+02 -1.10157151e-02 -1.31641694e+07],1210,1222.0055581829
1073,1073,[-6.36082880e+03  3.29365979e+02 -8.22821847e-03 -1.31641694e+07],1062,1212.368964239789
1074,1074,[-7.03147314e+03  3.30367221e+02 -8.59561059e-03 -1.31641694e+07],473,1213.6712275820719
1075,1075,[-5.10644674e+03  3.30367316e+02 -7.85618087e-03 -1.31641694e+07],547,1209.2425940572462
1076,1076,[-6.00710979e+03  3.30367081e+02 -9.22052589e-03 -1.31641694e+07],687,1215.3777474213528
1077,1077,[-5.03710597e+03  3.32369364e+02 -7.34755368e-03 -1.31641694e+07],1225,1215.6901799997777
1078,1078,[ 2.07517162e+04  3.04338181e+02 -5.50799789e-03 -1.31641694e+07],334,1210.0006878192644
1079,1079,[-4.12817282e+03  3.33370428e+02 -5.95759403e-03 -1.31641694e+07],773,1222.903364442024
1080,1080,[-6.21395798e+03  3.31368437e+02 -8.88725989e-03 -1.31641694e+07],32,1224.7473120068078
1081,1081,[-4.00533805e+03  3.32369305e+02 -6.05746741e-03 -1.31641694e+07],287,1222.8398299759363
1082,1082,[-4.85808708e+03  3.30367089e+02 -8.89004879e-03 -1.31641694e+07],1107,1222.1168261115379
1083,1083,[-5.04248797e+03  3.32369430e+02 -6.71112563e-03 -1.31641694e+07],357,1222.77355698394
1084,1084,[-3.99072280e+03  3.32369412e+02 -6.09384124e-03 -1.31641694e+07],1026,1222.250602961147
1085,1085,[-7.26153466e+03  3.29366019e+02 -1.01246378e-02 -1.31641694e+07],589,1221.4911054276076
1086,1086,[-5.10955754e+03  3.33370488e+02 -5.86177833e-03 -1.31641694e+07],765,1212.6074854426845
1087,1087,[-5.27335686e+03  3.30367091e+02 -9.19805129e-03 -1.31641694e+07],562,1219.3319797073525
1088,1088,[-5.55770686e+03  3.30367237e+02 -8.98650493e-03 -1.31641694e+07],63,1220.5349357693972
1089,1089,[-3.74666681e+03  3.35372658e+02 -5.74798038e-03 -1.31641694e+07],205,1221.7594881778361
1090,1090,[-5.06769300e+03  3.31368407e+02 -7.70427113e-03 -1.31641694e+07],1130,1224.313137890756
1091,1091,[-5.92149122e+03  3.30367129e+02 -1.02902895e-02 -1.31641694e+07],605,1220.7265512447366
1092,1092,[-6.13265627e+03  3.29366124e+02 -1.02573251e-02 -1.31641694e+07],1183,1218.575828113222
1093,1093,[-5.00487390e+03  3.32369360e+02 -6.82003591e-03 -1.31641694e+07],1058,1217.0933652740473
1094,1094,[-6.29161952e+03  3.30367076e+02 -9.16954216e-03 -1.31641694e+07],148,1221.3710974159035
1095,1095,[-5.13369346e+03  3.30367198e+02 -7.49558385e-03 -1.31641694e+07],566,1220.4551780725346
1096,1096,[-5.44616040e+03  3.31368199e+02 -8.76993100e-03 -1.31641694e+07],1044,1222.0555473335316
1097,1097,[-5.33862565e+03  3.30367350e+02 -8.49041366e-03 -1.31641694e+07],316,1222.944321647792
1098,1098,[-4.42851212e+03  3.33370746e+02 -6.14926786e-03 -1.31641694e+07],1178,1224.0183571182508
1099,1099,[-5.80284897e+03  3.31368229e+02 -8.76051968e-03 -1.31641694e+07],60,1220.8583511205773
1100,1100,[-5.76786973e+03  3.30367079e+02 -7.82029307e-03 -1.31641694e+07],725,1216.327277469045
1101,1101,[-6.18692423e+03  3.30367079e+02 -8.36597382e-03 -1.31641694e+07],848,1212.1267175612886
1102,1102,[-4.87434725e+03  3.31368234e+02 -8.87400741e-03 -1.31641694e+07],313,1202.3194211928667
1103,1103,[-5.14981505e+03  3.31368199e+02 -8.62786693e-03 -1.31641694e+07],1021,1192.8668867836002
1104,1104,[-5.47678468e+03  3.30367108e+02 -8.84631131e-03 -1.31641694e+07],650,1211.3324326667014
1105,1105,[-5.40575838e+03  3.30367257e+02 -8.67448036e-03 -1.31641694e+07],288,1219.2777374215125
1106,1106,[-4.55951663e+03  3.31368240e+02 -5.96488959e-03 -1.31641694e+07],1164,1213.4454417972183
1107,1107,[-5.12512823e+03  3.31368194e+02 -6.41569812e-03 -1.31641694e+07],1138,1215.1566304110038
1108,1108,[-5.24375646e+03  3.31368191e+02 -8.44716640e-03 -1.31641694e+07],501,1218.6121971419475
1109,1109,[-5.23775350e+03  3.30367365e+02 -8.67389202e-03 -1.31641694e+07],73,1220.0193511834955
1110,1110,[-7.02243557e+03  3.28364863e+02 -1.09834390e-02 -1.31641694e+07],982,1217.5757924474788
1111,1111,[-5.26277788e+03  3.30367082e+02 -7.55536773e-03 -1.31641694e+07],993,1218.5865217153614
1112,1112,[-6.71134570e+03  3.28364858e+02 -1.22151302e-02 -1.31641694e+07],975,1220.5887842789793
1113,1113,[-6.04073088e+03  3.31368335e+02 -7.92666527e-03 -1.31641694e+07],795,1217.9295491769087
1114,1114,[-5.27758150e+03  3.32369563e+02 -9.42752783e-03 -1.31641694e+07],1036,1216.7969259296276
1115,1115,[-3.71466530e+03  3.34371530e+02 -5.73574333e-03 -1.31641694e+07],289,1216.057617754337
1116,1116,[ 1.61222153e+04  3.04338170e+02 -4.08879454e-03 -1.31641694e+07],407,1217.3890063243452
1117,1117,[-5.53847328e+03  3.30367233e+02 -9.08358630e-03 -1.31641694e+07],1057,1223.134652826106
1118,1118,[-5.48178367e+03  3.31368317e+02 -8.72517887e-03 -1.31641694e+07],158,1221.69193831888
1119,1119,[-3.78251158e+03  3.35372684e+02 -5.78457445e-03 -1.31641694e+07],1033,1220.5591003222796
1120,1120,[-5.76927883e+03  3.30367182e+02 -9.05744005e-03 -1.31641694e+07],1122,1224.4248354953843
1121,1121,[-6.07377385e+03  3.30367135e+02 -9.14767829e-03 -1.31641694e+07],1209,1223.0570749742428
1122,1122,[-6.30290040e+03  3.29366035e+02 -8.41693969e-03 -1.31641694e+07],1141,1213.8896163043917
1123,1123,[-5.84158537e+03  3.30367160e+02 -7.48993943e-03 -1.31641694e+07],632,1216.2087982986973
1124,1124,[-4.99656322e+03  3.30367120e+02 -8.88209248e-03 -1.31641694e+07],1132,1218.0580903996943
1125,1125,[-5.27329094e+03  3.31368263e+02 -9.36640254e-03 -1.31641694e+07],1074,1212.778345012538
1126,1126,[-4.45085812e+03  3.32369473e+02 -6.80880905e-03 -1.31641694e+07],1106,1220.0591064419732
1127,1127,[-6.64736102e+03  3.27363929e+02 -1.36810871e-02 -1.31641694e+07],648,1221.7074562309122
1128,1128,[-6.37674953e+03  3.29366136e+02 -8.98471930e-03 -1.31641694e+07],906,1219.6556621757923
1129,1129,[-4.82208798e+03  3.32369542e+02 -5.84901564e-03 -1.31641694e+07],123,1221.2672345464773
1130,1130,[-3.89326879e+03  3.33370608e+02 -5.99702743e-03 -1.31641694e+07],503,1214.9367419145965
1131,1131,[-5.06132278e+03  3.31368218e+02 -8.04884483e-03 -1.31641694e+07],1053,1216.6359435601275
1132,1132,[-5.60809977e+03  3.31368246e+02 -9.67954864e-03 -1.31641694e+07],244,1213.6946664897237
1133,1133,[-5.40468469e+03  3.31368206e+02 -8.22570260e-03 -1.31641694e+07],738,1219.2251769505851
1134,1134,[-5.80220463e+03  3.31368203e+02 -8.49859735e-03 -1.31641694e+07],700,1219.7147797558966
1135,1135,[-6.13696570e+03  3.30367153e+02 -7.35120788e-03 -1.31641694e+07],1230,1217.0876146919425
1136,1136,[-7.34116553e+03  3.29366088e+02 -1.04941535e-02 -1.31641694e+07],1125,1217.5600802101462
1137,1137,[-5.14184782e+03  3.32369589e+02 -6.54098497e-03 -1.31641694e+07],245,1220.1229191135394
1138,1138,[-5.62318796e+03  3.30367457e+02 -9.45217240e-03 -1.31641694e+07],315,1214.3748433597686
1139,1139,[-4.53149709e+03  3.30367145e+02 -9.95903650e-03 -1.31641694e+07],1086,1192.8282817695276
1140,1140,[-4.54175333e+03  3.31368370e+02 -7.61075233e-03 -1.31641694e+07],987,1188.1780422537017
1141,1141,[-5.15353450e+03  3.30367286e+02 -9.43411889e-03 -1.31641694e+07],797,1213.7719648174323
1142,1142,[-4.17146953e+03  3.33370633e+02 -6.01600979e-03 -1.31641694e+07],1180,1221.714579984335
1143,1143,[-5.33543192e+03  3.30367093e+02 -8.79581120e-03 -1.31641694e+07],664,1223.8581898975501
1144,1144,[-6.00915139e+03  3.31368249e+02 -7.44921246e-03 -1.31641694e+07],1175,1224.2157094509275
1145,1145,[-5.64392181e+03  3.30367261e+02 -9.00395891e-03 -1.31641694e+07],685,1220.7131340462083
1146,1146,[-3.72520852e+03  3.35373113e+02 -5.72339326e-03 -1.31641694e+07],1073,1220.5644309334748
1147,1147,[-4.27101678e+03  3.33370419e+02 -6.02945740e-03 -1.31641694e+07],317,1217.7178301215367
1148,1148,[-4.47585062e+03  3.33370461e+02 -6.16293628e-03 -1.31641694e+07],521,1221.423133593981
1149,1149,[-4.99464961e+03  3.33370417e+02 -5.81329131e-03 -1.31641694e+07],812,1219.9359007174294
1150,1150,[-6.25792616e+03  3.31368300e+02 -9.19385500e-03 -1.31641694e+07],1101,1219.6511312682185
1151,1151,[-4.91186936e+03  3.31368479e+02 -7.51498647e-03 -1.31641694e+07],1040,1223.061847377207
1152,1152,[-5.49278697e+03  3.31368278e+02 -7.79901025e-03 -1.31641694e+07],575,1224.4700662543637
1153,1153,[-5.85886670e+03  3.30367175e+02 -8.09557799e-03 -1.31641694e+07],1054,1222.9845806688927
1154,1154,[-4.23797540e+03  3.33370504e+02 -6.07046889e-03 -1.31641694e+07],634,1223.0762437690382
1155,1155,[-4.92539538e+03  3.32369489e+02 -6.91308647e-03 -1.31641694e+07],886,1222.7549852249128
1156,1156,[-6.01534897e+03  3.30367076e+02 -8.74758322e-03 -1.31641694e+07],635,1224.6516103460833
1157,1157,[-6.14822510e+03  3.31368227e+02 -7.72745892e-03 -1.31641694e+07],263,1222.3401041985642
1158,1158,[-5.52251860e+03  3.32369305e+02 -9.80185637e-03 -1.31641694e+07],658,1220.7385082232097
1159,1159,[-5.86193326e+03  3.30367097e+02 -9.10852838e-03 -1.31641694e+07],195,1222.072601585944
1160,1160,[-5.82120441e+03  3.29365982e+02 -8.84672630e-03 -1.31641694e+07],408,1220.7215151546623
1161,1161,[-6.50288205e+03  3.31368229e+02 -7.34442198e-03 -1.31641694e+07],686,1218.2888096734519
1162,1162,[-4.98798744e+03  3.31368249e+02 -7.93420872e-03 -1.31641694e+07],1104,1218.2345557529707
1163,1163,[-4.92469069e+03  3.32369461e+02 -7.42122942e-03 -1.31641694e+07],641,1219.0861315333193
1164,1164,[-5.79694944e+03  3.30367220e+02 -1.15799083e-02 -1.31641694e+07],443,1214.3968669807643
1165,1165,[-6.21833478e+03  3.29366027e+02 -1.02621263e-02 -1.31641694e+07],235,1217.771681311213
1166,1166,[-5.57023708e+03  3.32369663e+02 -9.58481099e-03 -1.31641694e+07],1018,1216.6955606216725
1167,1167,[-5.81488942e+03  3.31368203e+02 -9.39774844e-03 -1.31641694e+07],829,1219.6907732078728
1168,1168,[-4.57206306e+03  3.31368298e+02 -6.44211100e-03 -1.31641694e+07],936,1219.978386068019
1169,1169,[-5.61546207e+03  3.30367128e+02 -8.26219189e-03 -1.31641694e+07],196,1221.6007947909607
1170,1170,[-5.24176201e+03  3.30367258e+02 -7.50828018e-03 -1.31641694e+07],603,1219.8094726040342
1171,1171,[-5.95941627e+03  3.31368368e+02 -9.20316800e-03 -1.31641694e+07],1192,1222.9700060428208
1172,1172,[-5.07756104e+03  3.32369311e+02 -7.74353824e-03 -1.31641694e+07],1027,1219.3814970550095
1173,1173,[-6.03232535e+03  3.30367088e+02 -9.13152124e-03 -1.31641694e+07],680,1222.8173713428546
1174,1174,[-6.07761778e+03  3.30367400e+02 -8.43181113e-03 -1.31641694e+07],969,1223.4278757784336
1175,1175,[-5.79262694e+03  3.30367150e+02 -7.18431918e-03 -1.31641694e+07],1019,1212.4544059285479
1176,1176,[-5.83664906e+03  3.30367166e+02 -7.54146007e-03 -1.31641694e+07],830,1208.128762111429
1177,1177,[-7.07197894e+03  3.30367124e+02 -8.46735846e-03 -1.31641694e+07],1078,1201.6680506248513
1178,1178,[-5.96457130e+03  3.31368212e+02 -7.77708835e-03 -1.31641694e+07],1028,1214.6917306515961
1179,1179,[-4.97319874e+03  3.31368343e+02 -8.87439477e-03 -1.31641694e+07],167,1208.142356485469
1180,1180,[-4.82002249e+03  3.31368355e+02 -7.86593787e-03 -1.31641694e+07],233,1212.5071298857115
1181,1181,[-5.76249441e+03  3.29366003e+02 -1.03461026e-02 -1.31641694e+07],915,1217.0279337881482
1182,1182,[-5.48376268e+03  3.30367181e+02 -9.05845905e-03 -1.31641694e+07],120,1216.4906594517315
1183,1183,[-5.44357981e+03  3.30367218e+02 -9.17245093e-03 -1.31641694e+07],1075,1214.8767770022446
1184,1184,[-5.44234700e+03  3.31368291e+02 -9.08166509e-03 -1.31641694e+07],441,1215.4372686543302
1185,1185,[-4.99550008e+03  3.32369325e+02 -7.79625852e-03 -1.31641694e+07],845,1219.6961715884586
1186,1186,[-6.15348154e+03  3.30367130e+02 -8.97659646e-03 -1.31641694e+07],744,1223.2544093995919
1187,1187,[-6.12600080e+03  3.31368333e+02 -9.48915696e-03 -1.31641694e+07],410,1217.6103508160775
1188,1188,[-6.07360829e+03  3.31368286e+02 -8.84829028e-03 -1.31641694e+07],887,1222.6013005533184
1189,1189,[-6.14510232e+03  3.31368237e+02 -7.75313827e-03 -1.31641694e+07],1020,1220.2619130457101
1190,1190,[-4.16762500e+03  3.33370448e+02 -5.14618530e-03 -1.31641694e+07],1179,1218.988659494116
1191,1191,[-5.58612484e+03  3.31368228e+02 -8.89246713e-03 -1.31641694e+07],1176,1221.1054866141824
1192,1192,[-4.84986565e+03  3.31368544e+02 -8.08246886e-03 -1.31641694e+07],826,1210.7342573119624
1193,1193,[-5.76131071e+03  3.30367277e+02 -8.76386535e-03 -1.31641694e+07],974,1218.612924622741
1194,1194,[-4.73624941e+03  3.33370480e+02 -6.07041711e-03 -1.31641694e+07],828,1219.3248157142966
1195,1195,[-4.91858100e+03  3.31368431e+02 -6.35116342e-03 -1.31641694e+07],662,1221.455790281801
1196,1196,[-4.28461282e+03  3.33370527e+02 -6.00824528e-03 -1.31641694e+07],712,1220.2404235289619
1197,1197,[-5.86787457e+03  3.30367153e+02 -8.87912892e-03 -1.31641694e+07],714,1220.2016128085904
1198,1198,[-4.38482929e+03  3.33370426e+02 -5.98889310e-03 -1.31641694e+07],440,1219.1325597112927
1199,1199,[-6.40989530e+03  3.29366034e+02 -1.00228148e-02 -1.31641694e+07],934,1217.372589733139
1200,1200,[-4.86012295e+03  3.32369327e+02 -6.59515782e-03 -1.31641694e+07],713,1219.4951935858526
1201,1201,[-6.05394605e+03  3.30367116e+02 -9.18924217e-03 -1.31641694e+07],932,1219.2469119124744
1202,1202,[-5.24409479e+03  3.31368430e+02 -7.88640370e-03 -1.31641694e+07],439,1218.9419753890957
1203,1203,[-4.52051755e+03  3.33370670e+02 -6.04042694e-03 -1.31641694e+07],1055,1218.8418312906497
1204,1204,[-4.51390327e+03  3.33370454e+02 -6.02633705e-03 -1.31641694e+07],192,1220.035758535419
1205,1205,[-3.98656914e+03  3.35372696e+02 -5.75528731e-03 -1.31641694e+07],933,1218.7595704605883
1206,1206,[-5.64864780e+03  3.31368228e+02 -7.46061458e-03 -1.31641694e+07],1037,1221.9312869940845
1207,1207,[-6.14044439e+03  3.30367088e+02 -8.68948265e-03 -1.31641694e+07],970,1223.5486896226798
1208,1208,[-6.56738210e+03  3.30367086e+02 -8.61808557e-03 -1.31641694e+07],1041,1220.8210670296119
1209,1209,[-6.24737060e+03  3.31368422e+02 -8.00988002e-03 -1.31641694e+07],677,1213.849961064547
1210,1210,[-5.01508958e+03  3.32369331e+02 -7.72051129e-03 -1.31641694e+07],1102,1215.3630797633843
1211,1211,[-4.37040309e+03  3.33370499e+02 -5.90227207e-03 -1.31641694e+07],1177,1220.3669509279516
1212,1212,[-4.42817434e+03  3.33370759e+02 -6.12990216e-03 -1.31641694e+07],827,1215.6681265136888
1213,1213,[-6.20116796e+03  3.31368266e+02 -7.25109987e-03 -1.31641694e+07],1056,1222.1417122861467
1214,1214,[-4.83106831e+03  3.33370492e+02 -6.44612313e-03 -1.31641694e+07],844,1220.8205615286754
1215,1215,[-4.39649786e+03  3.32369320e+02 -6.76173737e-03 -1.31641694e+07],314,1216.48341734777
1216,1216,[-5.59496021e+03  3.30367136e+02 -9.11326751e-03 -1.31641694e+07],234,1222.1120472103366
1217,1217,[-4.98076721e+03  3.31368234e+02 -6.24710973e-03 -1.31641694e+07],659,1218.3542835936978
1218,1218,[-4.05784295e+03  3.33370559e+02 -6.08683285e-03 -1.31641694e+07],1038,1219.7966690964347
1219,1219,[-6.39467299e+03  3.29365985e+02 -1.04144887e-02 -1.31641694e+07],971,1220.8284716773132
1220,1220,[-4.62947608e+03  3.33370541e+02 -5.89924723e-03 -1.31641694e+07],972,1219.4162159768905
1221,1221,[-6.29648845e+03  3.29365993e+02 -1.03347743e-02 -1.31641694e+07],992,1222.3406673718707
1222,1222,[-5.92084610e+03  3.30367089e+02 -9.31251573e-03 -1.31641694e+07],660,1222.9480353066242
1223,1223,[-4.60550645e+03  3.33370414e+02 -5.94949326e-03 -1.31641694e+07],1103,1221.7749537787151
1224,1224,[-4.69643143e+03  3.31368341e+02 -7.76622168e-03 -1.31641694e+07],1139,1220.6163127512818
1225,1225,[-4.52213650e+03  3.33370471e+02 -6.10319520e-03 -1.31641694e+07],193,1215.230787477834
1226,1226,[-6.08932525e+03  3.31368297e+02 -8.72913140e-03 -1.31641694e+07],1140,1223.035911478577
1227,1227,[-5.26573341e+03  3.31368220e+02 -7.81055422e-03 -1.31641694e+07],194,1223.015308163308
1228,1228,[-5.60737371e+03  3.31368287e+02 -8.62719604e-03 -1.31641694e+07],602,1221.4427668868823
1229,1229,[-5.24320409e+03  3.30367145e+02 -8.78308131e-03 -1.31641694e+07],1231,1220.4433401092535
1230,1230,[ 6.68273135e+03  3.01334866e+02 -4.93900133e-03 -1.31641694e+07],990,1212.8985889765029
1231,1231,[-5.22395846e+03  3.32369310e+02 -7.58642671e-03 -1.31641694e+07],991,1179.1716691560366
