,0,1,2,3
0,0,[ 5.42985621e+04  1.58924583e+03 -3.17995200e-02  5.65595637e-01],342,919.9104424601463
1,1,[ 5.42985621e+04  1.58924583e+03 -3.17995200e-02  5.65595637e-01],344,919.6828317749105
2,2,[ 5.42985621e+04  1.58924583e+03 -3.17995200e-02  5.65595637e-01],329,918.7488354674506
3,3,[ 5.42985621e+04  1.58924583e+03 -3.17995200e-02  5.65595637e-01],273,919.5072940778947
4,4,[ 5.42985621e+04  1.58924583e+03 -3.17995200e-02  5.65595637e-01],592,919.931924393753
5,5,[ 5.42985621e+04  1.58924583e+03 -3.17995200e-02  5.65595637e-01],235,920.849698750398
6,6,[ 5.42985621e+04  1.58924583e+03 -3.17995200e-02  5.65595637e-01],389,920.3506805469143
7,7,[ 5.42985621e+04  1.58924583e+03 -3.17995200e-02  5.65595637e-01],566,917.5822006719183
8,8,[ 5.42985621e+04  1.58924583e+03 -3.17995200e-02  5.65595637e-01],876,915.5422845783373
9,9,[ 5.42985621e+04  1.58924583e+03 -3.17995200e-02  5.65595637e-01],612,918.2833403957775
10,10,[ 5.42985621e+04  1.58924583e+03 -3.17995200e-02  5.65595637e-01],210,920.2018850363331
11,11,[ 5.42985621e+04  1.58924583e+03 -3.17995200e-02  5.65595637e-01],611,920.217316986276
12,12,[ 5.42985621e+04  1.58924583e+03 -3.17995200e-02  5.65595637e-01],755,920.3689108476461
13,13,[ 5.42985621e+04  1.58924583e+03 -3.17995200e-02  5.65595637e-01],756,920.2998375264234
14,14,[ 5.42985621e+04  1.58924583e+03 -3.17995200e-02  5.65595637e-01],136,920.6672530541534
15,15,[ 5.42985621e+04  1.58924583e+03 -3.17995200e-02  5.65595637e-01],770,920.1040884030771
16,16,[ 5.42985621e+04  1.58924583e+03 -3.17995200e-02  5.65595637e-01],231,919.4299001410777
17,17,[ 5.42985621e+04  1.58924583e+03 -3.17995200e-02  5.65595637e-01],812,918.9107832165028
18,18,[ 5.42985621e+04  1.58924583e+03 -3.17995200e-02  5.65595637e-01],630,918.882632090338
19,19,[ 5.42985621e+04  1.58924583e+03 -3.17995200e-02  5.65595637e-01],272,919.6664870380763
20,20,[ 5.42985621e+04  1.58924583e+03 -3.17995200e-02  5.65595637e-01],408,917.193664923676
21,21,[ 5.42985621e+04  1.58924583e+03 -3.17995200e-02  5.65595637e-01],138,917.070101832939
22,22,[ 5.42985621e+04  1.58924583e+03 -3.17995200e-02  5.65595637e-01],226,918.6579355749781
23,23,[ 5.42985621e+04  1.58924583e+03 -3.17995200e-02  5.65595637e-01],868,919.5695529368118
24,24,[ 5.42985621e+04  1.58924583e+03 -3.17995200e-02  5.65595637e-01],720,918.8564377557406
25,25,[ 5.42985621e+04  1.58924583e+03 -3.17995200e-02  5.65595637e-01],140,919.3127762277271
26,26,[ 5.42985621e+04  1.58924583e+03 -3.17995200e-02  5.65595637e-01],762,919.8012137975167
27,27,[ 5.42985621e+04  1.58924583e+03 -3.17995200e-02  5.65595637e-01],589,920.230737254126
28,28,[ 5.42985621e+04  1.58924583e+03 -3.17995200e-02  5.65595637e-01],236,920.3053873560175
29,29,[ 5.42985621e+04  1.58924583e+03 -3.17995200e-02  5.65595637e-01],283,920.6764877242022
30,30,[ 5.42985621e+04  1.58924583e+03 -3.17995200e-02  5.65595637e-01],578,920.5415795213237
31,31,[ 5.42985621e+04  1.58924583e+03 -3.17995200e-02  5.65595637e-01],743,920.6214881205999
32,32,[ 5.42985621e+04  1.58924583e+03 -3.17995200e-02  5.65595637e-01],282,920.7395206301056
33,33,[ 5.42985621e+04  1.58924583e+03 -3.17995200e-02  5.65595637e-01],692,920.4580367330735
34,34,[ 5.42985621e+04  1.58924583e+03 -3.17995200e-02  5.65595637e-01],757,920.6041738626723
35,35,[ 5.42985621e+04  1.58924583e+03 -3.17995200e-02  5.65595637e-01],137,920.8688084656042
36,36,[ 5.42985621e+04  1.58924583e+03 -3.17995200e-02  5.65595637e-01],790,919.186103079245
37,37,[ 5.42985621e+04  1.58924583e+03 -3.17995200e-02  5.65595637e-01],237,917.4230878307794
38,38,[ 5.42985621e+04  1.58924583e+03 -3.17995200e-02  5.65595637e-01],422,917.3459631476093
39,39,[ 5.42985621e+04  1.58924583e+03 -3.17995200e-02  5.65595637e-01],621,917.8464828850005
40,40,[ 5.42985621e+04  1.58924583e+03 -3.17995200e-02  5.65595637e-01],920,919.6572827489531
41,41,[ 5.42985621e+04  1.58924583e+03 -3.17995200e-02  5.65595637e-01],628,920.2927131629466
42,42,[ 5.42985621e+04  1.58924583e+03 -3.17995200e-02  5.65595637e-01],602,920.216972827515
43,43,[ 5.42985621e+04  1.58924583e+03 -3.17995200e-02  5.65595637e-01],789,920.2402818474267
44,44,[ 5.42985621e+04  1.58924583e+03 -3.17995200e-02  5.65595637e-01],328,920.3071762991019
45,45,[ 5.42985621e+04  1.58924583e+03 -3.17995200e-02  5.65595637e-01],89,920.8614961959692
46,46,[ 5.42985621e+04  1.58924583e+03 -3.17995200e-02  5.65595637e-01],225,920.316677384553
47,47,[ 5.42985621e+04  1.58924583e+03 -3.17995200e-02  5.65595637e-01],321,921.0738643151109
48,48,[ 5.42985621e+04  1.58924583e+03 -3.17995200e-02  5.65595637e-01],691,921.0883628714655
49,49,[ 5.42985621e+04  1.58924583e+03 -3.17995200e-02  5.65595637e-01],420,920.8971800804752
50,50,[ 5.42985621e+04  1.58924583e+03 -3.17995200e-02  5.65595637e-01],744,920.8252287953297
51,51,[ 5.42985621e+04  1.58924583e+03 -3.17995200e-02  5.65595637e-01],425,920.6671237136851
52,52,[ 5.42985621e+04  1.58924583e+03 -3.17995200e-02  5.65595637e-01],324,920.4548802781952
53,53,[ 5.42985621e+04  1.58924583e+03 -3.17995200e-02  5.65595637e-01],227,918.9513759264191
54,54,[ 5.42985621e+04  1.58924583e+03 -3.17995200e-02  5.65595637e-01],752,919.1475697315645
55,55,[ 5.42985621e+04  1.58924583e+03 -3.17995200e-02  5.65595637e-01],424,920.4939871774128
56,56,[ 5.42985621e+04  1.58924583e+03 -3.17995200e-02  5.65595637e-01],721,919.8705933803409
57,57,[ 5.42985621e+04  1.58924583e+03 -3.17995200e-02  5.65595637e-01],60,919.3245745894329
58,58,[ 5.42985621e+04  1.58924583e+03 -3.17995200e-02  5.65595637e-01],758,920.4571997029648
59,59,[ 5.42985621e+04  1.58924583e+03 -3.17995200e-02  5.65595637e-01],741,920.9766898360294
60,60,[ 5.42985621e+04  1.58924583e+03 -3.17995200e-02  5.65595637e-01],680,921.3375729067321
61,61,[ 5.42985621e+04  1.58924583e+03 -3.17995200e-02  5.65595637e-01],797,921.0951854236433
62,62,[ 5.42985621e+04  1.58924583e+03 -3.17995200e-02  5.65595637e-01],72,917.4649009478625
63,63,[ 5.42985621e+04  1.58924583e+03 -3.17995200e-02  5.65595637e-01],632,919.1531219012895
64,64,[ 5.42985621e+04  1.58924583e+03 -3.17995200e-02  5.65595637e-01],469,920.6817418767515
65,65,[ 5.42985621e+04  1.58924583e+03 -3.17995200e-02  5.65595637e-01],614,920.5050452218933
66,66,[ 5.42985621e+04  1.58924583e+03 -3.17995200e-02  5.65595637e-01],497,919.9988304695637
67,67,[ 5.42985621e+04  1.58924583e+03 -3.17995200e-02  5.65595637e-01],903,920.5728070110091
68,68,[ 5.42985621e+04  1.58924583e+03 -3.17995200e-02  5.65595637e-01],595,920.0621388921471
69,69,[ 5.42985621e+04  1.58924583e+03 -3.17995200e-02  5.65595637e-01],195,920.8139967829551
70,70,[ 5.42985621e+04  1.58924583e+03 -3.17995200e-02  5.65595637e-01],534,920.9123046221058
71,71,[ 5.42985621e+04  1.58924583e+03 -3.17995200e-02  5.65595637e-01],585,921.2341872131225
72,72,[ 5.42985621e+04  1.58924583e+03 -3.17995200e-02  5.65595637e-01],385,921.3148684447654
73,73,[ 5.42985621e+04  1.58924583e+03 -3.17995200e-02  5.65595637e-01],904,921.2134338599471
74,74,[ 5.42985621e+04  1.58924583e+03 -3.17995200e-02  5.65595637e-01],669,921.0781139791245
75,75,[ 5.42985621e+04  1.58924583e+03 -3.17995200e-02  5.65595637e-01],352,921.1348676194991
76,76,[ 5.42985621e+04  1.58924583e+03 -3.17995200e-02  5.65595637e-01],91,921.0327334692382
77,77,[ 5.42985621e+04  1.58924583e+03 -3.17995200e-02  5.65595637e-01],535,921.0771959368429
78,78,[ 5.42985621e+04  1.58924583e+03 -3.17995200e-02  5.65595637e-01],405,921.0626487279432
79,79,[ 5.42985621e+04  1.58924583e+03 -3.17995200e-02  5.65595637e-01],613,919.8740561264051
80,80,[ 5.42985621e+04  1.58924583e+03 -3.17995200e-02  5.65595637e-01],255,919.2235003618314
81,81,[ 5.42985621e+04  1.58924583e+03 -3.17995200e-02  5.65595637e-01],205,918.5611259173284
82,82,[ 5.42985621e+04  1.58924583e+03 -3.17995200e-02  5.65595637e-01],208,918.5932806157007
83,83,[ 5.42985621e+04  1.58924583e+03 -3.17995200e-02  5.65595637e-01],604,918.720913573669
84,84,[ 5.42985621e+04  1.58924583e+03 -3.17995200e-02  5.65595637e-01],861,919.8770474901291
85,85,[ 5.42985621e+04  1.58924583e+03 -3.17995200e-02  5.65595637e-01],134,919.7961927374819
86,86,[ 5.42985621e+04  1.58924583e+03 -3.17995200e-02  5.65595637e-01],126,919.9493684667177
87,87,[ 5.42985621e+04  1.58924583e+03 -3.17995200e-02  5.65595637e-01],921,920.9589058183166
88,88,[ 5.42985621e+04  1.58924583e+03 -3.17995200e-02  5.65595637e-01],745,921.0555484172506
89,89,[ 5.42985621e+04  1.58924583e+03 -3.17995200e-02  5.65595637e-01],573,921.3679465232351
90,90,[ 5.42985621e+04  1.58924583e+03 -3.17995200e-02  5.65595637e-01],690,920.9340695551991
91,91,[ 5.42985621e+04  1.58924583e+03 -3.17995200e-02  5.65595637e-01],327,921.2848795777702
92,92,[ 5.42985621e+04  1.58924583e+03 -3.17995200e-02  5.65595637e-01],374,920.9263329777551
93,93,[ 5.42985621e+04  1.58924583e+03 -3.17995200e-02  5.65595637e-01],656,921.1923275546186
94,94,[ 5.42985621e+04  1.58924583e+03 -3.17995200e-02  5.65595637e-01],650,920.9151473535122
95,95,[ 5.42985621e+04  1.58924583e+03 -3.17995200e-02  5.65595637e-01],593,921.2362174341716
96,96,[ 5.42985621e+04  1.58924583e+03 -3.17995200e-02  5.65595637e-01],715,919.669312110284
97,97,[ 5.42985621e+04  1.58924583e+03 -3.17995200e-02  5.65595637e-01],409,920.5347971662628
98,98,[ 5.42985621e+04  1.58924583e+03 -3.17995200e-02  5.65595637e-01],914,920.8422249546696
99,99,[ 5.42985621e+04  1.58924583e+03 -3.17995200e-02  5.65595637e-01],323,919.759134455157
100,100,[ 5.42985621e+04  1.58924583e+03 -3.17995200e-02  5.65595637e-01],554,919.1631499977452
101,101,[ 5.42985621e+04  1.58924583e+03 -3.17995200e-02  5.65595637e-01],884,918.0403511785296
102,102,[ 5.42985621e+04  1.58924583e+03 -3.17995200e-02  5.65595637e-01],711,918.5143837095832
103,103,[ 5.42985621e+04  1.58924583e+03 -3.17995200e-02  5.65595637e-01],421,920.1776364506775
104,104,[ 5.42985621e+04  1.58924583e+03 -3.17995200e-02  5.65595637e-01],95,920.2495200287582
105,105,[ 5.42985621e+04  1.58924583e+03 -3.17995200e-02  5.65595637e-01],910,920.9191034742679
106,106,[ 5.42985621e+04  1.58924583e+03 -3.17995200e-02  5.65595637e-01],161,920.7524305309776
107,107,[ 5.42985621e+04  1.58924583e+03 -3.17995200e-02  5.65595637e-01],71,920.7855596315763
108,108,[ 5.42985621e+04  1.58924583e+03 -3.17995200e-02  5.65595637e-01],709,921.0947029048921
109,109,[ 5.42985621e+04  1.58924583e+03 -3.17995200e-02  5.65595637e-01],763,921.0062318696256
110,110,[ 5.42985621e+04  1.58924583e+03 -3.17995200e-02  5.65595637e-01],574,920.7537249088957
111,111,[ 5.42985621e+04  1.58924583e+03 -3.17995200e-02  5.65595637e-01],888,920.9085119871272
112,112,[ 5.42985621e+04  1.58924583e+03 -3.17995200e-02  5.65595637e-01],386,918.4104129402409
113,113,[ 5.42985621e+04  1.58924583e+03 -3.17995200e-02  5.65595637e-01],309,920.2556563793328
114,114,[ 5.42985621e+04  1.58924583e+03 -3.17995200e-02  5.65595637e-01],891,921.0255257544252
115,115,[ 5.42985621e+04  1.58924583e+03 -3.17995200e-02  5.65595637e-01],202,920.4800666852046
116,116,[ 5.42985621e+04  1.58924583e+03 -3.17995200e-02  5.65595637e-01],153,919.6606926893037
117,117,[ 5.42985621e+04  1.58924583e+03 -3.17995200e-02  5.65595637e-01],325,920.8111041061286
118,118,[ 5.42985621e+04  1.58924583e+03 -3.17995200e-02  5.65595637e-01],824,921.1346164577681
119,119,[ 5.42985621e+04  1.58924583e+03 -3.17995200e-02  5.65595637e-01],917,920.9329598563147
120,120,[ 5.42985621e+04  1.58924583e+03 -3.17995200e-02  5.65595637e-01],892,920.9188792010546
121,121,[ 5.42985621e+04  1.58924583e+03 -3.17995200e-02  5.65595637e-01],351,920.9740450926241
122,122,[ 5.42985621e+04  1.58924583e+03 -3.17995200e-02  5.65595637e-01],766,920.8472963769959
123,123,[ 5.42985621e+04  1.58924583e+03 -3.17995200e-02  5.65595637e-01],729,920.0300505690635
124,124,[ 5.42985621e+04  1.58924583e+03 -3.17995200e-02  5.65595637e-01],536,920.6328159515256
125,125,[ 5.42985621e+04  1.58924583e+03 -3.17995200e-02  5.65595637e-01],855,920.940477703366
126,126,[ 5.42985621e+04  1.58924583e+03 -3.17995200e-02  5.65595637e-01],224,921.263928526648
127,127,[ 5.42985621e+04  1.58924583e+03 -3.17995200e-02  5.65595637e-01],295,920.9344351023757
128,128,[ 5.42985621e+04  1.58924583e+03 -3.17995200e-02  5.65595637e-01],821,920.9762814309047
129,129,[ 5.42985621e+04  1.58924583e+03 -3.17995200e-02  5.65595637e-01],73,921.163949122596
130,130,[ 5.42985621e+04  1.58924583e+03 -3.17995200e-02  5.65595637e-01],629,921.109280436576
131,131,[ 5.42985621e+04  1.58924583e+03 -3.17995200e-02  5.65595637e-01],664,920.830160583285
132,132,[ 5.42985621e+04  1.58924583e+03 -3.17995200e-02  5.65595637e-01],634,920.9574071096359
133,133,[ 5.42985621e+04  1.58924583e+03 -3.17995200e-02  5.65595637e-01],662,920.3879620119482
134,134,[ 5.42985621e+04  1.58924583e+03 -3.17995200e-02  5.65595637e-01],343,921.2641135894129
135,135,[ 5.42985621e+04  1.58924583e+03 -3.17995200e-02  5.65595637e-01],274,920.8610868225542
136,136,[ 5.42985621e+04  1.58924583e+03 -3.17995200e-02  5.65595637e-01],815,921.433320048259
137,137,[ 5.42985621e+04  1.58924583e+03 -3.17995200e-02  5.65595637e-01],234,921.3840163709846
138,138,[ 5.42985621e+04  1.58924583e+03 -3.17995200e-02  5.65595637e-01],519,921.4133753381742
139,139,[ 5.42985621e+04  1.58924583e+03 -3.17995200e-02  5.65595637e-01],898,920.9583790255064
140,140,[ 5.42985621e+04  1.58924583e+03 -3.17995200e-02  5.65595637e-01],622,921.4058970206187
141,141,[ 5.42985621e+04  1.58924583e+03 -3.17995200e-02  5.65595637e-01],682,920.6159260494982
142,142,[ 5.42985621e+04  1.58924583e+03 -3.17995200e-02  5.65595637e-01],857,920.8231636983702
143,143,[ 5.42985621e+04  1.58924583e+03 -3.17995200e-02  5.65595637e-01],555,921.0866190201323
144,144,[ 5.42985621e+04  1.58924583e+03 -3.17995200e-02  5.65595637e-01],93,921.0379363642126
145,145,[ 5.42985621e+04  1.58924583e+03 -3.17995200e-02  5.65595637e-01],601,920.8471879287832
146,146,[ 5.42985621e+04  1.58924583e+03 -3.17995200e-02  5.65595637e-01],722,921.146863620958
147,147,[ 5.42985621e+04  1.58924583e+03 -3.17995200e-02  5.65595637e-01],190,920.9833163947142
148,148,[ 5.42985621e+04  1.58924583e+03 -3.17995200e-02  5.65595637e-01],473,920.9691451539729
149,149,[ 5.42985621e+04  1.58924583e+03 -3.17995200e-02  5.65595637e-01],270,920.8027069893361
150,150,[ 5.42985621e+04  1.58924583e+03 -3.17995200e-02  5.65595637e-01],880,920.863719778426
151,151,[ 5.42985621e+04  1.58924583e+03 -3.17995200e-02  5.65595637e-01],219,920.7818924006602
152,152,[ 5.42985621e+04  1.58924583e+03 -3.17995200e-02  5.65595637e-01],633,920.3942981806141
153,153,[ 5.42985621e+04  1.58924583e+03 -3.17995200e-02  5.65595637e-01],617,921.2282147229166
154,154,[ 5.42985621e+04  1.58924583e+03 -3.17995200e-02  5.65595637e-01],229,918.7597293236619
155,155,[ 5.42985621e+04  1.58924583e+03 -3.17995200e-02  5.65595637e-01],250,919.2508102891097
156,156,[ 5.42985621e+04  1.58924583e+03 -3.17995200e-02  5.65595637e-01],793,920.6106456871894
157,157,[ 5.42985621e+04  1.58924583e+03 -3.17995200e-02  5.65595637e-01],627,920.4645722020209
158,158,[ 5.42985621e+04  1.58924583e+03 -3.17995200e-02  5.65595637e-01],607,919.8599237679626
159,159,[ 5.42985621e+04  1.58924583e+03 -3.17995200e-02  5.65595637e-01],129,920.2466534291511
160,160,[ 5.42985621e+04  1.58924583e+03 -3.17995200e-02  5.65595637e-01],666,920.6037482469521
161,161,[ 5.42985621e+04  1.58924583e+03 -3.17995200e-02  5.65595637e-01],364,921.234673870603
162,162,[ 5.42985621e+04  1.58924583e+03 -3.17995200e-02  5.65595637e-01],269,920.0223186736596
163,163,[ 5.42985621e+04  1.58924583e+03 -3.17995200e-02  5.65595637e-01],764,919.6493082983862
164,164,[ 5.42985621e+04  1.58924583e+03 -3.17995200e-02  5.65595637e-01],296,920.3056208164029
165,165,[ 5.42985621e+04  1.58924583e+03 -3.17995200e-02  5.65595637e-01],693,919.6477180582046
166,166,[ 5.42985621e+04  1.58924583e+03 -3.17995200e-02  5.65595637e-01],426,917.4953939844187
167,167,[ 5.42985621e+04  1.58924583e+03 -3.17995200e-02  5.65595637e-01],772,917.1971181102264
168,168,[ 5.42985621e+04  1.58924583e+03 -3.17995200e-02  5.65595637e-01],714,917.6797826099122
169,169,[ 5.42985621e+04  1.58924583e+03 -3.17995200e-02  5.65595637e-01],798,918.6145774915195
170,170,[ 5.42985621e+04  1.58924583e+03 -3.17995200e-02  5.65595637e-01],387,918.4688655658891
171,171,[ 5.42985621e+04  1.58924583e+03 -3.17995200e-02  5.65595637e-01],901,919.6935658797462
172,172,[ 5.42985621e+04  1.58924583e+03 -3.17995200e-02  5.65595637e-01],146,920.4653952579375
173,173,[ 5.42985621e+04  1.58924583e+03 -3.17995200e-02  5.65595637e-01],531,920.622419604281
174,174,[ 5.42985621e+04  1.58924583e+03 -3.17995200e-02  5.65595637e-01],520,921.1384532226366
175,175,[ 5.42985621e+04  1.58924583e+03 -3.17995200e-02  5.65595637e-01],547,920.4287271460599
176,176,[ 5.42985621e+04  1.58924583e+03 -3.17995200e-02  5.65595637e-01],881,921.0753243492089
177,177,[ 5.42985621e+04  1.58924583e+03 -3.17995200e-02  5.65595637e-01],913,920.9004763881958
178,178,[ 5.42985621e+04  1.58924583e+03 -3.17995200e-02  5.65595637e-01],733,920.4254012715743
179,179,[ 5.42985621e+04  1.58924583e+03 -3.17995200e-02  5.65595637e-01],209,920.6018252624291
180,180,[ 5.42985621e+04  1.58924583e+03 -3.17995200e-02  5.65595637e-01],174,920.7289116976737
181,181,[ 5.42985621e+04  1.58924583e+03 -3.17995200e-02  5.65595637e-01],858,920.7896818656762
182,182,[ 5.42985621e+04  1.58924583e+03 -3.17995200e-02  5.65595637e-01],518,918.6940551224305
183,183,[ 5.42985621e+04  1.58924583e+03 -3.17995200e-02  5.65595637e-01],631,920.2945210928278
184,184,[ 5.42985621e+04  1.58924583e+03 -3.17995200e-02  5.65595637e-01],207,920.7893032827216
185,185,[ 5.42985621e+04  1.58924583e+03 -3.17995200e-02  5.65595637e-01],392,919.9452228847116
186,186,[ 5.42985621e+04  1.58924583e+03 -3.17995200e-02  5.65595637e-01],846,920.351496286353
187,187,[ 5.42985621e+04  1.58924583e+03 -3.17995200e-02  5.65595637e-01],397,920.8628378657581
188,188,[ 5.42985621e+04  1.58924583e+03 -3.17995200e-02  5.65595637e-01],484,920.9481184628839
189,189,[ 5.42985621e+04  1.58924583e+03 -3.17995200e-02  5.65595637e-01],75,920.9333750054502
190,190,[ 5.42985621e+04  1.58924583e+03 -3.17995200e-02  5.65595637e-01],118,921.1889933086709
191,191,[ 5.42985621e+04  1.58924583e+03 -3.17995200e-02  5.65595637e-01],712,920.6888782456743
192,192,[ 5.42985621e+04  1.58924583e+03 -3.17995200e-02  5.65595637e-01],271,920.5244935296256
193,193,[ 5.42985621e+04  1.58924583e+03 -3.17995200e-02  5.65595637e-01],654,920.2413393965456
194,194,[ 5.42985621e+04  1.58924583e+03 -3.17995200e-02  5.65595637e-01],322,920.494836440971
195,195,[ 5.42985621e+04  1.58924583e+03 -3.17995200e-02  5.65595637e-01],838,921.3051323397068
196,196,[ 5.42985621e+04  1.58924583e+03 -3.17995200e-02  5.65595637e-01],284,920.4485707304372
197,197,[ 5.42985621e+04  1.58924583e+03 -3.17995200e-02  5.65595637e-01],281,921.0956891888069
198,198,[ 5.42985621e+04  1.58924583e+03 -3.17995200e-02  5.65595637e-01],204,920.9848946792166
199,199,[ 5.42985621e+04  1.58924583e+03 -3.17995200e-02  5.65595637e-01],641,920.4496049493911
200,200,[ 5.42985621e+04  1.58924583e+03 -3.17995200e-02  5.65595637e-01],742,920.1612031567768
201,201,[ 5.42985621e+04  1.58924583e+03 -3.17995200e-02  5.65595637e-01],521,920.5102482435799
202,202,[ 5.42985621e+04  1.58924583e+03 -3.17995200e-02  5.65595637e-01],556,921.2286329650308
203,203,[ 5.42985621e+04  1.58924583e+03 -3.17995200e-02  5.65595637e-01],908,920.7574195884366
204,204,[ 5.42985621e+04  1.58924583e+03 -3.17995200e-02  5.65595637e-01],657,921.1253553281373
205,205,[ 5.42985621e+04  1.58924583e+03 -3.17995200e-02  5.65595637e-01],637,921.2725317191271
206,206,[ 5.42985621e+04  1.58924583e+03 -3.17995200e-02  5.65595637e-01],665,921.0622621355647
207,207,[ 5.42985621e+04  1.58924583e+03 -3.17995200e-02  5.65595637e-01],308,921.1372285511169
208,208,[ 5.42985621e+04  1.58924583e+03 -3.17995200e-02  5.65595637e-01],708,921.2716620181714
209,209,[ 5.42985621e+04  1.58924583e+03 -3.17995200e-02  5.65595637e-01],806,921.1390387241415
210,210,[ 5.42985621e+04  1.58924583e+03 -3.17995200e-02  5.65595637e-01],130,921.4595120185705
211,211,[ 5.42985621e+04  1.58924583e+03 -3.17995200e-02  5.65595637e-01],795,920.717344298802
212,212,[ 5.42985621e+04  1.58924583e+03 -3.17995200e-02  5.65595637e-01],688,919.6262141618133
213,213,[ 5.42985621e+04  1.58924583e+03 -3.17995200e-02  5.65595637e-01],724,919.1433997050123
214,214,[ 5.42985621e+04  1.58924583e+03 -3.17995200e-02  5.65595637e-01],885,919.8931193416822
215,215,[ 5.42985621e+04  1.58924583e+03 -3.17995200e-02  5.65595637e-01],216,920.7269791789071
216,216,[ 5.42985621e+04  1.58924583e+03 -3.17995200e-02  5.65595637e-01],410,921.1011745878199
217,217,[ 5.42985621e+04  1.58924583e+03 -3.17995200e-02  5.65595637e-01],765,920.9324653017093
218,218,[ 5.42985621e+04  1.58924583e+03 -3.17995200e-02  5.65595637e-01],759,920.7453583617407
219,219,[ 5.42985621e+04  1.58924583e+03 -3.17995200e-02  5.65595637e-01],197,921.1785720717012
220,220,[ 5.42985621e+04  1.58924583e+03 -3.17995200e-02  5.65595637e-01],61,920.8707469391155
221,221,[ 5.42985621e+04  1.58924583e+03 -3.17995200e-02  5.65595637e-01],785,920.4313901138719
222,222,[ 5.42985621e+04  1.58924583e+03 -3.17995200e-02  5.65595637e-01],108,920.2337797416175
223,223,[ 5.42985621e+04  1.58924583e+03 -3.17995200e-02  5.65595637e-01],773,920.8392909011276
224,224,[ 5.42985621e+04  1.58924583e+03 -3.17995200e-02  5.65595637e-01],48,921.2144642485224
225,225,[ 5.42985621e+04  1.58924583e+03 -3.17995200e-02  5.65595637e-01],143,921.3638790994842
226,226,[ 5.42985621e+04  1.58924583e+03 -3.17995200e-02  5.65595637e-01],683,921.4075799895724
227,227,[ 5.42985621e+04  1.58924583e+03 -3.17995200e-02  5.65595637e-01],703,921.3508889390432
228,228,[ 5.42985621e+04  1.58924583e+03 -3.17995200e-02  5.65595637e-01],839,921.009221215357
229,229,[ 5.42985621e+04  1.58924583e+03 -3.17995200e-02  5.65595637e-01],594,921.1740634618698
230,230,[ 5.42985621e+04  1.58924583e+03 -3.17995200e-02  5.65595637e-01],648,921.0442331328823
231,231,[ 5.42985621e+04  1.58924583e+03 -3.17995200e-02  5.65595637e-01],577,921.4277366730742
232,232,[ 5.42985621e+04  1.58924583e+03 -3.17995200e-02  5.65595637e-01],74,919.3975628105906
233,233,[ 5.42985621e+04  1.58924583e+03 -3.17995200e-02  5.65595637e-01],719,920.4328477973154
234,234,[ 5.42985621e+04  1.58924583e+03 -3.17995200e-02  5.65595637e-01],77,921.2081093744631
235,235,[ 5.42985621e+04  1.58924583e+03 -3.17995200e-02  5.65595637e-01],176,921.4870660674567
236,236,[ 5.42985621e+04  1.58924583e+03 -3.17995200e-02  5.65595637e-01],495,921.3924495891931
237,237,[ 5.42985621e+04  1.58924583e+03 -3.17995200e-02  5.65595637e-01],677,921.3833665965428
238,238,[ 5.42985621e+04  1.58924583e+03 -3.17995200e-02  5.65595637e-01],47,918.5568002522847
239,239,[ 5.42985621e+04  1.58924583e+03 -3.17995200e-02  5.65595637e-01],845,919.0178392744779
240,240,[ 5.42985621e+04  1.58924583e+03 -3.17995200e-02  5.65595637e-01],485,919.4190463947151
241,241,[ 5.42985621e+04  1.58924583e+03 -3.17995200e-02  5.65595637e-01],579,920.4959866800034
242,242,[ 5.42985621e+04  1.58924583e+03 -3.17995200e-02  5.65595637e-01],751,920.5149568432961
243,243,[ 5.42985621e+04  1.58924583e+03 -3.17995200e-02  5.65595637e-01],747,919.2393759042933
244,244,[ 5.42985621e+04  1.58924583e+03 -3.17995200e-02  5.65595637e-01],805,918.3521496125122
245,245,[ 5.42985621e+04  1.58924583e+03 -3.17995200e-02  5.65595637e-01],576,919.3653791140858
246,246,[ 5.42985621e+04  1.58924583e+03 -3.17995200e-02  5.65595637e-01],78,919.7419631578165
247,247,[ 5.42985621e+04  1.58924583e+03 -3.17995200e-02  5.65595637e-01],206,920.0922321532225
248,248,[ 5.42985621e+04  1.58924583e+03 -3.17995200e-02  5.65595637e-01],567,920.6856270469037
249,249,[ 5.42985621e+04  1.58924583e+03 -3.17995200e-02  5.65595637e-01],872,920.8462046883648
250,250,[ 5.42985621e+04  1.58924583e+03 -3.17995200e-02  5.65595637e-01],414,921.1707874103593
251,251,[ 5.42985621e+04  1.58924583e+03 -3.17995200e-02  5.65595637e-01],88,920.6688311757008
252,252,[ 5.42985621e+04  1.58924583e+03 -3.17995200e-02  5.65595637e-01],794,920.7293993301768
253,253,[ 5.42985621e+04  1.58924583e+03 -3.17995200e-02  5.65595637e-01],864,920.8581121261268
254,254,[ 5.42985621e+04  1.58924583e+03 -3.17995200e-02  5.65595637e-01],572,920.843090861273
255,255,[ 5.42985621e+04  1.58924583e+03 -3.17995200e-02  5.65595637e-01],448,921.2734791008859
256,256,[ 5.42985621e+04  1.58924583e+03 -3.17995200e-02  5.65595637e-01],306,920.3484130829547
257,257,[ 5.42985621e+04  1.58924583e+03 -3.17995200e-02  5.65595637e-01],825,919.3619807712028
258,258,[ 5.42985621e+04  1.58924583e+03 -3.17995200e-02  5.65595637e-01],754,917.962835262463
259,259,[ 5.42985621e+04  1.58924583e+03 -3.17995200e-02  5.65595637e-01],522,918.3550143308702
260,260,[ 5.42985621e+04  1.58924583e+03 -3.17995200e-02  5.65595637e-01],590,919.5493168591497
261,261,[ 5.42985621e+04  1.58924583e+03 -3.17995200e-02  5.65595637e-01],362,920.197729582064
262,262,[ 5.42985621e+04  1.58924583e+03 -3.17995200e-02  5.65595637e-01],361,919.6715734771554
263,263,[ 5.42985621e+04  1.58924583e+03 -3.17995200e-02  5.65595637e-01],918,919.4674367796251
264,264,[ 5.42985621e+04  1.58924583e+03 -3.17995200e-02  5.65595637e-01],909,920.1887575648734
265,265,[ 5.42985621e+04  1.58924583e+03 -3.17995200e-02  5.65595637e-01],615,919.9680534800275
266,266,[ 5.42985621e+04  1.58924583e+03 -3.17995200e-02  5.65595637e-01],230,920.7631977224728
267,267,[ 5.42985621e+04  1.58924583e+03 -3.17995200e-02  5.65595637e-01],268,920.6105772867395
268,268,[ 5.42985621e+04  1.58924583e+03 -3.17995200e-02  5.65595637e-01],723,921.0410512470136
269,269,[ 5.42985621e+04  1.58924583e+03 -3.17995200e-02  5.65595637e-01],144,921.1622679057323
270,270,[ 5.42985621e+04  1.58924583e+03 -3.17995200e-02  5.65595637e-01],713,921.1887200817833
271,271,[ 5.42985621e+04  1.58924583e+03 -3.17995200e-02  5.65595637e-01],320,921.134561676769
272,272,[ 5.42985621e+04  1.58924583e+03 -3.17995200e-02  5.65595637e-01],887,921.4147548477605
273,273,[ 5.42985621e+04  1.58924583e+03 -3.17995200e-02  5.65595637e-01],76,921.5191903098964
274,274,[ 5.42985621e+04  1.58924583e+03 -3.17995200e-02  5.65595637e-01],114,921.2090886417026
275,275,[ 5.42985621e+04  1.58924583e+03 -3.17995200e-02  5.65595637e-01],870,918.1627829196941
276,276,[ 5.42985621e+04  1.58924583e+03 -3.17995200e-02  5.65595637e-01],603,917.8655247239244
277,277,[ 5.42985621e+04  1.58924583e+03 -3.17995200e-02  5.65595637e-01],365,918.5371634609838
278,278,[ 5.42985621e+04  1.58924583e+03 -3.17995200e-02  5.65595637e-01],580,919.782458938268
279,279,[ 5.42985621e+04  1.58924583e+03 -3.17995200e-02  5.65595637e-01],228,920.6106523851792
280,280,[ 5.42985621e+04  1.58924583e+03 -3.17995200e-02  5.65595637e-01],911,920.7828388216392
281,281,[ 5.42985621e+04  1.58924583e+03 -3.17995200e-02  5.65595637e-01],307,921.1261422411945
282,282,[ 5.42985621e+04  1.58924583e+03 -3.17995200e-02  5.65595637e-01],753,921.3879722788834
283,283,[ 5.42985621e+04  1.58924583e+03 -3.17995200e-02  5.65595637e-01],109,921.3899953044639
284,284,[ 5.42985621e+04  1.58924583e+03 -3.17995200e-02  5.65595637e-01],606,921.1302042460221
285,285,[ 5.42985621e+04  1.58924583e+03 -3.17995200e-02  5.65595637e-01],341,919.3795458219288
286,286,[ 5.42985621e+04  1.58924583e+03 -3.17995200e-02  5.65595637e-01],731,919.1637049167167
287,287,[ 5.42985621e+04  1.58924583e+03 -3.17995200e-02  5.65595637e-01],730,920.2264680377965
288,288,[ 5.42985621e+04  1.58924583e+03 -3.17995200e-02  5.65595637e-01],851,920.4843639741757
289,289,[ 5.42985621e+04  1.58924583e+03 -3.17995200e-02  5.65595637e-01],826,919.5481624112757
290,290,[ 5.42985621e+04  1.58924583e+03 -3.17995200e-02  5.65595637e-01],369,917.4619298746616
291,291,[ 5.42985621e+04  1.58924583e+03 -3.17995200e-02  5.65595637e-01],647,916.5622828850766
292,292,[ 5.42985621e+04  1.58924583e+03 -3.17995200e-02  5.65595637e-01],605,918.7997385255495
293,293,[ 5.42985621e+04  1.58924583e+03 -3.17995200e-02  5.65595637e-01],668,919.994071142211
294,294,[ 5.42985621e+04  1.58924583e+03 -3.17995200e-02  5.65595637e-01],198,920.5282386629035
295,295,[ 5.42985621e+04  1.58924583e+03 -3.17995200e-02  5.65595637e-01],147,921.214170570379
296,296,[ 5.42985621e+04  1.58924583e+03 -3.17995200e-02  5.65595637e-01],570,921.1602237448074
297,297,[ 5.42985621e+04  1.58924583e+03 -3.17995200e-02  5.65595637e-01],543,920.8006583039021
298,298,[ 5.42985621e+04  1.58924583e+03 -3.17995200e-02  5.65595637e-01],779,918.3803538861355
299,299,[ 5.42985621e+04  1.58924583e+03 -3.17995200e-02  5.65595637e-01],59,917.3873784522083
300,300,[ 5.42985621e+04  1.58924583e+03 -3.17995200e-02  5.65595637e-01],581,917.5466730566549
301,301,[ 5.42985621e+04  1.58924583e+03 -3.17995200e-02  5.65595637e-01],128,919.0499890430548
302,302,[ 5.42985621e+04  1.58924583e+03 -3.17995200e-02  5.65595637e-01],121,919.9118013116992
303,303,[ 5.42985621e+04  1.58924583e+03 -3.17995200e-02  5.65595637e-01],598,919.9499369797834
304,304,[ 5.42985621e+04  1.58924583e+03 -3.17995200e-02  5.65595637e-01],363,920.5486569669033
305,305,[ 5.42985621e+04  1.58924583e+03 -3.17995200e-02  5.65595637e-01],148,920.8189449205995
306,306,[ 5.42985621e+04  1.58924583e+03 -3.17995200e-02  5.65595637e-01],427,921.0508362505112
307,307,[ 5.42985621e+04  1.58924583e+03 -3.17995200e-02  5.65595637e-01],707,921.0069493641099
308,308,[ 5.42985621e+04  1.58924583e+03 -3.17995200e-02  5.65595637e-01],87,921.1168017433014
309,309,[ 5.42985621e+04  1.58924583e+03 -3.17995200e-02  5.65595637e-01],139,921.2308611995387
310,310,[ 5.42985621e+04  1.58924583e+03 -3.17995200e-02  5.65595637e-01],132,920.611948666535
311,311,[ 5.42985621e+04  1.58924583e+03 -3.17995200e-02  5.65595637e-01],922,918.9744585419165
312,312,[ 5.42985621e+04  1.58924583e+03 -3.17995200e-02  5.65595637e-01],907,917.4958337084274
313,313,[ 5.42985621e+04  1.58924583e+03 -3.17995200e-02  5.65595637e-01],599,917.1011897810448
314,314,[ 5.42985621e+04  1.58924583e+03 -3.17995200e-02  5.65595637e-01],862,919.3606962134778
315,315,[ 5.42985621e+04  1.58924583e+03 -3.17995200e-02  5.65595637e-01],856,920.8493699991914
316,316,[ 5.42985621e+04  1.58924583e+03 -3.17995200e-02  5.65595637e-01],813,920.5684507367923
317,317,[ 5.42985621e+04  1.58924583e+03 -3.17995200e-02  5.65595637e-01],837,919.9621656863843
318,318,[ 5.42985621e+04  1.58924583e+03 -3.17995200e-02  5.65595637e-01],188,920.8284818290335
319,319,[ 5.42985621e+04  1.58924583e+03 -3.17995200e-02  5.65595637e-01],638,920.6384649265439
320,320,[ 5.42985621e+04  1.58924583e+03 -3.17995200e-02  5.65595637e-01],517,921.0365340258795
321,321,[ 5.42985621e+04  1.58924583e+03 -3.17995200e-02  5.65595637e-01],395,921.360378771063
322,322,[ 5.42985621e+04  1.58924583e+03 -3.17995200e-02  5.65595637e-01],761,921.1344814315322
323,323,[ 5.42985621e+04  1.58924583e+03 -3.17995200e-02  5.65595637e-01],125,921.240212047589
324,324,[ 5.42985621e+04  1.58924583e+03 -3.17995200e-02  5.65595637e-01],406,921.351485907931
325,325,[ 5.42985621e+04  1.58924583e+03 -3.17995200e-02  5.65595637e-01],561,921.2235737623054
326,326,[ 5.42985621e+04  1.58924583e+03 -3.17995200e-02  5.65595637e-01],127,920.7392118771235
327,327,[ 5.42985621e+04  1.58924583e+03 -3.17995200e-02  5.65595637e-01],90,921.2479957424355
328,328,[ 5.42985621e+04  1.58924583e+03 -3.17995200e-02  5.65595637e-01],189,921.3681406762987
329,329,[ 5.42985621e+04  1.58924583e+03 -3.17995200e-02  5.65595637e-01],119,921.5266724521227
330,330,[ 5.42985621e+04  1.58924583e+03 -3.17995200e-02  5.65595637e-01],217,918.2890816948865
331,331,[ 5.42985621e+04  1.58924583e+03 -3.17995200e-02  5.65595637e-01],905,918.9037547294657
332,332,[ 5.42985621e+04  1.58924583e+03 -3.17995200e-02  5.65595637e-01],92,919.7410319371207
333,333,[ 5.42985621e+04  1.58924583e+03 -3.17995200e-02  5.65595637e-01],412,920.1601398709889
334,334,[ 5.42985621e+04  1.58924583e+03 -3.17995200e-02  5.65595637e-01],496,920.4237970639956
335,335,[ 5.42985621e+04  1.58924583e+03 -3.17995200e-02  5.65595637e-01],679,919.5288799170226
336,336,[ 5.42985621e+04  1.58924583e+03 -3.17995200e-02  5.65595637e-01],105,920.0998779376733
337,337,[ 5.42985621e+04  1.58924583e+03 -3.17995200e-02  5.65595637e-01],120,920.5322800514857
338,338,[ 5.42985621e+04  1.58924583e+03 -3.17995200e-02  5.65595637e-01],844,920.3745135403487
339,339,[ 5.42985621e+04  1.58924583e+03 -3.17995200e-02  5.65595637e-01],869,920.5012649543415
340,340,[ 5.42985621e+04  1.58924583e+03 -3.17995200e-02  5.65595637e-01],423,920.6246078880423
341,341,[ 5.42985621e+04  1.58924583e+03 -3.17995200e-02  5.65595637e-01],94,921.0055034092444
342,342,[ 5.42985621e+04  1.58924583e+03 -3.17995200e-02  5.65595637e-01],70,921.5352690525033
343,343,[ 5.42985621e+04  1.58924583e+03 -3.17995200e-02  5.65595637e-01],404,921.2092349652905
344,344,[ 5.42985621e+04  1.58924583e+03 -3.17995200e-02  5.65595637e-01],608,921.5309164811864
345,345,[ 5.42985621e+04  1.58924583e+03 -3.17995200e-02  5.65595637e-01],546,920.6187817478418
346,346,[ 5.42985621e+04  1.58924583e+03 -3.17995200e-02  5.65595637e-01],111,920.6348094827582
347,347,[ 5.42985621e+04  1.58924583e+03 -3.17995200e-02  5.65595637e-01],347,920.907103388191
348,348,[ 5.42985621e+04  1.58924583e+03 -3.17995200e-02  5.65595637e-01],897,920.7951044225097
349,349,[ 5.42985621e+04  1.58924583e+03 -3.17995200e-02  5.65595637e-01],586,920.8870318045844
350,350,[ 5.42985621e+04  1.58924583e+03 -3.17995200e-02  5.65595637e-01],626,920.8753824226866
351,351,[ 5.42985621e+04  1.58924583e+03 -3.17995200e-02  5.65595637e-01],177,921.2170992159846
352,352,[ 5.42985621e+04  1.58924583e+03 -3.17995200e-02  5.65595637e-01],883,921.289306195026
353,353,[ 5.42985621e+04  1.58924583e+03 -3.17995200e-02  5.65595637e-01],670,918.0657445125751
354,354,[ 5.42985621e+04  1.58924583e+03 -3.17995200e-02  5.65595637e-01],834,918.4350595459343
355,355,[ 5.42985621e+04  1.58924583e+03 -3.17995200e-02  5.65595637e-01],49,918.940308673274
356,356,[ 5.42985621e+04  1.58924583e+03 -3.17995200e-02  5.65595637e-01],740,920.5396993370217
357,357,[ 5.42985621e+04  1.58924583e+03 -3.17995200e-02  5.65595637e-01],571,920.2454040891294
358,358,[ 5.42985621e+04  1.58924583e+03 -3.17995200e-02  5.65595637e-01],802,918.6855741662729
359,359,[ 5.42985621e+04  1.58924583e+03 -3.17995200e-02  5.65595637e-01],671,919.7460039002691
360,360,[ 5.42985621e+04  1.58924583e+03 -3.17995200e-02  5.65595637e-01],591,920.8787034822044
361,361,[ 5.42985621e+04  1.58924583e+03 -3.17995200e-02  5.65595637e-01],618,921.0486928010092
362,362,[ 5.42985621e+04  1.58924583e+03 -3.17995200e-02  5.65595637e-01],349,921.0487161611806
363,363,[ 5.42985621e+04  1.58924583e+03 -3.17995200e-02  5.65595637e-01],568,920.9706831488822
364,364,[ 5.42985621e+04  1.58924583e+03 -3.17995200e-02  5.65595637e-01],787,921.1626153767237
365,365,[ 5.42985621e+04  1.58924583e+03 -3.17995200e-02  5.65595637e-01],801,921.0095876206267
366,366,[ 5.42985621e+04  1.58924583e+03 -3.17995200e-02  5.65595637e-01],660,920.0028509673549
367,367,[ 5.42985621e+04  1.58924583e+03 -3.17995200e-02  5.65595637e-01],879,918.9881879409382
368,368,[ 5.42985621e+04  1.58924583e+03 -3.17995200e-02  5.65595637e-01],360,920.7677648324275
369,369,[ 5.42985621e+04  1.58924583e+03 -3.17995200e-02  5.65595637e-01],350,920.9913598549118
370,370,[ 5.42985621e+04  1.58924583e+03 -3.17995200e-02  5.65595637e-01],860,920.1826791489901
371,371,[ 5.42985621e+04  1.58924583e+03 -3.17995200e-02  5.65595637e-01],545,920.7777749444388
372,372,[ 5.42985621e+04  1.58924583e+03 -3.17995200e-02  5.65595637e-01],220,920.6373598667718
373,373,[ 5.42985621e+04  1.58924583e+03 -3.17995200e-02  5.65595637e-01],663,920.6185425905512
374,374,[ 5.42985621e+04  1.58924583e+03 -3.17995200e-02  5.65595637e-01],658,921.247937925553
375,375,[ 5.42985621e+04  1.58924583e+03 -3.17995200e-02  5.65595637e-01],35,920.2164283897192
376,376,[ 5.42985621e+04  1.58924583e+03 -3.17995200e-02  5.65595637e-01],676,919.4016568257869
377,377,[ 5.42985621e+04  1.58924583e+03 -3.17995200e-02  5.65595637e-01],396,918.9555302823844
378,378,[ 5.42985621e+04  1.58924583e+03 -3.17995200e-02  5.65595637e-01],470,919.5162912908522
379,379,[ 5.42985621e+04  1.58924583e+03 -3.17995200e-02  5.65595637e-01],748,920.6079905154251
380,380,[ 5.42985621e+04  1.58924583e+03 -3.17995200e-02  5.65595637e-01],150,920.5576861572334
381,381,[ 5.42985621e+04  1.58924583e+03 -3.17995200e-02  5.65595637e-01],187,920.7316946263966
382,382,[ 5.42985621e+04  1.58924583e+03 -3.17995200e-02  5.65595637e-01],468,920.1618691048014
383,383,[ 5.42985621e+04  1.58924583e+03 -3.17995200e-02  5.65595637e-01],45,920.2170787378454
384,384,[ 5.42985621e+04  1.58924583e+03 -3.17995200e-02  5.65595637e-01],135,920.7393693123895
385,385,[ 5.42985621e+04  1.58924583e+03 -3.17995200e-02  5.65595637e-01],530,921.2970569041789
386,386,[ 5.42985621e+04  1.58924583e+03 -3.17995200e-02  5.65595637e-01],893,921.2314423139356
387,387,[ 5.42985621e+04  1.58924583e+03 -3.17995200e-02  5.65595637e-01],253,921.1496880818033
388,388,[ 5.42985621e+04  1.58924583e+03 -3.17995200e-02  5.65595637e-01],537,920.7721296402744
389,389,[ 5.42985621e+04  1.58924583e+03 -3.17995200e-02  5.65595637e-01],786,921.482197044936
390,390,[ 5.42985621e+04  1.58924583e+03 -3.17995200e-02  5.65595637e-01],620,920.819154525302
391,391,[ 5.42985621e+04  1.58924583e+03 -3.17995200e-02  5.65595637e-01],616,920.5770579099951
392,392,[ 5.42985621e+04  1.58924583e+03 -3.17995200e-02  5.65595637e-01],774,921.137207961659
393,393,[ 5.42985621e+04  1.58924583e+03 -3.17995200e-02  5.65595637e-01],782,919.8574714208959
394,394,[ 5.42985621e+04  1.58924583e+03 -3.17995200e-02  5.65595637e-01],716,919.888042521377
395,395,[ 5.42985621e+04  1.58924583e+03 -3.17995200e-02  5.65595637e-01],882,920.9432963026039
396,396,[ 5.42985621e+04  1.58924583e+03 -3.17995200e-02  5.65595637e-01],919,920.8678830441169
397,397,[ 5.42985621e+04  1.58924583e+03 -3.17995200e-02  5.65595637e-01],5,921.1354086491958
398,398,[ 5.42985621e+04  1.58924583e+03 -3.17995200e-02  5.65595637e-01],315,920.7082677476601
399,399,[ 5.42985621e+04  1.58924583e+03 -3.17995200e-02  5.65595637e-01],435,920.3321400811061
400,400,[ 5.42985621e+04  1.58924583e+03 -3.17995200e-02  5.65595637e-01],122,920.4567778835334
401,401,[ 5.42985621e+04  1.58924583e+03 -3.17995200e-02  5.65595637e-01],145,920.548913586118
402,402,[ 5.42985621e+04  1.58924583e+03 -3.17995200e-02  5.65595637e-01],639,920.3794545777355
403,403,[ 5.42985621e+04  1.58924583e+03 -3.17995200e-02  5.65595637e-01],249,918.914966272286
404,404,[ 5.42985621e+04  1.58924583e+03 -3.17995200e-02  5.65595637e-01],254,920.9117919987825
405,405,[ 5.42985621e+04  1.58924583e+03 -3.17995200e-02  5.65595637e-01],873,921.2810683087723
406,406,[ 5.42985621e+04  1.58924583e+03 -3.17995200e-02  5.65595637e-01],98,920.9374049771603
407,407,[ 5.42985621e+04  1.58924583e+03 -3.17995200e-02  5.65595637e-01],850,920.7184223974892
408,408,[ 5.42985621e+04  1.58924583e+03 -3.17995200e-02  5.65595637e-01],223,921.413525421953
409,409,[ 5.42985621e+04  1.58924583e+03 -3.17995200e-02  5.65595637e-01],784,921.2456573154692
410,410,[ 5.42985621e+04  1.58924583e+03 -3.17995200e-02  5.65595637e-01],899,921.0994713763552
411,411,[ 5.42985621e+04  1.58924583e+03 -3.17995200e-02  5.65595637e-01],131,919.8896599245896
412,412,[ 5.42985621e+04  1.58924583e+03 -3.17995200e-02  5.65595637e-01],635,920.9257234317192
413,413,[ 5.42985621e+04  1.58924583e+03 -3.17995200e-02  5.65595637e-01],318,920.733732882273
414,414,[ 5.42985621e+04  1.58924583e+03 -3.17995200e-02  5.65595637e-01],672,921.056636221462
415,415,[ 5.42985621e+04  1.58924583e+03 -3.17995200e-02  5.65595637e-01],799,920.2128820678214
416,416,[ 5.42985621e+04  1.58924583e+03 -3.17995200e-02  5.65595637e-01],50,919.3351926554257
417,417,[ 5.42985621e+04  1.58924583e+03 -3.17995200e-02  5.65595637e-01],544,918.8506647049517
418,418,[ 5.42985621e+04  1.58924583e+03 -3.17995200e-02  5.65595637e-01],142,919.5518983846687
419,419,[ 5.42985621e+04  1.58924583e+03 -3.17995200e-02  5.65595637e-01],915,920.7213851910168
420,420,[ 5.42985621e+04  1.58924583e+03 -3.17995200e-02  5.65595637e-01],390,921.354217959256
421,421,[ 5.42985621e+04  1.58924583e+03 -3.17995200e-02  5.65595637e-01],305,921.2382861788132
422,422,[ 5.42985621e+04  1.58924583e+03 -3.17995200e-02  5.65595637e-01],640,921.3792189786378
423,423,[ 5.42985621e+04  1.58924583e+03 -3.17995200e-02  5.65595637e-01],830,920.9152439954265
424,424,[ 5.42985621e+04  1.58924583e+03 -3.17995200e-02  5.65595637e-01],69,921.3391513206918
425,425,[ 5.42985621e+04  1.58924583e+03 -3.17995200e-02  5.65595637e-01],889,921.3524922542539
426,426,[ 5.42985621e+04  1.58924583e+03 -3.17995200e-02  5.65595637e-01],833,921.1564215386366
427,427,[ 5.42985621e+04  1.58924583e+03 -3.17995200e-02  5.65595637e-01],895,920.968164153389
428,428,[ 5.42985621e+04  1.58924583e+03 -3.17995200e-02  5.65595637e-01],886,919.3719436486383
429,429,[ 5.42985621e+04  1.58924583e+03 -3.17995200e-02  5.65595637e-01],117,918.551375311461
430,430,[ 5.42985621e+04  1.58924583e+03 -3.17995200e-02  5.65595637e-01],800,918.0136294931631
431,431,[ 5.42985621e+04  1.58924583e+03 -3.17995200e-02  5.65595637e-01],906,918.6575123088037
432,432,[ 5.42985621e+04  1.58924583e+03 -3.17995200e-02  5.65595637e-01],854,919.2047710658812
433,433,[ 5.42985621e+04  1.58924583e+03 -3.17995200e-02  5.65595637e-01],877,920.3198949408056
434,434,[ 5.42985621e+04  1.58924583e+03 -3.17995200e-02  5.65595637e-01],871,920.3831573503776
435,435,[ 5.42985621e+04  1.58924583e+03 -3.17995200e-02  5.65595637e-01],149,920.8487911474054
436,436,[ 5.42985621e+04  1.58924583e+03 -3.17995200e-02  5.65595637e-01],297,917.5809849537925
437,437,[ 5.42985621e+04  1.58924583e+03 -3.17995200e-02  5.65595637e-01],840,919.0154385830516
438,438,[ 5.42985621e+04  1.58924583e+03 -3.17995200e-02  5.65595637e-01],792,919.7312505942291
439,439,[ 5.42985621e+04  1.58924583e+03 -3.17995200e-02  5.65595637e-01],348,919.7747366865291
440,440,[ 5.42985621e+04  1.58924583e+03 -3.17995200e-02  5.65595637e-01],739,918.8049356054701
441,441,[ 5.42985621e+04  1.58924583e+03 -3.17995200e-02  5.65595637e-01],565,920.2618737217311
442,442,[ 5.42985621e+04  1.58924583e+03 -3.17995200e-02  5.65595637e-01],890,919.5166024284584
443,443,[ 5.42985621e+04  1.58924583e+03 -3.17995200e-02  5.65595637e-01],181,919.711710392379
444,444,[ 5.42985621e+04  1.58924583e+03 -3.17995200e-02  5.65595637e-01],184,920.3153050930339
445,445,[ 5.42985621e+04  1.58924583e+03 -3.17995200e-02  5.65595637e-01],848,920.5045756269645
446,446,[ 5.42985621e+04  1.58924583e+03 -3.17995200e-02  5.65595637e-01],107,920.7415303057327
447,447,[ 5.42985621e+04  1.58924583e+03 -3.17995200e-02  5.65595637e-01],853,920.7717572061109
448,448,[ 5.42985621e+04  1.58924583e+03 -3.17995200e-02  5.65595637e-01],551,921.0529039753587
449,449,[ 5.42985621e+04  1.58924583e+03 -3.17995200e-02  5.65595637e-01],661,920.3462917614727
450,450,[ 5.42985621e+04  1.58924583e+03 -3.17995200e-02  5.65595637e-01],280,920.1034720058939
451,451,[ 5.42985621e+04  1.58924583e+03 -3.17995200e-02  5.65595637e-01],817,919.8371209847359
452,452,[ 5.42985621e+04  1.58924583e+03 -3.17995200e-02  5.65595637e-01],151,918.446953753839
453,453,[ 5.42985621e+04  1.58924583e+03 -3.17995200e-02  5.65595637e-01],760,917.3444944951929
454,454,[ 5.42985621e+04  1.58924583e+03 -3.17995200e-02  5.65595637e-01],900,917.5743817558592
455,455,[ 5.42985621e+04  1.58924583e+03 -3.17995200e-02  5.65595637e-01],371,917.9692497295655
456,456,[ 5.42985621e+04  1.58924583e+03 -3.17995200e-02  5.65595637e-01],746,918.913922170809
457,457,[ 5.42985621e+04  1.58924583e+03 -3.17995200e-02  5.65595637e-01],388,918.9270412317277
458,458,[ 5.42985621e+04  1.58924583e+03 -3.17995200e-02  5.65595637e-01],447,919.9458653405848
459,459,[ 5.42985621e+04  1.58924583e+03 -3.17995200e-02  5.65595637e-01],368,920.3492985555176
460,460,[ 5.42985621e+04  1.58924583e+03 -3.17995200e-02  5.65595637e-01],588,920.7155142433104
461,461,[ 5.42985621e+04  1.58924583e+03 -3.17995200e-02  5.65595637e-01],849,919.7038357643892
462,462,[ 5.42985621e+04  1.58924583e+03 -3.17995200e-02  5.65595637e-01],728,919.2163726434826
463,463,[ 5.42985621e+04  1.58924583e+03 -3.17995200e-02  5.65595637e-01],266,919.688213509877
464,464,[ 5.42985621e+04  1.58924583e+03 -3.17995200e-02  5.65595637e-01],831,919.9001125653555
465,465,[ 5.42985621e+04  1.58924583e+03 -3.17995200e-02  5.65595637e-01],203,920.4600462113264
466,466,[ 5.42985621e+04  1.58924583e+03 -3.17995200e-02  5.65595637e-01],803,920.3823749109899
467,467,[ 5.42985621e+04  1.58924583e+03 -3.17995200e-02  5.65595637e-01],110,920.4097981312347
468,468,[ 5.42985621e+04  1.58924583e+03 -3.17995200e-02  5.65595637e-01],106,920.8615398229826
469,469,[ 5.42985621e+04  1.58924583e+03 -3.17995200e-02  5.65595637e-01],912,921.3124910308616
470,470,[ 5.42985621e+04  1.58924583e+03 -3.17995200e-02  5.65595637e-01],218,920.8659829426957
471,471,[ 5.42985621e+04  1.58924583e+03 -3.17995200e-02  5.65595637e-01],769,920.4352446056877
472,472,[ 5.42985621e+04  1.58924583e+03 -3.17995200e-02  5.65595637e-01],859,920.7371291653487
473,473,[ 5.42985621e+04  1.58924583e+03 -3.17995200e-02  5.65595637e-01],771,921.1889913023401
474,474,[ 5.42985621e+04  1.58924583e+03 -3.17995200e-02  5.65595637e-01],673,918.7003711807727
475,475,[ 5.42985621e+04  1.58924583e+03 -3.17995200e-02  5.65595637e-01],575,918.3714121000743
476,476,[ 5.42985621e+04  1.58924583e+03 -3.17995200e-02  5.65595637e-01],807,919.6120201046751
477,477,[ 5.42985621e+04  1.58924583e+03 -3.17995200e-02  5.65595637e-01],446,920.0001928700416
478,478,[ 5.42985621e+04  1.58924583e+03 -3.17995200e-02  5.65595637e-01],32,919.5800871827879
479,479,[ 5.42985621e+04  1.58924583e+03 -3.17995200e-02  5.65595637e-01],384,918.5038750271668
480,480,[ 5.42985621e+04  1.58924583e+03 -3.17995200e-02  5.65595637e-01],326,919.1427267510866
481,481,[ 5.42985621e+04  1.58924583e+03 -3.17995200e-02  5.65595637e-01],689,919.439979403284
482,482,[ 5.42985621e+04  1.58924583e+03 -3.17995200e-02  5.65595637e-01],472,920.2781430373021
483,483,[ 5.42985621e+04  1.58924583e+03 -3.17995200e-02  5.65595637e-01],916,920.527288182181
484,484,[ 5.42985621e+04  1.58924583e+03 -3.17995200e-02  5.65595637e-01],725,921.1350284791845
485,485,[ 5.42985621e+04  1.58924583e+03 -3.17995200e-02  5.65595637e-01],413,921.0706285071551
486,486,[ 5.42985621e+04  1.58924583e+03 -3.17995200e-02  5.65595637e-01],381,919.0853573690545
487,487,[ 5.42985621e+04  1.58924583e+03 -3.17995200e-02  5.65595637e-01],548,918.4277195983839
488,488,[ 5.42985621e+04  1.58924583e+03 -3.17995200e-02  5.65595637e-01],252,919.6266510358314
489,489,[ 5.42985621e+04  1.58924583e+03 -3.17995200e-02  5.65595637e-01],180,920.3820940205517
490,490,[ 5.42985621e+04  1.58924583e+03 -3.17995200e-02  5.65595637e-01],610,920.0339745315199
491,491,[ 5.42985621e+04  1.58924583e+03 -3.17995200e-02  5.65595637e-01],215,919.4525049771039
492,492,[ 5.42985621e+04  1.58924583e+03 -3.17995200e-02  5.65595637e-01],516,920.3662826881636
493,493,[ 5.42985621e+04  1.58924583e+03 -3.17995200e-02  5.65595637e-01],419,920.6309625045286
494,494,[ 5.42985621e+04  1.58924583e+03 -3.17995200e-02  5.65595637e-01],407,920.3733471464103
495,495,[ 5.42985621e+04  1.58924583e+03 -3.17995200e-02  5.65595637e-01],811,921.0745683572226
496,496,[ 5.42985621e+04  1.58924583e+03 -3.17995200e-02  5.65595637e-01],211,920.9211268916025
497,497,[ 5.42985621e+04  1.58924583e+03 -3.17995200e-02  5.65595637e-01],732,921.3099261127652
498,498,[ 5.42985621e+04  1.58924583e+03 -3.17995200e-02  5.65595637e-01],852,920.5666046570726
499,499,[ 5.42985621e+04  1.58924583e+03 -3.17995200e-02  5.65595637e-01],460,919.5467597314919
500,500,[ 5.42985621e+04  1.58924583e+03 -3.17995200e-02  5.65595637e-01],823,919.1600753673977
501,501,[ 5.42985621e+04  1.58924583e+03 -3.17995200e-02  5.65595637e-01],659,920.0795400585536
502,502,[ 5.42985621e+04  1.58924583e+03 -3.17995200e-02  5.65595637e-01],710,920.3086598047947
503,503,[ 5.42985621e+04  1.58924583e+03 -3.17995200e-02  5.65595637e-01],398,920.3537809379171
504,504,[ 5.42985621e+04  1.58924583e+03 -3.17995200e-02  5.65595637e-01],783,919.8592585770156
505,505,[ 5.42985621e+04  1.58924583e+03 -3.17995200e-02  5.65595637e-01],678,919.4303416204043
506,506,[ 5.42985621e+04  1.58924583e+03 -3.17995200e-02  5.65595637e-01],738,919.3938867818116
507,507,[ 5.42985621e+04  1.58924583e+03 -3.17995200e-02  5.65595637e-01],878,919.5171785563472
508,508,[ 5.42985621e+04  1.58924583e+03 -3.17995200e-02  5.65595637e-01],649,918.9223547460186
509,509,[ 5.42985621e+04  1.58924583e+03 -3.17995200e-02  5.65595637e-01],191,916.7264623737417
510,510,[ 5.42985621e+04  1.58924583e+03 -3.17995200e-02  5.65595637e-01],841,916.744430529578
511,511,[ 5.42985621e+04  1.58924583e+03 -3.17995200e-02  5.65595637e-01],781,918.2410488480959
512,512,[ 5.42985621e+04  1.58924583e+03 -3.17995200e-02  5.65595637e-01],248,919.7972851969664
513,513,[ 5.42985621e+04  1.58924583e+03 -3.17995200e-02  5.65595637e-01],64,920.4480646816097
514,514,[ 5.42985621e+04  1.58924583e+03 -3.17995200e-02  5.65595637e-01],29,919.7641556204247
515,515,[ 5.42985621e+04  1.58924583e+03 -3.17995200e-02  5.65595637e-01],523,919.829008828929
516,516,[ 5.42985621e+04  1.58924583e+03 -3.17995200e-02  5.65595637e-01],251,920.7254391511079
517,517,[ 5.42985621e+04  1.58924583e+03 -3.17995200e-02  5.65595637e-01],14,920.9436039616694
518,518,[ 5.42985621e+04  1.58924583e+03 -3.17995200e-02  5.65595637e-01],51,921.1378374267782
519,519,[ 5.42985621e+04  1.58924583e+03 -3.17995200e-02  5.65595637e-01],828,921.2046527330409
520,520,[ 5.42985621e+04  1.58924583e+03 -3.17995200e-02  5.65595637e-01],702,921.1437195227227
521,521,[ 5.42985621e+04  1.58924583e+03 -3.17995200e-02  5.65595637e-01],600,921.1208861595637
522,522,[ 5.42985621e+04  1.58924583e+03 -3.17995200e-02  5.65595637e-01],319,921.0491268414289
523,523,[ 5.42985621e+04  1.58924583e+03 -3.17995200e-02  5.65595637e-01],896,920.6708159460499
524,524,[ 5.42985621e+04  1.58924583e+03 -3.17995200e-02  5.65595637e-01],372,919.6039908038109
525,525,[ 5.42985621e+04  1.58924583e+03 -3.17995200e-02  5.65595637e-01],814,919.0022930729018
526,526,[ 5.42985621e+04  1.58924583e+03 -3.17995200e-02  5.65595637e-01],346,917.6940785359155
527,527,[ 5.42985621e+04  1.58924583e+03 -3.17995200e-02  5.65595637e-01],124,919.3894264946713
528,528,[ 5.42985621e+04  1.58924583e+03 -3.17995200e-02  5.65595637e-01],796,920.4472589896105
529,529,[ 5.42985621e+04  1.58924583e+03 -3.17995200e-02  5.65595637e-01],493,920.3248005529889
530,530,[ 5.42985621e+04  1.58924583e+03 -3.17995200e-02  5.65595637e-01],642,920.8584719208625
531,531,[ 5.42985621e+04  1.58924583e+03 -3.17995200e-02  5.65595637e-01],340,921.146321035883
532,532,[ 5.42985621e+04  1.58924583e+03 -3.17995200e-02  5.65595637e-01],808,918.9081978245044
533,533,[ 5.42985621e+04  1.58924583e+03 -3.17995200e-02  5.65595637e-01],173,919.5643665042162
534,534,[ 5.42985621e+04  1.58924583e+03 -3.17995200e-02  5.65595637e-01],31,921.3033744896652
535,535,[ 5.42985621e+04  1.58924583e+03 -3.17995200e-02  5.65595637e-01],847,921.2826163811794
536,536,[ 5.42985621e+04  1.58924583e+03 -3.17995200e-02  5.65595637e-01],345,921.2160935659394
537,537,[ 5.42985621e+04  1.58924583e+03 -3.17995200e-02  5.65595637e-01],373,920.8552023475797
538,538,[ 5.42985621e+04  1.58924583e+03 -3.17995200e-02  5.65595637e-01],141,918.5967713977656
539,539,[ 5.42985621e+04  1.58924583e+03 -3.17995200e-02  5.65595637e-01],310,919.0287068406966
540,540,[ 5.42985621e+04  1.58924583e+03 -3.17995200e-02  5.65595637e-01],865,920.0302826810363
541,541,[ 5.42985621e+04  1.58924583e+03 -3.17995200e-02  5.65595637e-01],279,919.9827492048875
542,542,[ 5.42985621e+04  1.58924583e+03 -3.17995200e-02  5.65595637e-01],156,919.7834259568904
543,543,[ 5.42985621e+04  1.58924583e+03 -3.17995200e-02  5.65595637e-01],267,920.978558772905
544,544,[ 5.42985621e+04  1.58924583e+03 -3.17995200e-02  5.65595637e-01],379,920.8240241582879
545,545,[ 5.42985621e+04  1.58924583e+03 -3.17995200e-02  5.65595637e-01],34,920.8721300540707
546,546,[ 5.42985621e+04  1.58924583e+03 -3.17995200e-02  5.65595637e-01],160,920.9099703905717
547,547,[ 5.42985621e+04  1.58924583e+03 -3.17995200e-02  5.65595637e-01],827,921.143302569741
548,548,[ 5.42985621e+04  1.58924583e+03 -3.17995200e-02  5.65595637e-01],179,920.7296953644335
549,549,[ 5.42985621e+04  1.58924583e+03 -3.17995200e-02  5.65595637e-01],646,920.2532058400797
550,550,[ 5.42985621e+04  1.58924583e+03 -3.17995200e-02  5.65595637e-01],391,920.3632777508191
551,551,[ 5.42985621e+04  1.58924583e+03 -3.17995200e-02  5.65595637e-01],67,920.7839453239671
552,552,[ 5.42985621e+04  1.58924583e+03 -3.17995200e-02  5.65595637e-01],902,919.8668752587133
553,553,[ 5.42985621e+04  1.58924583e+03 -3.17995200e-02  5.65595637e-01],316,920.5667233500362
554,554,[ 5.42985621e+04  1.58924583e+03 -3.17995200e-02  5.65595637e-01],553,921.2397480462067
555,555,[ 5.42985621e+04  1.58924583e+03 -3.17995200e-02  5.65595637e-01],498,921.194389217584
556,556,[ 5.42985621e+04  1.58924583e+03 -3.17995200e-02  5.65595637e-01],767,921.1205113521281
557,557,[ 5.42985621e+04  1.58924583e+03 -3.17995200e-02  5.65595637e-01],867,918.9040350588957
558,558,[ 5.42985621e+04  1.58924583e+03 -3.17995200e-02  5.65595637e-01],380,919.747828364161
559,559,[ 5.42985621e+04  1.58924583e+03 -3.17995200e-02  5.65595637e-01],718,919.3393604715725
560,560,[ 5.42985621e+04  1.58924583e+03 -3.17995200e-02  5.65595637e-01],401,920.4971754091745
561,561,[ 5.42985621e+04  1.58924583e+03 -3.17995200e-02  5.65595637e-01],304,920.93448550598
562,562,[ 5.42985621e+04  1.58924583e+03 -3.17995200e-02  5.65595637e-01],30,919.1183487166102
563,563,[ 5.42985621e+04  1.58924583e+03 -3.17995200e-02  5.65595637e-01],818,919.6021771285349
564,564,[ 5.42985621e+04  1.58924583e+03 -3.17995200e-02  5.65595637e-01],356,920.3955974114482
565,565,[ 5.42985621e+04  1.58924583e+03 -3.17995200e-02  5.65595637e-01],97,920.7925012326106
566,566,[ 5.42985621e+04  1.58924583e+03 -3.17995200e-02  5.65595637e-01],337,921.4811258954062
567,567,[ 5.42985621e+04  1.58924583e+03 -3.17995200e-02  5.65595637e-01],674,921.0603930144044
568,568,[ 5.42985621e+04  1.58924583e+03 -3.17995200e-02  5.65595637e-01],294,920.8867094581567
569,569,[ 5.42985621e+04  1.58924583e+03 -3.17995200e-02  5.65595637e-01],483,920.5006799705856
570,570,[ 5.42985621e+04  1.58924583e+03 -3.17995200e-02  5.65595637e-01],192,920.9807387956071
571,571,[ 5.42985621e+04  1.58924583e+03 -3.17995200e-02  5.65595637e-01],687,920.8947232662571
572,572,[ 5.42985621e+04  1.58924583e+03 -3.17995200e-02  5.65595637e-01],242,921.0541460977805
573,573,[ 5.42985621e+04  1.58924583e+03 -3.17995200e-02  5.65595637e-01],829,921.2576181196617
574,574,[ 5.42985621e+04  1.58924583e+03 -3.17995200e-02  5.65595637e-01],201,921.2327504529651
575,575,[ 5.42985621e+04  1.58924583e+03 -3.17995200e-02  5.65595637e-01],65,920.7423384023551
576,576,[ 5.42985621e+04  1.58924583e+03 -3.17995200e-02  5.65595637e-01],445,921.0677617108108
577,577,[ 5.42985621e+04  1.58924583e+03 -3.17995200e-02  5.65595637e-01],339,921.0782072949171
578,578,[ 5.42985621e+04  1.58924583e+03 -3.17995200e-02  5.65595637e-01],569,921.3888751955672
579,579,[ 5.42985621e+04  1.58924583e+03 -3.17995200e-02  5.65595637e-01],835,921.0694501459221
580,580,[ 5.42985621e+04  1.58924583e+03 -3.17995200e-02  5.65595637e-01],560,921.009432960196
581,581,[ 5.42985621e+04  1.58924583e+03 -3.17995200e-02  5.65595637e-01],241,920.97647980149
582,582,[ 5.42985621e+04  1.58924583e+03 -3.17995200e-02  5.65595637e-01],194,919.9311107129197
583,583,[ 5.42985621e+04  1.58924583e+03 -3.17995200e-02  5.65595637e-01],55,919.579220371398
584,584,[ 5.42985621e+04  1.58924583e+03 -3.17995200e-02  5.65595637e-01],706,920.4612471219878
585,585,[ 5.42985621e+04  1.58924583e+03 -3.17995200e-02  5.65595637e-01],645,921.3017366704056
586,586,[ 5.42985621e+04  1.58924583e+03 -3.17995200e-02  5.65595637e-01],288,920.9028590606603
587,587,[ 5.42985621e+04  1.58924583e+03 -3.17995200e-02  5.65595637e-01],788,920.2137541338943
588,588,[ 5.42985621e+04  1.58924583e+03 -3.17995200e-02  5.65595637e-01],115,920.7660891522805
589,589,[ 5.42985621e+04  1.58924583e+03 -3.17995200e-02  5.65595637e-01],717,921.3960404509031
590,590,[ 5.42985621e+04  1.58924583e+03 -3.17995200e-02  5.65595637e-01],655,921.0487321284375
591,591,[ 5.42985621e+04  1.58924583e+03 -3.17995200e-02  5.65595637e-01],172,920.892971726134
592,592,[ 5.42985621e+04  1.58924583e+03 -3.17995200e-02  5.65595637e-01],157,921.4937159811204
593,593,[ 5.42985621e+04  1.58924583e+03 -3.17995200e-02  5.65595637e-01],768,921.2460490259356
594,594,[ 5.42985621e+04  1.58924583e+03 -3.17995200e-02  5.65595637e-01],863,921.0793378949551
595,595,[ 5.42985621e+04  1.58924583e+03 -3.17995200e-02  5.65595637e-01],584,921.3064332991767
596,596,[ 5.42985621e+04  1.58924583e+03 -3.17995200e-02  5.65595637e-01],465,919.3446066690484
597,597,[ 5.42985621e+04  1.58924583e+03 -3.17995200e-02  5.65595637e-01],780,919.8789165852426
598,598,[ 5.42985621e+04  1.58924583e+03 -3.17995200e-02  5.65595637e-01],33,920.9707755074955
599,599,[ 5.42985621e+04  1.58924583e+03 -3.17995200e-02  5.65595637e-01],58,920.9547940400937
600,600,[ 5.42985621e+04  1.58924583e+03 -3.17995200e-02  5.65595637e-01],400,920.6423876326088
601,601,[ 5.42985621e+04  1.58924583e+03 -3.17995200e-02  5.65595637e-01],804,921.1921822415997
602,602,[ 5.42985621e+04  1.58924583e+03 -3.17995200e-02  5.65595637e-01],52,921.371819594082
603,603,[ 5.42985621e+04  1.58924583e+03 -3.17995200e-02  5.65595637e-01],199,921.0104318477737
604,604,[ 5.42985621e+04  1.58924583e+03 -3.17995200e-02  5.65595637e-01],196,921.2695363584016
605,605,[ 5.42985621e+04  1.58924583e+03 -3.17995200e-02  5.65595637e-01],513,920.9857501136329
606,606,[ 5.42985621e+04  1.58924583e+03 -3.17995200e-02  5.65595637e-01],528,921.005651319421
607,607,[ 5.42985621e+04  1.58924583e+03 -3.17995200e-02  5.65595637e-01],651,921.1656855401513
608,608,[ 5.42985621e+04  1.58924583e+03 -3.17995200e-02  5.65595637e-01],471,920.9115072914694
609,609,[ 5.42985621e+04  1.58924583e+03 -3.17995200e-02  5.65595637e-01],233,920.3502215207878
610,610,[ 5.42985621e+04  1.58924583e+03 -3.17995200e-02  5.65595637e-01],221,920.727177948441
611,611,[ 5.42985621e+04  1.58924583e+03 -3.17995200e-02  5.65595637e-01],175,921.4572356498468
612,612,[ 5.42985621e+04  1.58924583e+03 -3.17995200e-02  5.65595637e-01],636,921.4794145365622
613,613,[ 5.42985621e+04  1.58924583e+03 -3.17995200e-02  5.65595637e-01],178,921.2781187804885
614,614,[ 5.42985621e+04  1.58924583e+03 -3.17995200e-02  5.65595637e-01],334,921.3101660211287
615,615,[ 5.42985621e+04  1.58924583e+03 -3.17995200e-02  5.65595637e-01],875,921.04550854243
616,616,[ 5.42985621e+04  1.58924583e+03 -3.17995200e-02  5.65595637e-01],727,920.8543543910984
617,617,[ 5.42985621e+04  1.58924583e+03 -3.17995200e-02  5.65595637e-01],467,921.174901318373
618,618,[ 5.42985621e+04  1.58924583e+03 -3.17995200e-02  5.65595637e-01],653,920.891057692312
619,619,[ 5.42985621e+04  1.58924583e+03 -3.17995200e-02  5.65595637e-01],564,919.4457547209521
620,620,[ 5.42985621e+04  1.58924583e+03 -3.17995200e-02  5.65595637e-01],675,920.8547655928644
621,621,[ 5.42985621e+04  1.58924583e+03 -3.17995200e-02  5.65595637e-01],152,921.377774612124
622,622,[ 5.42985621e+04  1.58924583e+03 -3.17995200e-02  5.65595637e-01],133,921.1992903859989
623,623,[ 5.42985621e+04  1.58924583e+03 -3.17995200e-02  5.65595637e-01],434,920.2765993856382
624,624,[ 5.42985621e+04  1.58924583e+03 -3.17995200e-02  5.65595637e-01],466,920.1023269505035
625,625,[ 5.42985621e+04  1.58924583e+03 -3.17995200e-02  5.65595637e-01],489,920.2174895218791
626,626,[ 5.42985621e+04  1.58924583e+03 -3.17995200e-02  5.65595637e-01],402,920.9012986677768
627,627,[ 5.42985621e+04  1.58924583e+03 -3.17995200e-02  5.65595637e-01],338,921.1674056547067
628,628,[ 5.42985621e+04  1.58924583e+03 -3.17995200e-02  5.65595637e-01],494,921.3770420658634
629,629,[ 5.42985621e+04  1.58924583e+03 -3.17995200e-02  5.65595637e-01],12,921.2126310608255
630,630,[ 5.42985621e+04  1.58924583e+03 -3.17995200e-02  5.65595637e-01],492,921.4167062930231
631,631,[ 5.42985621e+04  1.58924583e+03 -3.17995200e-02  5.65595637e-01],791,921.1372493709808
632,632,[ 5.42985621e+04  1.58924583e+03 -3.17995200e-02  5.65595637e-01],842,921.3136814006634
633,633,[ 5.42985621e+04  1.58924583e+03 -3.17995200e-02  5.65595637e-01],550,921.1766371014506
634,634,[ 5.42985621e+04  1.58924583e+03 -3.17995200e-02  5.65595637e-01],894,921.2119420708791
635,635,[ 5.42985621e+04  1.58924583e+03 -3.17995200e-02  5.65595637e-01],503,920.8296288340136
636,636,[ 5.42985621e+04  1.58924583e+03 -3.17995200e-02  5.65595637e-01],832,920.4264451803095
637,637,[ 5.42985621e+04  1.58924583e+03 -3.17995200e-02  5.65595637e-01],186,921.1180686787882
638,638,[ 5.42985621e+04  1.58924583e+03 -3.17995200e-02  5.65595637e-01],6,920.9480171719002
639,639,[ 5.42985621e+04  1.58924583e+03 -3.17995200e-02  5.65595637e-01],609,920.8467678521208
640,640,[ 5.42985621e+04  1.58924583e+03 -3.17995200e-02  5.65595637e-01],459,920.816938909064
641,641,[ 5.42985621e+04  1.58924583e+03 -3.17995200e-02  5.65595637e-01],667,921.1223519074875
642,642,[ 5.42985621e+04  1.58924583e+03 -3.17995200e-02  5.65595637e-01],256,920.6276482108768
643,643,[ 5.42985621e+04  1.58924583e+03 -3.17995200e-02  5.65595637e-01],449,919.9695751036004
644,644,[ 5.42985621e+04  1.58924583e+03 -3.17995200e-02  5.65595637e-01],705,919.315901194475
645,645,[ 5.42985621e+04  1.58924583e+03 -3.17995200e-02  5.65595637e-01],399,920.4877134960102
646,646,[ 5.42985621e+04  1.58924583e+03 -3.17995200e-02  5.65595637e-01],810,920.5822893430519
647,647,[ 5.42985621e+04  1.58924583e+03 -3.17995200e-02  5.65595637e-01],836,920.9901153686101
648,648,[ 5.42985621e+04  1.58924583e+03 -3.17995200e-02  5.65595637e-01],529,921.0788385120217
649,649,[ 5.42985621e+04  1.58924583e+03 -3.17995200e-02  5.65595637e-01],697,920.6895786086112
650,650,[ 5.42985621e+04  1.58924583e+03 -3.17995200e-02  5.65595637e-01],433,921.2471863467053
651,651,[ 5.42985621e+04  1.58924583e+03 -3.17995200e-02  5.65595637e-01],46,920.4400020113378
652,652,[ 5.42985621e+04  1.58924583e+03 -3.17995200e-02  5.65595637e-01],681,920.2213289649135
653,653,[ 5.42985621e+04  1.58924583e+03 -3.17995200e-02  5.65595637e-01],444,920.4044156846143
654,654,[ 5.42985621e+04  1.58924583e+03 -3.17995200e-02  5.65595637e-01],775,921.1345180692105
655,655,[ 5.42985621e+04  1.58924583e+03 -3.17995200e-02  5.65595637e-01],502,920.4704954988995
656,656,[ 5.42985621e+04  1.58924583e+03 -3.17995200e-02  5.65595637e-01],44,921.2472768609134
657,657,[ 5.42985621e+04  1.58924583e+03 -3.17995200e-02  5.65595637e-01],164,921.118277340654
658,658,[ 5.42985621e+04  1.58924583e+03 -3.17995200e-02  5.65595637e-01],28,920.8692049471357
659,659,[ 5.42985621e+04  1.58924583e+03 -3.17995200e-02  5.65595637e-01],13,920.7103236621714
660,660,[ 5.42985621e+04  1.58924583e+03 -3.17995200e-02  5.65595637e-01],183,920.8836193596784
661,661,[ 5.42985621e+04  1.58924583e+03 -3.17995200e-02  5.65595637e-01],41,920.7838642324951
662,662,[ 5.42985621e+04  1.58924583e+03 -3.17995200e-02  5.65595637e-01],482,921.2114240109528
663,663,[ 5.42985621e+04  1.58924583e+03 -3.17995200e-02  5.65595637e-01],749,920.8702169823571
664,664,[ 5.42985621e+04  1.58924583e+03 -3.17995200e-02  5.65595637e-01],623,921.2121973638463
665,665,[ 5.42985621e+04  1.58924583e+03 -3.17995200e-02  5.65595637e-01],441,921.1176466836923
666,666,[ 5.42985621e+04  1.58924583e+03 -3.17995200e-02  5.65595637e-01],113,921.1634861381159
667,667,[ 5.42985621e+04  1.58924583e+03 -3.17995200e-02  5.65595637e-01],549,920.3488243338968
668,668,[ 5.42985621e+04  1.58924583e+03 -3.17995200e-02  5.65595637e-01],701,920.9852396476875
669,669,[ 5.42985621e+04  1.58924583e+03 -3.17995200e-02  5.65595637e-01],104,921.291389843972
670,670,[ 5.42985621e+04  1.58924583e+03 -3.17995200e-02  5.65595637e-01],159,920.8998218867287
671,671,[ 5.42985621e+04  1.58924583e+03 -3.17995200e-02  5.65595637e-01],357,920.8939827309077
672,672,[ 5.42985621e+04  1.58924583e+03 -3.17995200e-02  5.65595637e-01],193,920.8278554405393
673,673,[ 5.42985621e+04  1.58924583e+03 -3.17995200e-02  5.65595637e-01],43,920.7424430958513
674,674,[ 5.42985621e+04  1.58924583e+03 -3.17995200e-02  5.65595637e-01],809,920.5319773611171
675,675,[ 5.42985621e+04  1.58924583e+03 -3.17995200e-02  5.65595637e-01],222,920.3950629790477
676,676,[ 5.42985621e+04  1.58924583e+03 -3.17995200e-02  5.65595637e-01],27,920.8687210005619
677,677,[ 5.42985621e+04  1.58924583e+03 -3.17995200e-02  5.65595637e-01],287,921.0743625327481
678,678,[ 5.42985621e+04  1.58924583e+03 -3.17995200e-02  5.65595637e-01],652,920.6951545839606
679,679,[ 5.42985621e+04  1.58924583e+03 -3.17995200e-02  5.65595637e-01],843,920.9196815053868
680,680,[ 5.42985621e+04  1.58924583e+03 -3.17995200e-02  5.65595637e-01],625,921.3213843164489
681,681,[ 5.42985621e+04  1.58924583e+03 -3.17995200e-02  5.65595637e-01],11,920.3155514494214
682,682,[ 5.42985621e+04  1.58924583e+03 -3.17995200e-02  5.65595637e-01],383,921.198131008031
683,683,[ 5.42985621e+04  1.58924583e+03 -3.17995200e-02  5.65595637e-01],42,921.0849318053697
684,684,[ 5.42985621e+04  1.58924583e+03 -3.17995200e-02  5.65595637e-01],375,920.0632778779558
685,685,[ 5.42985621e+04  1.58924583e+03 -3.17995200e-02  5.65595637e-01],587,919.0451424893618
686,686,[ 5.42985621e+04  1.58924583e+03 -3.17995200e-02  5.65595637e-01],415,919.7262379218777
687,687,[ 5.42985621e+04  1.58924583e+03 -3.17995200e-02  5.65595637e-01],10,920.5172845470164
688,688,[ 5.42985621e+04  1.58924583e+03 -3.17995200e-02  5.65595637e-01],261,921.1068251276408
689,689,[ 5.42985621e+04  1.58924583e+03 -3.17995200e-02  5.65595637e-01],264,920.7390422244547
690,690,[ 5.42985621e+04  1.58924583e+03 -3.17995200e-02  5.65595637e-01],370,921.2500450851612
691,691,[ 5.42985621e+04  1.58924583e+03 -3.17995200e-02  5.65595637e-01],103,921.3557456853733
692,692,[ 5.42985621e+04  1.58924583e+03 -3.17995200e-02  5.65595637e-01],382,921.3878476723106
693,693,[ 5.42985621e+04  1.58924583e+03 -3.17995200e-02  5.65595637e-01],200,921.1565075652716
694,694,[ 5.42985621e+04  1.58924583e+03 -3.17995200e-02  5.65595637e-01],333,919.7134114604994
695,695,[ 5.42985621e+04  1.58924583e+03 -3.17995200e-02  5.65595637e-01],734,918.3522428504143
696,696,[ 5.42985621e+04  1.58924583e+03 -3.17995200e-02  5.65595637e-01],778,918.8380221541722
697,697,[ 5.42985621e+04  1.58924583e+03 -3.17995200e-02  5.65595637e-01],726,920.323213905516
698,698,[ 5.42985621e+04  1.58924583e+03 -3.17995200e-02  5.65595637e-01],15,918.8601212658709
699,699,[ 5.42985621e+04  1.58924583e+03 -3.17995200e-02  5.65595637e-01],450,917.6571586471275
700,700,[ 5.42985621e+04  1.58924583e+03 -3.17995200e-02  5.65595637e-01],624,919.5490907904564
701,701,[ 5.42985621e+04  1.58924583e+03 -3.17995200e-02  5.65595637e-01],336,920.2504740091726
702,702,[ 5.42985621e+04  1.58924583e+03 -3.17995200e-02  5.65595637e-01],247,920.6554309489495
703,703,[ 5.42985621e+04  1.58924583e+03 -3.17995200e-02  5.65595637e-01],501,921.0816331437347
704,704,[ 5.42985621e+04  1.58924583e+03 -3.17995200e-02  5.65595637e-01],684,919.7051397817639
705,705,[ 5.42985621e+04  1.58924583e+03 -3.17995200e-02  5.65595637e-01],68,920.3381641963816
706,706,[ 5.42985621e+04  1.58924583e+03 -3.17995200e-02  5.65595637e-01],822,920.4880379204202
707,707,[ 5.42985621e+04  1.58924583e+03 -3.17995200e-02  5.65595637e-01],490,920.9653044293411
708,708,[ 5.42985621e+04  1.58924583e+03 -3.17995200e-02  5.65595637e-01],540,921.1117605450114
709,709,[ 5.42985621e+04  1.58924583e+03 -3.17995200e-02  5.65595637e-01],123,921.2336833250307
710,710,[ 5.42985621e+04  1.58924583e+03 -3.17995200e-02  5.65595637e-01],162,920.7088077756532
711,711,[ 5.42985621e+04  1.58924583e+03 -3.17995200e-02  5.65595637e-01],366,921.2392411312912
712,712,[ 5.42985621e+04  1.58924583e+03 -3.17995200e-02  5.65595637e-01],477,921.1345862926869
713,713,[ 5.42985621e+04  1.58924583e+03 -3.17995200e-02  5.65595637e-01],66,921.0375683014079
714,714,[ 5.42985621e+04  1.58924583e+03 -3.17995200e-02  5.65595637e-01],293,921.1551596626854
715,715,[ 5.42985621e+04  1.58924583e+03 -3.17995200e-02  5.65595637e-01],541,921.2459971458259
716,716,[ 5.42985621e+04  1.58924583e+03 -3.17995200e-02  5.65595637e-01],874,920.851134526332
717,717,[ 5.42985621e+04  1.58924583e+03 -3.17995200e-02  5.65595637e-01],643,920.4705688167076
718,718,[ 5.42985621e+04  1.58924583e+03 -3.17995200e-02  5.65595637e-01],265,920.5519616518276
719,719,[ 5.42985621e+04  1.58924583e+03 -3.17995200e-02  5.65595637e-01],317,921.0775841892829
720,720,[ 5.42985621e+04  1.58924583e+03 -3.17995200e-02  5.65595637e-01],303,921.4059716729842
721,721,[ 5.42985621e+04  1.58924583e+03 -3.17995200e-02  5.65595637e-01],86,921.3379362633883
722,722,[ 5.42985621e+04  1.58924583e+03 -3.17995200e-02  5.65595637e-01],458,921.1891902513568
723,723,[ 5.42985621e+04  1.58924583e+03 -3.17995200e-02  5.65595637e-01],185,921.0387571078263
724,724,[ 5.42985621e+04  1.58924583e+03 -3.17995200e-02  5.65595637e-01],4,921.1045147156567
725,725,[ 5.42985621e+04  1.58924583e+03 -3.17995200e-02  5.65595637e-01],582,920.7352626451233
726,726,[ 5.42985621e+04  1.58924583e+03 -3.17995200e-02  5.65595637e-01],302,920.1043817896868
727,727,[ 5.42985621e+04  1.58924583e+03 -3.17995200e-02  5.65595637e-01],0,920.410862574239
728,728,[ 5.42985621e+04  1.58924583e+03 -3.17995200e-02  5.65595637e-01],464,920.763428984617
729,729,[ 5.42985621e+04  1.58924583e+03 -3.17995200e-02  5.65595637e-01],214,921.2162297515547
730,730,[ 5.42985621e+04  1.58924583e+03 -3.17995200e-02  5.65595637e-01],411,920.9994919303332
731,731,[ 5.42985621e+04  1.58924583e+03 -3.17995200e-02  5.65595637e-01],394,921.0026689211184
732,732,[ 5.42985621e+04  1.58924583e+03 -3.17995200e-02  5.65595637e-01],597,920.7166120251062
733,733,[ 5.42985621e+04  1.58924583e+03 -3.17995200e-02  5.65595637e-01],84,921.1405236168007
734,734,[ 5.42985621e+04  1.58924583e+03 -3.17995200e-02  5.65595637e-01],79,920.148945301433
735,735,[ 5.42985621e+04  1.58924583e+03 -3.17995200e-02  5.65595637e-01],56,919.2929770069823
736,736,[ 5.42985621e+04  1.58924583e+03 -3.17995200e-02  5.65595637e-01],552,919.5411189553871
737,737,[ 5.42985621e+04  1.58924583e+03 -3.17995200e-02  5.65595637e-01],158,919.578368501541
738,738,[ 5.42985621e+04  1.58924583e+03 -3.17995200e-02  5.65595637e-01],504,920.6930395821944
739,739,[ 5.42985621e+04  1.58924583e+03 -3.17995200e-02  5.65595637e-01],393,920.7930178910099
740,740,[ 5.42985621e+04  1.58924583e+03 -3.17995200e-02  5.65595637e-01],750,920.8949320224001
741,741,[ 5.42985621e+04  1.58924583e+03 -3.17995200e-02  5.65595637e-01],451,921.3330328347118
742,742,[ 5.42985621e+04  1.58924583e+03 -3.17995200e-02  5.65595637e-01],515,921.1210729707514
743,743,[ 5.42985621e+04  1.58924583e+03 -3.17995200e-02  5.65595637e-01],26,921.388216159001
744,744,[ 5.42985621e+04  1.58924583e+03 -3.17995200e-02  5.65595637e-01],512,921.3526467776583
745,745,[ 5.42985621e+04  1.58924583e+03 -3.17995200e-02  5.65595637e-01],85,921.2577177967175
746,746,[ 5.42985621e+04  1.58924583e+03 -3.17995200e-02  5.65595637e-01],542,920.7777168302332
747,747,[ 5.42985621e+04  1.58924583e+03 -3.17995200e-02  5.65595637e-01],278,921.0686864008982
748,748,[ 5.42985621e+04  1.58924583e+03 -3.17995200e-02  5.65595637e-01],439,920.8641468187456
749,749,[ 5.42985621e+04  1.58924583e+03 -3.17995200e-02  5.65595637e-01],514,920.2774528332251
750,750,[ 5.42985621e+04  1.58924583e+03 -3.17995200e-02  5.65595637e-01],99,919.8413264148012
751,751,[ 5.42985621e+04  1.58924583e+03 -3.17995200e-02  5.65595637e-01],558,921.0691015208508
752,752,[ 5.42985621e+04  1.58924583e+03 -3.17995200e-02  5.65595637e-01],359,921.3480785658459
753,753,[ 5.42985621e+04  1.58924583e+03 -3.17995200e-02  5.65595637e-01],246,921.0068341783824
754,754,[ 5.42985621e+04  1.58924583e+03 -3.17995200e-02  5.65595637e-01],332,921.0492824078184
755,755,[ 5.42985621e+04  1.58924583e+03 -3.17995200e-02  5.65595637e-01],438,921.4538151381896
756,756,[ 5.42985621e+04  1.58924583e+03 -3.17995200e-02  5.65595637e-01],686,921.4475257833076
757,757,[ 5.42985621e+04  1.58924583e+03 -3.17995200e-02  5.65595637e-01],694,921.3873426945054
758,758,[ 5.42985621e+04  1.58924583e+03 -3.17995200e-02  5.65595637e-01],443,921.3359464205346
759,759,[ 5.42985621e+04  1.58924583e+03 -3.17995200e-02  5.65595637e-01],704,921.0977459511305
760,760,[ 5.42985621e+04  1.58924583e+03 -3.17995200e-02  5.65595637e-01],461,920.7813705595354
761,761,[ 5.42985621e+04  1.58924583e+03 -3.17995200e-02  5.65595637e-01],171,920.9418684197635
762,762,[ 5.42985621e+04  1.58924583e+03 -3.17995200e-02  5.65595637e-01],463,921.3985481019256
763,763,[ 5.42985621e+04  1.58924583e+03 -3.17995200e-02  5.65595637e-01],1,921.2334022655504
764,764,[ 5.42985621e+04  1.58924583e+03 -3.17995200e-02  5.65595637e-01],866,921.1603661713208
765,765,[ 5.42985621e+04  1.58924583e+03 -3.17995200e-02  5.65595637e-01],820,921.097976787824
766,766,[ 5.42985621e+04  1.58924583e+03 -3.17995200e-02  5.65595637e-01],262,921.2163908610063
767,767,[ 5.42985621e+04  1.58924583e+03 -3.17995200e-02  5.65595637e-01],96,920.5662407461255
768,768,[ 5.42985621e+04  1.58924583e+03 -3.17995200e-02  5.65595637e-01],19,920.4620883511723
769,769,[ 5.42985621e+04  1.58924583e+03 -3.17995200e-02  5.65595637e-01],116,920.7442572862542
770,770,[ 5.42985621e+04  1.58924583e+03 -3.17995200e-02  5.65595637e-01],40,921.4302915509961
771,771,[ 5.42985621e+04  1.58924583e+03 -3.17995200e-02  5.65595637e-01],163,920.7428453447942
772,772,[ 5.42985621e+04  1.58924583e+03 -3.17995200e-02  5.65595637e-01],165,921.1553457318961
773,773,[ 5.42985621e+04  1.58924583e+03 -3.17995200e-02  5.65595637e-01],488,921.0900013438688
774,774,[ 5.42985621e+04  1.58924583e+03 -3.17995200e-02  5.65595637e-01],212,920.853249500839
775,775,[ 5.42985621e+04  1.58924583e+03 -3.17995200e-02  5.65595637e-01],476,920.3131641859586
776,776,[ 5.42985621e+04  1.58924583e+03 -3.17995200e-02  5.65595637e-01],816,919.2827576001686
777,777,[ 5.42985621e+04  1.58924583e+03 -3.17995200e-02  5.65595637e-01],524,919.2188950295197
778,778,[ 5.42985621e+04  1.58924583e+03 -3.17995200e-02  5.65595637e-01],563,920.1233048195606
779,779,[ 5.42985621e+04  1.58924583e+03 -3.17995200e-02  5.65595637e-01],478,920.9774539993049
780,780,[ 5.42985621e+04  1.58924583e+03 -3.17995200e-02  5.65595637e-01],583,920.4598241632475
781,781,[ 5.42985621e+04  1.58924583e+03 -3.17995200e-02  5.65595637e-01],737,920.6872316888412
782,782,[ 5.42985621e+04  1.58924583e+03 -3.17995200e-02  5.65595637e-01],23,920.8520669122548
783,783,[ 5.42985621e+04  1.58924583e+03 -3.17995200e-02  5.65595637e-01],533,920.6956669860241
784,784,[ 5.42985621e+04  1.58924583e+03 -3.17995200e-02  5.65595637e-01],418,920.8315964698172
785,785,[ 5.42985621e+04  1.58924583e+03 -3.17995200e-02  5.65595637e-01],260,921.0948495311608
786,786,[ 5.42985621e+04  1.58924583e+03 -3.17995200e-02  5.65595637e-01],700,920.8549157416363
787,787,[ 5.42985621e+04  1.58924583e+03 -3.17995200e-02  5.65595637e-01],289,920.8850216753514
788,788,[ 5.42985621e+04  1.58924583e+03 -3.17995200e-02  5.65595637e-01],499,920.4809597150854
789,789,[ 5.42985621e+04  1.58924583e+03 -3.17995200e-02  5.65595637e-01],736,921.3705195842655
790,790,[ 5.42985621e+04  1.58924583e+03 -3.17995200e-02  5.65595637e-01],335,921.3837980485322
791,791,[ 5.42985621e+04  1.58924583e+03 -3.17995200e-02  5.65595637e-01],507,920.3648555106141
792,792,[ 5.42985621e+04  1.58924583e+03 -3.17995200e-02  5.65595637e-01],442,920.7981691439828
793,793,[ 5.42985621e+04  1.58924583e+03 -3.17995200e-02  5.65595637e-01],378,921.1682966828358
794,794,[ 5.42985621e+04  1.58924583e+03 -3.17995200e-02  5.65595637e-01],3,921.0555090156098
795,795,[ 5.42985621e+04  1.58924583e+03 -3.17995200e-02  5.65595637e-01],263,921.1083001346249
796,796,[ 5.42985621e+04  1.58924583e+03 -3.17995200e-02  5.65595637e-01],491,920.6323037660617
797,797,[ 5.42985621e+04  1.58924583e+03 -3.17995200e-02  5.65595637e-01],619,921.3162739446227
798,798,[ 5.42985621e+04  1.58924583e+03 -3.17995200e-02  5.65595637e-01],481,921.1503778844186
799,799,[ 5.42985621e+04  1.58924583e+03 -3.17995200e-02  5.65595637e-01],505,920.8275496314243
800,800,[ 5.42985621e+04  1.58924583e+03 -3.17995200e-02  5.65595637e-01],16,920.8100157404731
801,801,[ 5.42985621e+04  1.58924583e+03 -3.17995200e-02  5.65595637e-01],240,920.883664293523
802,802,[ 5.42985621e+04  1.58924583e+03 -3.17995200e-02  5.65595637e-01],376,920.8940099723137
803,803,[ 5.42985621e+04  1.58924583e+03 -3.17995200e-02  5.65595637e-01],232,920.7546447359124
804,804,[ 5.42985621e+04  1.58924583e+03 -3.17995200e-02  5.65595637e-01],506,920.4564947414167
805,805,[ 5.42985621e+04  1.58924583e+03 -3.17995200e-02  5.65595637e-01],527,921.068506575446
806,806,[ 5.42985621e+04  1.58924583e+03 -3.17995200e-02  5.65595637e-01],285,921.111444519681
807,807,[ 5.42985621e+04  1.58924583e+03 -3.17995200e-02  5.65595637e-01],428,920.7417876159866
808,808,[ 5.42985621e+04  1.58924583e+03 -3.17995200e-02  5.65595637e-01],245,920.6245898846621
809,809,[ 5.42985621e+04  1.58924583e+03 -3.17995200e-02  5.65595637e-01],257,920.2400047338292
810,810,[ 5.42985621e+04  1.58924583e+03 -3.17995200e-02  5.65595637e-01],314,920.329882619829
811,811,[ 5.42985621e+04  1.58924583e+03 -3.17995200e-02  5.65595637e-01],596,920.7174756189123
812,812,[ 5.42985621e+04  1.58924583e+03 -3.17995200e-02  5.65595637e-01],559,921.4234499789735
813,813,[ 5.42985621e+04  1.58924583e+03 -3.17995200e-02  5.65595637e-01],416,920.9492731851875
814,814,[ 5.42985621e+04  1.58924583e+03 -3.17995200e-02  5.65595637e-01],57,920.6354888811514
815,815,[ 5.42985621e+04  1.58924583e+03 -3.17995200e-02  5.65595637e-01],644,921.2089206947305
816,816,[ 5.42985621e+04  1.58924583e+03 -3.17995200e-02  5.65595637e-01],25,919.6055680930347
817,817,[ 5.42985621e+04  1.58924583e+03 -3.17995200e-02  5.65595637e-01],735,920.7821567720731
818,818,[ 5.42985621e+04  1.58924583e+03 -3.17995200e-02  5.65595637e-01],776,920.5411599403718
819,819,[ 5.42985621e+04  1.58924583e+03 -3.17995200e-02  5.65595637e-01],155,919.1608436368149
820,820,[ 5.42985621e+04  1.58924583e+03 -3.17995200e-02  5.65595637e-01],243,919.674263022538
821,821,[ 5.42985621e+04  1.58924583e+03 -3.17995200e-02  5.65595637e-01],80,921.2141410766112
822,822,[ 5.42985621e+04  1.58924583e+03 -3.17995200e-02  5.65595637e-01],777,920.0490499129916
823,823,[ 5.42985621e+04  1.58924583e+03 -3.17995200e-02  5.65595637e-01],462,920.7133331798309
824,824,[ 5.42985621e+04  1.58924583e+03 -3.17995200e-02  5.65595637e-01],432,921.2233888073877
825,825,[ 5.42985621e+04  1.58924583e+03 -3.17995200e-02  5.65595637e-01],36,921.05048269333
826,826,[ 5.42985621e+04  1.58924583e+03 -3.17995200e-02  5.65595637e-01],286,920.9960459200455
827,827,[ 5.42985621e+04  1.58924583e+03 -3.17995200e-02  5.65595637e-01],100,920.6024411953234
828,828,[ 5.42985621e+04  1.58924583e+03 -3.17995200e-02  5.65595637e-01],819,920.6592733961078
829,829,[ 5.42985621e+04  1.58924583e+03 -3.17995200e-02  5.65595637e-01],500,920.5106540608161
830,830,[ 5.42985621e+04  1.58924583e+03 -3.17995200e-02  5.65595637e-01],63,920.814621683618
831,831,[ 5.42985621e+04  1.58924583e+03 -3.17995200e-02  5.65595637e-01],54,920.760696452677
832,832,[ 5.42985621e+04  1.58924583e+03 -3.17995200e-02  5.65595637e-01],213,920.3536622039605
833,833,[ 5.42985621e+04  1.58924583e+03 -3.17995200e-02  5.65595637e-01],480,920.8134212939458
834,834,[ 5.42985621e+04  1.58924583e+03 -3.17995200e-02  5.65595637e-01],562,920.8992195524888
835,835,[ 5.42985621e+04  1.58924583e+03 -3.17995200e-02  5.65595637e-01],486,920.499621859159
836,836,[ 5.42985621e+04  1.58924583e+03 -3.17995200e-02  5.65595637e-01],301,920.3275008674829
837,837,[ 5.42985621e+04  1.58924583e+03 -3.17995200e-02  5.65595637e-01],685,920.9486083117692
838,838,[ 5.42985621e+04  1.58924583e+03 -3.17995200e-02  5.65595637e-01],539,921.1304063262502
839,839,[ 5.42985621e+04  1.58924583e+03 -3.17995200e-02  5.65595637e-01],239,921.0795475808235
840,840,[ 5.42985621e+04  1.58924583e+03 -3.17995200e-02  5.65595637e-01],437,920.8002676619859
841,841,[ 5.42985621e+04  1.58924583e+03 -3.17995200e-02  5.65595637e-01],525,920.6882286684186
842,842,[ 5.42985621e+04  1.58924583e+03 -3.17995200e-02  5.65595637e-01],367,920.3646050026703
843,843,[ 5.42985621e+04  1.58924583e+03 -3.17995200e-02  5.65595637e-01],311,920.2182967504525
844,844,[ 5.42985621e+04  1.58924583e+03 -3.17995200e-02  5.65595637e-01],377,920.9172411317238
845,845,[ 5.42985621e+04  1.58924583e+03 -3.17995200e-02  5.65595637e-01],53,921.0714744266966
846,846,[ 5.42985621e+04  1.58924583e+03 -3.17995200e-02  5.65595637e-01],355,921.137004075026
847,847,[ 5.42985621e+04  1.58924583e+03 -3.17995200e-02  5.65595637e-01],457,920.6209656836763
848,848,[ 5.42985621e+04  1.58924583e+03 -3.17995200e-02  5.65595637e-01],508,920.7866467341609
849,849,[ 5.42985621e+04  1.58924583e+03 -3.17995200e-02  5.65595637e-01],403,920.7645573842266
850,850,[ 5.42985621e+04  1.58924583e+03 -3.17995200e-02  5.65595637e-01],456,920.8413826062633
851,851,[ 5.42985621e+04  1.58924583e+03 -3.17995200e-02  5.65595637e-01],17,920.9988775421275
852,852,[ 5.42985621e+04  1.58924583e+03 -3.17995200e-02  5.65595637e-01],532,920.7158866626407
853,853,[ 5.42985621e+04  1.58924583e+03 -3.17995200e-02  5.65595637e-01],557,920.7855532492482
854,854,[ 5.42985621e+04  1.58924583e+03 -3.17995200e-02  5.65595637e-01],331,920.8085695310709
855,855,[ 5.42985621e+04  1.58924583e+03 -3.17995200e-02  5.65595637e-01],18,921.2156754055122
856,856,[ 5.42985621e+04  1.58924583e+03 -3.17995200e-02  5.65595637e-01],698,920.9507245144805
857,857,[ 5.42985621e+04  1.58924583e+03 -3.17995200e-02  5.65595637e-01],24,921.1972418207654
858,858,[ 5.42985621e+04  1.58924583e+03 -3.17995200e-02  5.65595637e-01],417,921.1380683906192
859,859,[ 5.42985621e+04  1.58924583e+03 -3.17995200e-02  5.65595637e-01],696,920.7439746323355
860,860,[ 5.42985621e+04  1.58924583e+03 -3.17995200e-02  5.65595637e-01],440,920.8731621697826
861,861,[ 5.42985621e+04  1.58924583e+03 -3.17995200e-02  5.65595637e-01],292,921.2677114155018
862,862,[ 5.42985621e+04  1.58924583e+03 -3.17995200e-02  5.65595637e-01],154,920.951642422778
863,863,[ 5.42985621e+04  1.58924583e+03 -3.17995200e-02  5.65595637e-01],2,920.4620276189655
864,864,[ 5.42985621e+04  1.58924583e+03 -3.17995200e-02  5.65595637e-01],83,921.0554721696456
865,865,[ 5.42985621e+04  1.58924583e+03 -3.17995200e-02  5.65595637e-01],474,920.6113165148749
866,866,[ 5.42985621e+04  1.58924583e+03 -3.17995200e-02  5.65595637e-01],182,919.6745398660563
867,867,[ 5.42985621e+04  1.58924583e+03 -3.17995200e-02  5.65595637e-01],358,920.5600606307215
868,868,[ 5.42985621e+04  1.58924583e+03 -3.17995200e-02  5.65595637e-01],22,921.4061729416396
869,869,[ 5.42985621e+04  1.58924583e+03 -3.17995200e-02  5.65595637e-01],431,920.9154585138286
870,870,[ 5.42985621e+04  1.58924583e+03 -3.17995200e-02  5.65595637e-01],169,921.0139807318667
871,871,[ 5.42985621e+04  1.58924583e+03 -3.17995200e-02  5.65595637e-01],538,920.8048458005593
872,872,[ 5.42985621e+04  1.58924583e+03 -3.17995200e-02  5.65595637e-01],82,921.0585467448476
873,873,[ 5.42985621e+04  1.58924583e+03 -3.17995200e-02  5.65595637e-01],81,920.8428268547237
874,874,[ 5.42985621e+04  1.58924583e+03 -3.17995200e-02  5.65595637e-01],238,919.9713049577849
875,875,[ 5.42985621e+04  1.58924583e+03 -3.17995200e-02  5.65595637e-01],429,920.4233060534855
876,876,[ 5.42985621e+04  1.58924583e+03 -3.17995200e-02  5.65595637e-01],277,921.4807594941003
877,877,[ 5.42985621e+04  1.58924583e+03 -3.17995200e-02  5.65595637e-01],102,920.8054403200003
878,878,[ 5.42985621e+04  1.58924583e+03 -3.17995200e-02  5.65595637e-01],479,920.6926265571291
879,879,[ 5.42985621e+04  1.58924583e+03 -3.17995200e-02  5.65595637e-01],170,920.8830847095237
880,880,[ 5.42985621e+04  1.58924583e+03 -3.17995200e-02  5.65595637e-01],452,921.1797363051176
881,881,[ 5.42985621e+04  1.58924583e+03 -3.17995200e-02  5.65595637e-01],354,921.1423893935898
882,882,[ 5.42985621e+04  1.58924583e+03 -3.17995200e-02  5.65595637e-01],487,920.8510874597455
883,883,[ 5.42985621e+04  1.58924583e+03 -3.17995200e-02  5.65595637e-01],112,920.9002295273563
884,884,[ 5.42985621e+04  1.58924583e+03 -3.17995200e-02  5.65595637e-01],298,921.239554265253
885,885,[ 5.42985621e+04  1.58924583e+03 -3.17995200e-02  5.65595637e-01],475,921.1035421844726
886,886,[ 5.42985621e+04  1.58924583e+03 -3.17995200e-02  5.65595637e-01],259,920.8121101941366
887,887,[ 5.42985621e+04  1.58924583e+03 -3.17995200e-02  5.65595637e-01],695,921.0355383896874
888,888,[ 5.42985621e+04  1.58924583e+03 -3.17995200e-02  5.65595637e-01],244,921.2319588545937
889,889,[ 5.42985621e+04  1.58924583e+03 -3.17995200e-02  5.65595637e-01],330,920.813770738576
890,890,[ 5.42985621e+04  1.58924583e+03 -3.17995200e-02  5.65595637e-01],9,920.7922145826585
891,891,[ 5.42985621e+04  1.58924583e+03 -3.17995200e-02  5.65595637e-01],511,921.2307613203086
892,892,[ 5.42985621e+04  1.58924583e+03 -3.17995200e-02  5.65595637e-01],275,921.2185063096065
893,893,[ 5.42985621e+04  1.58924583e+03 -3.17995200e-02  5.65595637e-01],353,920.8582931950217
894,894,[ 5.42985621e+04  1.58924583e+03 -3.17995200e-02  5.65595637e-01],101,920.3543493451763
895,895,[ 5.42985621e+04  1.58924583e+03 -3.17995200e-02  5.65595637e-01],430,920.8125377982276
896,896,[ 5.42985621e+04  1.58924583e+03 -3.17995200e-02  5.65595637e-01],455,920.6379296502346
897,897,[ 5.42985621e+04  1.58924583e+03 -3.17995200e-02  5.65595637e-01],258,920.9040031077215
898,898,[ 5.42985621e+04  1.58924583e+03 -3.17995200e-02  5.65595637e-01],276,921.2039506615783
899,899,[ 5.42985621e+04  1.58924583e+03 -3.17995200e-02  5.65595637e-01],39,920.8304547596819
900,900,[ 5.42985621e+04  1.58924583e+03 -3.17995200e-02  5.65595637e-01],526,920.7786922028164
901,901,[ 5.42985621e+04  1.58924583e+03 -3.17995200e-02  5.65595637e-01],168,921.1473695417739
902,902,[ 5.42985621e+04  1.58924583e+03 -3.17995200e-02  5.65595637e-01],699,920.5684888890403
903,903,[ 5.42985621e+04  1.58924583e+03 -3.17995200e-02  5.65595637e-01],7,921.3078566323993
904,904,[ 5.42985621e+04  1.58924583e+03 -3.17995200e-02  5.65595637e-01],436,921.2914446579849
905,905,[ 5.42985621e+04  1.58924583e+03 -3.17995200e-02  5.65595637e-01],454,920.9298184041198
906,906,[ 5.42985621e+04  1.58924583e+03 -3.17995200e-02  5.65595637e-01],300,920.8088117551687
907,907,[ 5.42985621e+04  1.58924583e+03 -3.17995200e-02  5.65595637e-01],312,920.9552450176622
908,908,[ 5.42985621e+04  1.58924583e+03 -3.17995200e-02  5.65595637e-01],166,921.11945734215
909,909,[ 5.42985621e+04  1.58924583e+03 -3.17995200e-02  5.65595637e-01],62,921.0468631614945
910,910,[ 5.42985621e+04  1.58924583e+03 -3.17995200e-02  5.65595637e-01],290,921.2360868064061
911,911,[ 5.42985621e+04  1.58924583e+03 -3.17995200e-02  5.65595637e-01],37,921.0070199234373
912,912,[ 5.42985621e+04  1.58924583e+03 -3.17995200e-02  5.65595637e-01],299,920.7502548359382
913,913,[ 5.42985621e+04  1.58924583e+03 -3.17995200e-02  5.65595637e-01],38,921.140568604631
914,914,[ 5.42985621e+04  1.58924583e+03 -3.17995200e-02  5.65595637e-01],453,921.2421613984859
915,915,[ 5.42985621e+04  1.58924583e+03 -3.17995200e-02  5.65595637e-01],167,920.8201036472113
916,916,[ 5.42985621e+04  1.58924583e+03 -3.17995200e-02  5.65595637e-01],20,920.7369560742037
917,917,[ 5.42985621e+04  1.58924583e+03 -3.17995200e-02  5.65595637e-01],313,921.2228199954014
918,918,[ 5.42985621e+04  1.58924583e+03 -3.17995200e-02  5.65595637e-01],21,921.0475801588009
919,919,[ 5.42985621e+04  1.58924583e+03 -3.17995200e-02  5.65595637e-01],510,920.8502775818058
920,920,[ 5.42985621e+04  1.58924583e+03 -3.17995200e-02  5.65595637e-01],509,921.3774180863311
921,921,[ 5.42985621e+04  1.58924583e+03 -3.17995200e-02  5.65595637e-01],291,921.2592366411894
922,922,[ 5.42985621e+04  1.58924583e+03 -3.17995200e-02  5.65595637e-01],8,920.9557216396075
