,0,1,2,3
0,0,[-2.32158309e+03  3.45383955e+02 -2.92002565e-03 -1.31641694e+07],355,959.9235057303564
1,1,[-2.25738506e+03  3.46385282e+02 -2.86121456e-03 -1.31641694e+07],522,967.6673300353025
2,2,[-2.26154045e+03  3.46385097e+02 -3.12950605e-03 -1.31641694e+07],387,969.7057128730505
3,3,[-2.20579109e+03  3.46384976e+02 -2.96530229e-03 -1.31641694e+07],746,968.5712168534653
4,4,[-2.23995086e+03  3.46385008e+02 -3.15883991e-03 -1.31641694e+07],386,969.5312631932394
5,5,[-2.24723421e+03  3.46384953e+02 -3.19632593e-03 -1.31641694e+07],394,969.0094082428757
6,6,[-2.18297990e+03  3.47386279e+02 -2.82151938e-03 -1.31641694e+07],149,968.3727818494582
7,7,[-2.16255233e+03  3.46385161e+02 -2.65588704e-03 -1.31641694e+07],261,966.0877262571153
8,8,[-2.26448740e+03  3.45383969e+02 -2.87326899e-03 -1.31641694e+07],790,962.8232461332702
9,9,[-2.33110994e+03  3.44383274e+02 -2.98076197e-03 -1.31641694e+07],378,964.6431160019306
10,10,[-2.23680873e+03  3.44382756e+02 -3.14176338e-03 -1.31641694e+07],769,967.7795875116434
11,11,[-2.20994408e+03  3.46384943e+02 -2.97105069e-03 -1.31641694e+07],491,968.7209696990894
12,12,[-2.28486163e+03  3.45384343e+02 -3.24381180e-03 -1.31641694e+07],541,968.7166293813503
13,13,[-2.31651862e+03  3.45384118e+02 -3.41630710e-03 -1.31641694e+07],225,968.5243906391897
14,14,[-2.24503561e+03  3.46385142e+02 -3.18431243e-03 -1.31641694e+07],377,969.6276220324329
15,15,[-2.28908640e+03  3.46385550e+02 -3.03515493e-03 -1.31641694e+07],873,969.3730593078214
16,16,[-2.32525439e+03  3.45384445e+02 -3.11185649e-03 -1.31641694e+07],960,968.423476124292
17,17,[-2.15145943e+03  3.47386833e+02 -2.54325824e-03 -1.31641694e+07],354,967.0696440370574
18,18,[-2.23735325e+03  3.46385190e+02 -2.73873408e-03 -1.31641694e+07],67,966.2432259670366
19,19,[-2.30208103e+03  3.44383167e+02 -3.16390177e-03 -1.31641694e+07],449,967.6268075789843
20,20,[-2.19281357e+03  3.46385012e+02 -2.97832514e-03 -1.31641694e+07],768,969.8450754012129
21,21,[-2.32892689e+03  3.45384119e+02 -3.39177591e-03 -1.31641694e+07],395,968.1556663993766
22,22,[-2.22008473e+03  3.46385348e+02 -2.93448849e-03 -1.31641694e+07],186,965.2864527451204
23,23,[-2.41856264e+03  3.45383946e+02 -3.26379385e-03 -1.31641694e+07],789,962.5390618091128
24,24,[-2.26273706e+03  3.46385980e+02 -3.07543077e-03 -1.31641694e+07],882,967.075652729972
25,25,[-2.32613805e+03  3.45384717e+02 -2.82619536e-03 -1.31641694e+07],962,962.0464093674752
26,26,[-2.21536540e+03  3.46384909e+02 -2.60509224e-03 -1.31641694e+07],891,960.2670167835281
27,27,[-2.27833393e+03  3.45384153e+02 -3.00904540e-03 -1.31641694e+07],187,967.4717215175773
28,28,[-2.26588499e+03  3.45384382e+02 -3.04373460e-03 -1.31641694e+07],969,966.2419195533823
29,29,[-2.21476454e+03  3.46385071e+02 -2.92333508e-03 -1.31641694e+07],523,967.6929665576112
30,30,[-2.31365344e+03  3.45384350e+02 -3.10250033e-03 -1.31641694e+07],495,963.6266589939378
31,31,[-2.29234342e+03  3.46384993e+02 -2.99310988e-03 -1.31641694e+07],952,963.4805640647157
32,32,[-2.28736176e+03  3.46386056e+02 -3.01175767e-03 -1.31641694e+07],874,966.4155445843504
33,33,[-2.32515250e+03  3.45384888e+02 -2.96395475e-03 -1.31641694e+07],941,965.4952772325834
34,34,[-2.34380672e+03  3.44382732e+02 -3.00714710e-03 -1.31641694e+07],333,965.6458127941096
35,35,[-2.25484596e+03  3.45383991e+02 -2.96296847e-03 -1.31641694e+07],862,966.2017819516152
36,36,[-2.21184451e+03  3.46385864e+02 -3.13958461e-03 -1.31641694e+07],235,968.0792475636905
37,37,[-2.25219217e+03  3.46384918e+02 -3.28223868e-03 -1.31641694e+07],229,967.1023816274211
38,38,[-2.27042487e+03  3.46385188e+02 -2.97156912e-03 -1.31641694e+07],503,966.2575268484742
39,39,[-2.26176163e+03  3.45383933e+02 -2.86292026e-03 -1.31641694e+07],184,963.7888265692034
40,40,[-2.24652622e+03  3.45383944e+02 -2.56130100e-03 -1.31641694e+07],970,958.6782263056961
41,41,[-2.16593135e+03  3.46385344e+02 -2.64131036e-03 -1.31641694e+07],385,967.301639642151
42,42,[-2.18989323e+03  3.46385784e+02 -3.19821597e-03 -1.31641694e+07],250,969.6939917404713
43,43,[-2.09057342e+03  3.46384988e+02 -3.43158954e-03 -1.31641694e+07],340,969.6707381650167
44,44,[-2.15707247e+03  3.46385343e+02 -3.34097853e-03 -1.31641694e+07],330,967.9946947609851
45,45,[-2.23212008e+03  3.46384973e+02 -3.09929490e-03 -1.31641694e+07],339,967.5172697429329
46,46,[-2.24629616e+03  3.46385251e+02 -3.21442123e-03 -1.31641694e+07],412,967.2121476691731
47,47,[-2.35445844e+03  3.45384124e+02 -3.38741516e-03 -1.31641694e+07],295,967.7787646891844
48,48,[-2.18747862e+03  3.45383831e+02 -3.04895989e-03 -1.31641694e+07],276,968.298430060236
49,49,[-2.10048589e+03  3.48387361e+02 -3.01781406e-03 -1.31641694e+07],347,966.3519529567027
50,50,[-2.28064053e+03  3.46385154e+02 -3.35357066e-03 -1.31641694e+07],504,967.9723784015738
51,51,[-2.32138474e+03  3.45383843e+02 -3.04606433e-03 -1.31641694e+07],476,968.5480025976136
52,52,[-2.33790649e+03  3.44383094e+02 -3.05034555e-03 -1.31641694e+07],654,968.0984510739979
53,53,[-2.24479115e+03  3.44382744e+02 -3.14188153e-03 -1.31641694e+07],308,968.0903038338932
54,54,[-2.15853871e+03  3.47386021e+02 -3.03081319e-03 -1.31641694e+07],206,965.8420607265688
55,55,[-2.27761918e+03  3.46384898e+02 -3.30502980e-03 -1.31641694e+07],883,963.0436234330937
56,56,[-2.29632765e+03  3.44383660e+02 -3.16626879e-03 -1.31641694e+07],323,959.8648354109758
57,57,[-2.28173115e+03  3.45383995e+02 -2.78270323e-03 -1.31641694e+07],605,963.3085970442784
58,58,[-2.27072867e+03  3.45383920e+02 -2.98967820e-03 -1.31641694e+07],390,965.8568566198716
59,59,[-2.22546374e+03  3.46385785e+02 -2.98695628e-03 -1.31641694e+07],159,965.7793424655833
60,60,[-2.18957362e+03  3.46385127e+02 -3.11381991e-03 -1.31641694e+07],300,968.7170795414006
61,61,[-2.22354055e+03  3.45384495e+02 -3.12574392e-03 -1.31641694e+07],215,965.9954097875379
62,62,[-2.24862028e+03  3.46385321e+02 -3.10450970e-03 -1.31641694e+07],188,959.9445081601391
63,63,[-2.27845921e+03  3.46385203e+02 -3.06910446e-03 -1.31641694e+07],455,960.3547436979538
64,64,[-2.32817577e+03  3.45383771e+02 -3.00462392e-03 -1.31641694e+07],793,965.8379225207901
65,65,[-2.32876707e+03  3.44382945e+02 -3.10404736e-03 -1.31641694e+07],589,966.6640376251189
66,66,[-2.22212252e+03  3.46385115e+02 -2.99763065e-03 -1.31641694e+07],446,966.5449068785227
67,67,[-2.18267082e+03  3.46385137e+02 -3.12867439e-03 -1.31641694e+07],260,970.5913847769586
68,68,[-2.30916689e+03  3.45384113e+02 -3.48819388e-03 -1.31641694e+07],571,968.0305276303948
69,69,[-2.17586634e+03  3.46385263e+02 -3.27862588e-03 -1.31641694e+07],890,967.5115613449472
70,70,[-2.27140848e+03  3.46384946e+02 -3.14973767e-03 -1.31641694e+07],104,966.2530946036686
71,71,[-2.30626831e+03  3.46385355e+02 -3.28953443e-03 -1.31641694e+07],584,965.9688076737668
72,72,[-2.25728947e+03  3.46385340e+02 -2.76054783e-03 -1.31641694e+07],902,966.1043355369488
73,73,[-2.31016222e+03  3.45384147e+02 -2.95959265e-03 -1.31641694e+07],729,962.8762028509689
74,74,[-2.29122721e+03  3.45384574e+02 -3.01202399e-03 -1.31641694e+07],906,966.3601727596094
75,75,[-2.22458721e+03  3.46384906e+02 -2.99411249e-03 -1.31641694e+07],653,967.2318327547652
76,76,[-2.27164194e+03  3.45383785e+02 -3.16305302e-03 -1.31641694e+07],899,966.4670262039593
77,77,[-2.25602279e+03  3.46386236e+02 -3.21035960e-03 -1.31641694e+07],959,963.8387210115447
78,78,[-2.30468842e+03  3.46385631e+02 -2.97334273e-03 -1.31641694e+07],484,960.3319160232243
79,79,[-2.07340408e+03  3.48388310e+02 -2.65450871e-03 -1.31641694e+07],900,960.2504616654924
80,80,[-2.41846926e+03  3.44383079e+02 -3.08185225e-03 -1.31641694e+07],190,965.5255596872979
81,81,[-2.31976067e+03  3.44383411e+02 -3.07148358e-03 -1.31641694e+07],583,968.4609056659423
82,82,[-2.32517212e+03  3.44383409e+02 -2.98543687e-03 -1.31641694e+07],533,965.4883792736433
83,83,[-2.19130075e+03  3.46385433e+02 -3.17318105e-03 -1.31641694e+07],398,967.7794620764492
84,84,[-2.20753749e+03  3.43381686e+02 -4.04707361e-03 -1.31641694e+07],492,940.7504207230177
85,85,[-3.04963082e+03  3.40378554e+02 -4.75092971e-03 -1.31641694e+07],564,934.1735369233505
86,86,[-2.21512088e+03  3.46384920e+02 -2.88782166e-03 -1.31641694e+07],485,949.9775759799339
87,87,[-2.41571567e+03  3.45383939e+02 -3.06072051e-03 -1.31641694e+07],881,955.9168276573819
88,88,[-2.32959595e+03  3.46384975e+02 -3.10856432e-03 -1.31641694e+07],499,954.4681169240641
89,89,[-2.37820151e+03  3.45383955e+02 -2.87513031e-03 -1.31641694e+07],803,954.0455809668667
90,90,[-2.31707891e+03  3.45383849e+02 -2.63745551e-03 -1.31641694e+07],422,953.2288985257354
91,91,[-2.32640209e+03  3.44382735e+02 -2.63969775e-03 -1.31641694e+07],421,955.1771791006063
92,92,[-2.22872279e+03  3.45383794e+02 -2.62989974e-03 -1.31641694e+07],329,963.3204521533669
93,93,[-2.15224502e+03  3.46386393e+02 -3.08602703e-03 -1.31641694e+07],20,969.4723248601547
94,94,[-2.21065539e+03  3.45384019e+02 -3.35701641e-03 -1.31641694e+07],322,968.8535612354658
95,95,[-2.14344666e+03  3.46384978e+02 -3.34106568e-03 -1.31641694e+07],971,966.6315959957855
96,96,[-2.29886364e+03  3.45383874e+02 -3.32770241e-03 -1.31641694e+07],234,965.0260422216282
97,97,[-2.32289122e+03  3.45383993e+02 -3.54270589e-03 -1.31641694e+07],445,963.3691205011768
98,98,[-2.45573522e+03  3.44383026e+02 -3.40914100e-03 -1.31641694e+07],842,963.482705909154
99,99,[-2.27885115e+03  3.46384961e+02 -3.23072376e-03 -1.31641694e+07],640,964.6614276219899
100,100,[-2.25274116e+03  3.46385086e+02 -3.25047626e-03 -1.31641694e+07],524,967.5489552165682
101,101,[-2.32522825e+03  3.43382495e+02 -3.11722732e-03 -1.31641694e+07],467,962.8823486131691
102,102,[-2.19630383e+03  3.45383927e+02 -2.71421266e-03 -1.31641694e+07],287,963.3398704270571
103,103,[-2.23102857e+03  3.45383895e+02 -2.93010169e-03 -1.31641694e+07],609,966.1526042930443
104,104,[-2.15610119e+03  3.46386317e+02 -2.91916238e-03 -1.31641694e+07],471,970.0261599020672
105,105,[-2.14857373e+03  3.46385064e+02 -3.07212015e-03 -1.31641694e+07],325,969.1333502695134
106,106,[-2.15627803e+03  3.46385012e+02 -3.08508939e-03 -1.31641694e+07],273,966.2489017120681
107,107,[-2.18426658e+03  3.47386484e+02 -2.93081176e-03 -1.31641694e+07],745,963.9052809397264
108,108,[-2.26846040e+03  3.46385119e+02 -2.91583676e-03 -1.31641694e+07],706,965.0131425695935
109,109,[-2.24906712e+03  3.46385085e+02 -2.88963006e-03 -1.31641694e+07],291,966.5857194146051
110,110,[-2.27062906e+03  3.44382975e+02 -2.92063372e-03 -1.31641694e+07],716,961.5055094691184
111,111,[-2.10036206e+03  3.46384997e+02 -2.86537703e-03 -1.31641694e+07],832,967.0852127129343
112,112,[-2.24701995e+03  3.45384530e+02 -2.70933820e-03 -1.31641694e+07],662,963.9523344242898
113,113,[-2.19695378e+03  3.46385071e+02 -2.94568915e-03 -1.31641694e+07],169,968.5949980847566
114,114,[-2.12819466e+03  3.46384918e+02 -3.20065952e-03 -1.31641694e+07],2,967.5552580653963
115,115,[-2.10821297e+03  3.45383863e+02 -3.38866294e-03 -1.31641694e+07],736,964.6719465914013
116,116,[-2.24142621e+03  3.45384065e+02 -3.29795573e-03 -1.31641694e+07],281,967.5284142275322
117,117,[-2.33291448e+03  3.45384056e+02 -3.62695427e-03 -1.31641694e+07],550,962.2600466392535
118,118,[-2.26955774e+03  3.46384960e+02 -3.23732291e-03 -1.31641694e+07],42,963.8173573682653
119,119,[-2.30630714e+03  3.45384096e+02 -3.15263143e-03 -1.31641694e+07],827,963.221417285923
120,120,[-2.14387829e+03  3.47386160e+02 -2.60284398e-03 -1.31641694e+07],407,965.0625882766302
121,121,[-2.31624491e+03  3.44382746e+02 -3.05131711e-03 -1.31641694e+07],43,967.3688042545286
122,122,[-2.22944462e+03  3.45384399e+02 -3.02790103e-03 -1.31641694e+07],353,967.5830305313436
123,123,[-2.12179263e+03  3.46385294e+02 -3.07983733e-03 -1.31641694e+07],269,969.1709387398427
124,124,[-2.12351089e+03  3.45384328e+02 -3.51965382e-03 -1.31641694e+07],370,967.0944174459614
125,125,[-2.20259949e+03  3.44383169e+02 -3.28450475e-03 -1.31641694e+07],602,963.0607655743396
126,126,[-2.25152843e+03  3.45384941e+02 -3.10356206e-03 -1.31641694e+07],264,960.1530866785951
127,127,[-2.26804551e+03  3.46385661e+02 -3.06928728e-03 -1.31641694e+07],937,957.9900685261414
128,128,[-2.15662126e+03  3.47386498e+02 -2.79015311e-03 -1.31641694e+07],14,960.9607728292872
129,129,[-2.41492901e+03  3.44383270e+02 -3.04904533e-03 -1.31641694e+07],722,961.3745915233633
130,130,[-2.25638659e+03  3.45383923e+02 -2.91959740e-03 -1.31641694e+07],176,966.6012512523378
131,131,[-2.28753950e+03  3.45383978e+02 -3.04844241e-03 -1.31641694e+07],317,965.138335021899
132,132,[-2.31478765e+03  3.45383849e+02 -3.03696489e-03 -1.31641694e+07],852,967.4257541902139
133,133,[-2.22212347e+03  3.46384874e+02 -3.30969065e-03 -1.31641694e+07],223,966.400419775015
134,134,[-2.27161875e+03  3.45383783e+02 -3.20906532e-03 -1.31641694e+07],737,963.2334411912427
135,135,[-2.19896651e+03  3.47387315e+02 -3.05638836e-03 -1.31641694e+07],715,962.7366895720734
136,136,[-2.30972847e+03  3.46384997e+02 -3.32509023e-03 -1.31641694e+07],826,964.0610874372389
137,137,[-2.31728939e+03  3.45384049e+02 -3.02752267e-03 -1.31641694e+07],189,964.7556778395284
138,138,[-2.35829485e+03  3.44383029e+02 -3.04179221e-03 -1.31641694e+07],916,965.0324186431906
139,139,[-2.19796981e+03  3.46385136e+02 -2.68916760e-03 -1.31641694e+07],4,964.3218167167988
140,140,[-2.05152212e+03  3.48387461e+02 -2.63039247e-03 -1.31641694e+07],512,968.7241372592069
141,141,[-2.19321149e+03  3.46385831e+02 -3.04437541e-03 -1.31641694e+07],324,969.2079584616675
142,142,[-2.19783743e+03  3.46385199e+02 -2.97757745e-03 -1.31641694e+07],665,966.660950232922
143,143,[-2.30994377e+03  3.45383957e+02 -3.32481845e-03 -1.31641694e+07],567,966.5997899086844
144,144,[-2.19825248e+03  3.47386262e+02 -2.95435338e-03 -1.31641694e+07],227,962.6447092657143
145,145,[-2.18343773e+03  3.46385132e+02 -3.27841165e-03 -1.31641694e+07],532,965.7335039505564
146,146,[-2.24708159e+03  3.46385275e+02 -2.73439876e-03 -1.31641694e+07],950,964.2977260620441
147,147,[-2.26598005e+03  3.45383787e+02 -2.89478795e-03 -1.31641694e+07],283,964.3609269882385
148,148,[-2.19715254e+03  3.46385268e+02 -2.91536993e-03 -1.31641694e+07],869,969.0780736018863
149,149,[-2.10228296e+03  3.46385170e+02 -3.09596537e-03 -1.31641694e+07],226,970.8788972613542
150,150,[-2.16555593e+03  3.46385110e+02 -3.25830999e-03 -1.31641694e+07],621,968.5172452077497
151,151,[-2.14065692e+03  3.46385261e+02 -3.28951811e-03 -1.31641694e+07],595,966.9794765024917
152,152,[-2.15550224e+03  3.47386474e+02 -2.98924138e-03 -1.31641694e+07],93,964.0414524795282
153,153,[-2.31393382e+03  3.45383976e+02 -3.55569108e-03 -1.31641694e+07],607,965.8362045741867
154,154,[-2.17305159e+03  3.47386086e+02 -3.09164895e-03 -1.31641694e+07],791,963.4819148943521
155,155,[-2.13896375e+03  3.47386148e+02 -2.71656939e-03 -1.31641694e+07],397,965.8000483428581
156,156,[-2.22769784e+03  3.45384273e+02 -2.89879873e-03 -1.31641694e+07],934,966.2601983515451
157,157,[-2.20992708e+03  3.45384588e+02 -2.81593156e-03 -1.31641694e+07],613,963.719244218992
158,158,[-2.26367132e+03  3.44382895e+02 -3.03246631e-03 -1.31641694e+07],847,967.262521817505
159,159,[-2.14485083e+03  3.46385176e+02 -3.11581133e-03 -1.31641694e+07],475,970.0807456493174
160,160,[-2.05466180e+03  3.45383978e+02 -3.82830451e-03 -1.31641694e+07],338,968.9788070951839
161,161,[-2.09793887e+03  3.45383939e+02 -3.52033056e-03 -1.31641694e+07],349,964.2628809218479
162,162,[-2.26614862e+03  3.44383454e+02 -3.49730434e-03 -1.31641694e+07],626,960.6889219007858
163,163,[-2.27810007e+03  3.46385143e+02 -3.31916026e-03 -1.31641694e+07],618,957.3120177894388
164,164,[-2.30079594e+03  3.46385949e+02 -2.97824359e-03 -1.31641694e+07],531,962.8807900860334
165,165,[-2.24002658e+03  3.46385568e+02 -2.91142251e-03 -1.31641694e+07],848,965.3869167801054
166,166,[-2.30467577e+03  3.44382943e+02 -3.23930264e-03 -1.31641694e+07],479,964.8988179464786
167,167,[-2.05519158e+03  3.48387411e+02 -2.64869057e-03 -1.31641694e+07],747,965.2824273282902
168,168,[-2.19222308e+03  3.44382919e+02 -3.06389495e-03 -1.31641694e+07],617,966.3193263559442
169,169,[-2.21758561e+03  3.45384881e+02 -3.19402477e-03 -1.31641694e+07],252,969.7075979250881
170,170,[-2.17941599e+03  3.47386297e+02 -3.11119731e-03 -1.31641694e+07],581,967.0873865594438
171,171,[-2.10114999e+03  3.48387254e+02 -2.99462842e-03 -1.31641694e+07],15,966.9893303848006
172,172,[-2.10421526e+03  3.47385987e+02 -2.65964273e-03 -1.31641694e+07],311,968.0558710213912
173,173,[-2.20352416e+03  3.46384883e+02 -2.98412494e-03 -1.31641694e+07],870,968.2705222159443
174,174,[-2.14676519e+03  3.45383824e+02 -2.94972355e-03 -1.31641694e+07],696,969.0202115003073
175,175,[-2.16020530e+03  3.46385002e+02 -2.81137066e-03 -1.31641694e+07],384,967.3640281386771
176,176,[-2.18036500e+03  3.46385428e+02 -3.08459039e-03 -1.31641694e+07],545,969.6141639314174
177,177,[-2.12842201e+03  3.46384947e+02 -3.25887293e-03 -1.31641694e+07],224,969.2971893988874
178,178,[-2.09485705e+03  3.48387239e+02 -2.94358638e-03 -1.31641694e+07],655,963.3538708394586
179,179,[-2.01581328e+03  3.49388836e+02 -3.00702518e-03 -1.31641694e+07],961,964.0838990027374
180,180,[-2.14254501e+03  3.47386033e+02 -2.85652158e-03 -1.31641694e+07],728,967.0303882870827
181,181,[-2.23281606e+03  3.45384412e+02 -2.87206625e-03 -1.31641694e+07],411,964.649680825578
182,182,[-2.13861126e+03  3.47386327e+02 -2.58942268e-03 -1.31641694e+07],688,958.2136910880361
183,183,[-2.22945260e+03  3.46385189e+02 -2.80417528e-03 -1.31641694e+07],177,968.216788713747
184,184,[-2.06406231e+03  3.47386060e+02 -2.71013015e-03 -1.31641694e+07],921,970.277219400132
185,185,[-2.14948683e+03  3.46385052e+02 -3.06452306e-03 -1.31641694e+07],472,968.9444356319
186,186,[-2.14980833e+03  3.46385227e+02 -3.30527590e-03 -1.31641694e+07],576,970.5773300737766
187,187,[-2.14306744e+03  3.46385112e+02 -3.15592092e-03 -1.31641694e+07],496,970.4158062810977
188,188,[-2.20991600e+03  3.46385368e+02 -3.23219747e-03 -1.31641694e+07],556,970.0510030519024
189,189,[-2.16360859e+03  3.46386131e+02 -2.98614702e-03 -1.31641694e+07],670,969.5400442444358
190,190,[-2.23101143e+03  3.45383797e+02 -3.13727232e-03 -1.31641694e+07],678,969.9701639873635
191,191,[-2.15547157e+03  3.47386348e+02 -3.09250780e-03 -1.31641694e+07],299,966.5980567356562
192,192,[-2.07179014e+03  3.46385861e+02 -3.74607423e-03 -1.31641694e+07],369,962.2105968396116
193,193,[-2.23160382e+03  3.46384873e+02 -3.05280209e-03 -1.31641694e+07],294,967.7474832588315
194,194,[-2.13155179e+03  3.46385323e+02 -2.60425945e-03 -1.31641694e+07],141,966.2756148439953
195,195,[-2.21559155e+03  3.45383934e+02 -3.01022106e-03 -1.31641694e+07],345,968.1942920532873
196,196,[-2.16330106e+03  3.46385115e+02 -2.91456993e-03 -1.31641694e+07],895,966.5750507636321
197,197,[-2.27157564e+03  3.45384124e+02 -3.48307294e-03 -1.31641694e+07],268,967.4993750879547
198,198,[-2.14902468e+03  3.47386619e+02 -2.91629178e-03 -1.31641694e+07],911,965.2118887035522
199,199,[-2.23826268e+03  3.45384288e+02 -3.73933435e-03 -1.31641694e+07],214,965.1699938709896
200,200,[-2.18007264e+03  3.47386176e+02 -3.29803883e-03 -1.31641694e+07],907,964.8696066271787
201,201,[-2.17128201e+03  3.47386321e+02 -2.98018951e-03 -1.31641694e+07],875,967.8263676530819
202,202,[-2.24572464e+03  3.46384895e+02 -2.83625908e-03 -1.31641694e+07],953,968.213152446114
203,203,[-2.24649566e+03  3.45383983e+02 -2.91513446e-03 -1.31641694e+07],123,965.4404239952647
204,204,[-2.05220249e+03  3.48387374e+02 -2.66856785e-03 -1.31641694e+07],573,963.672171904374
205,205,[-2.27987843e+03  3.45383875e+02 -3.24753945e-03 -1.31641694e+07],205,969.163475698059
206,206,[-2.12631994e+03  3.46384939e+02 -3.12428926e-03 -1.31641694e+07],327,970.1032664597507
207,207,[-2.14050056e+03  3.46385614e+02 -3.04084364e-03 -1.31641694e+07],448,969.1185834120147
208,208,[-2.19146202e+03  3.47386034e+02 -3.16351345e-03 -1.31641694e+07],687,965.7697202630891
209,209,[-2.08734810e+03  3.48387430e+02 -2.89729626e-03 -1.31641694e+07],516,968.0045151854016
210,210,[-2.10552798e+03  3.47386325e+02 -2.68284664e-03 -1.31641694e+07],505,966.2860048829164
211,211,[-2.21747372e+03  3.46385126e+02 -2.69901351e-03 -1.31641694e+07],105,967.0561558749005
212,212,[-2.18987063e+03  3.46385279e+02 -2.80780740e-03 -1.31641694e+07],563,964.7003686530397
213,213,[-2.17654026e+03  3.46385157e+02 -2.98571678e-03 -1.31641694e+07],817,968.377762859485
214,214,[-2.16786759e+03  3.46385193e+02 -3.00193576e-03 -1.31641694e+07],359,969.1833448241041
215,215,[-2.22739999e+03  3.46385224e+02 -3.34367932e-03 -1.31641694e+07],824,970.0513043971519
216,216,[-2.12646263e+03  3.47386221e+02 -3.17302786e-03 -1.31641694e+07],207,967.3574911344815
217,217,[-2.11127673e+03  3.48387558e+02 -3.04261837e-03 -1.31641694e+07],673,965.3820527066122
218,218,[-2.08344850e+03  3.48387380e+02 -2.87521917e-03 -1.31641694e+07],286,968.9463412246196
219,219,[-2.26440167e+03  3.45383918e+02 -3.03317119e-03 -1.31641694e+07],582,967.0409844487514
220,220,[-2.15865963e+03  3.46385615e+02 -2.73898560e-03 -1.31641694e+07],677,968.6184023480303
221,221,[-2.10649237e+03  3.45383851e+02 -2.74133796e-03 -1.31641694e+07],787,963.3545001152106
222,222,[-2.12661757e+03  3.46384975e+02 -3.09143305e-03 -1.31641694e+07],596,968.5880770149159
223,223,[-2.12698144e+03  3.47386309e+02 -3.09083419e-03 -1.31641694e+07],818,969.570196074576
224,224,[-2.13380795e+03  3.47386330e+02 -3.06395675e-03 -1.31641694e+07],494,969.3371319697478
225,225,[-2.17757622e+03  3.46385813e+02 -3.31690417e-03 -1.31641694e+07],439,970.7028178217791
226,226,[-2.15056345e+03  3.46385050e+02 -3.34571676e-03 -1.31641694e+07],402,969.5025363304051
227,227,[-2.28369872e+03  3.45384282e+02 -3.88330091e-03 -1.31641694e+07],148,969.5127385144748
228,228,[-2.19023118e+03  3.47386089e+02 -3.24408399e-03 -1.31641694e+07],553,968.6997206176768
229,229,[-2.21181338e+03  3.46384941e+02 -3.19923654e-03 -1.31641694e+07],644,970.2911912125617
230,230,[-2.24882557e+03  3.45383878e+02 -2.97272097e-03 -1.31641694e+07],778,963.6719541246341
231,231,[-2.14751065e+03  3.46385327e+02 -2.60226164e-03 -1.31641694e+07],396,964.2473464063813
232,232,[-2.15719077e+03  3.46385515e+02 -3.05779093e-03 -1.31641694e+07],805,968.1418865286088
233,233,[-2.17428327e+03  3.46385020e+02 -3.26371003e-03 -1.31641694e+07],772,968.6330349312678
234,234,[-2.19107651e+03  3.45384858e+02 -3.30939975e-03 -1.31641694e+07],894,969.8153393816659
235,235,[-2.11694816e+03  3.46385014e+02 -3.24951067e-03 -1.31641694e+07],612,970.2940857881513
236,236,[-2.14768635e+03  3.47386327e+02 -3.16330089e-03 -1.31641694e+07],174,967.7274195449355
237,237,[-2.24413462e+03  3.46385120e+02 -3.65502610e-03 -1.31641694e+07],459,966.2483368371288
238,238,[-2.24813749e+03  3.46385148e+02 -3.40809001e-03 -1.31641694e+07],443,968.8928591831734
239,239,[-2.17328981e+03  3.45383999e+02 -2.80250896e-03 -1.31641694e+07],599,966.3434957753552
240,240,[-2.22283130e+03  3.46384900e+02 -2.84638884e-03 -1.31641694e+07],527,962.7093664642424
241,241,[-2.14773248e+03  3.46384923e+02 -2.96409782e-03 -1.31641694e+07],5,966.4588392336134
242,242,[-2.11161681e+03  3.47386367e+02 -2.91523965e-03 -1.31641694e+07],797,968.4473764993626
243,243,[-2.27943730e+03  3.45383903e+02 -3.62369527e-03 -1.31641694e+07],399,967.3472965997902
244,244,[-2.10214486e+03  3.48387378e+02 -2.96373934e-03 -1.31641694e+07],478,967.6887553109027
245,245,[-2.35253295e+03  3.45383820e+02 -3.38839671e-03 -1.31641694e+07],274,967.4495789665988
246,246,[-2.33502025e+03  3.45384105e+02 -3.15522491e-03 -1.31641694e+07],901,967.7257365500939
247,247,[-2.24400973e+03  3.45383848e+02 -3.07248931e-03 -1.31641694e+07],160,967.7325942348018
248,248,[-2.13025680e+03  3.46384897e+02 -3.12205292e-03 -1.31641694e+07],868,966.1374355307944
249,249,[-2.19774570e+03  3.45383765e+02 -3.32994649e-03 -1.31641694e+07],413,968.0181039568056
250,250,[-2.09453243e+03  3.45384149e+02 -3.25535586e-03 -1.31641694e+07],218,970.2296256655069
251,251,[-2.14941106e+03  3.46385082e+02 -3.43500863e-03 -1.31641694e+07],430,967.7060472640127
252,252,[-2.16030885e+03  3.46384927e+02 -3.39628270e-03 -1.31641694e+07],185,969.3944123476493
253,253,[-2.10031476e+03  3.48387101e+02 -3.24227507e-03 -1.31641694e+07],315,962.7265048112129
254,254,[-2.18547757e+03  3.46385030e+02 -3.55605831e-03 -1.31641694e+07],799,966.7791480984537
255,255,[-2.11657677e+03  3.47386321e+02 -2.74019252e-03 -1.31641694e+07],853,967.7330708710573
256,256,[-2.13201513e+03  3.47386158e+02 -2.67588898e-03 -1.31641694e+07],572,966.6553367228166
257,257,[-2.18785434e+03  3.46385660e+02 -2.81376035e-03 -1.31641694e+07],679,959.9209854702623
258,258,[-2.19661700e+03  3.46385194e+02 -2.85558495e-03 -1.31641694e+07],796,964.5061293141579
259,259,[-2.17522202e+03  3.46385101e+02 -3.26193165e-03 -1.31641694e+07],391,968.4447516324437
260,260,[-2.17195929e+03  3.46384975e+02 -3.31192815e-03 -1.31641694e+07],381,970.0348354828063
261,261,[-2.26963187e+03  3.45383802e+02 -3.42922108e-03 -1.31641694e+07],331,970.7880144433078
262,262,[-2.15349911e+03  3.47386419e+02 -3.14333552e-03 -1.31641694e+07],770,968.5725284965084
263,263,[-2.15975385e+03  3.47386116e+02 -3.13252138e-03 -1.31641694e+07],645,968.2951840944907
264,264,[-2.23741079e+03  3.46385107e+02 -3.33166751e-03 -1.31641694e+07],426,969.6423907552825
265,265,[-2.26946429e+03  3.45384617e+02 -2.96772195e-03 -1.31641694e+07],238,966.1048768272778
266,266,[-2.19254082e+03  3.45384252e+02 -2.99664426e-03 -1.31641694e+07],946,966.3687027389152
267,267,[-2.19100795e+03  3.45383803e+02 -3.13722126e-03 -1.31641694e+07],611,965.4600692848109
268,268,[-2.07717833e+03  3.46385986e+02 -3.14805699e-03 -1.31641694e+07],433,969.1909211718581
269,269,[-2.13435146e+03  3.46385238e+02 -3.15113244e-03 -1.31641694e+07],608,969.6588061067375
270,270,[-2.14675271e+03  3.46384922e+02 -3.39020199e-03 -1.31641694e+07],777,967.5992937857684
271,271,[-2.17383250e+03  3.47386192e+02 -3.04571306e-03 -1.31641694e+07],956,967.098509503991
272,272,[-2.24742434e+03  3.46385167e+02 -3.36901022e-03 -1.31641694e+07],94,967.7275427312954
273,273,[-2.30175832e+03  3.45384022e+02 -3.37275642e-03 -1.31641694e+07],663,969.7357504106712
274,274,[-2.18947064e+03  3.45384022e+02 -3.17944613e-03 -1.31641694e+07],625,968.9833723660569
275,275,[-2.08956526e+03  3.46384942e+02 -3.08307293e-03 -1.31641694e+07],669,964.8954783147898
276,276,[-2.15334151e+03  3.45383995e+02 -3.45286045e-03 -1.31641694e+07],731,970.163485044898
277,277,[-2.07270308e+03  3.48387124e+02 -3.05477574e-03 -1.31641694e+07],639,966.9069061340451
278,278,[-2.15926553e+03  3.46385010e+02 -3.38912008e-03 -1.31641694e+07],319,967.346106618325
279,279,[-2.20548885e+03  3.46385085e+02 -3.15734269e-03 -1.31641694e+07],849,966.9254191268999
280,280,[-2.29271729e+03  3.45384173e+02 -3.05374398e-03 -1.31641694e+07],444,968.7485930194811
281,281,[-2.19230997e+03  3.46385150e+02 -3.08352587e-03 -1.31641694e+07],632,969.6987597797241
282,282,[-2.13916433e+03  3.46385022e+02 -3.04725422e-03 -1.31641694e+07],341,965.1685026301589
283,283,[-2.08506201e+03  3.46385339e+02 -3.21794956e-03 -1.31641694e+07],417,969.5050431256988
284,284,[-2.11489160e+03  3.46385088e+02 -3.40045472e-03 -1.31641694e+07],346,968.1362071478663
285,285,[-2.15582356e+03  3.46385025e+02 -3.40245353e-03 -1.31641694e+07],427,968.0745256393542
286,286,[-2.20239392e+03  3.46385033e+02 -3.43155276e-03 -1.31641694e+07],863,969.1091317576515
287,287,[-2.17545765e+03  3.46385541e+02 -3.03040382e-03 -1.31641694e+07],429,969.7757996849124
288,288,[-2.14072497e+03  3.46385406e+02 -2.81652719e-03 -1.31641694e+07],825,967.5976028695451
289,289,[-2.14986560e+03  3.46384937e+02 -2.99991316e-03 -1.31641694e+07],974,967.5370497256146
290,290,[-2.12630170e+03  3.46386419e+02 -3.23165657e-03 -1.31641694e+07],316,968.3645262466894
291,291,[-2.13233271e+03  3.46385198e+02 -3.19673153e-03 -1.31641694e+07],577,969.7316732053134
292,292,[-2.12859264e+03  3.47386486e+02 -3.19837265e-03 -1.31641694e+07],798,968.4016538500723
293,293,[-2.01700166e+03  3.49389048e+02 -3.03026440e-03 -1.31641694e+07],945,967.1936796579214
294,294,[-2.08964962e+03  3.48387424e+02 -2.98822269e-03 -1.31641694e+07],610,969.2191172394942
295,295,[-2.19907315e+03  3.46384973e+02 -3.23521171e-03 -1.31641694e+07],280,970.1664643979482
296,296,[-2.16865934e+03  3.46384965e+02 -2.83842291e-03 -1.31641694e+07],312,968.1938166273261
297,297,[-2.19911021e+03  3.45384696e+02 -3.13836624e-03 -1.31641694e+07],352,967.2356854648576
298,298,[-2.11806014e+03  3.46385196e+02 -3.12324653e-03 -1.31641694e+07],549,967.1689751379055
299,299,[-2.16977388e+03  3.46385276e+02 -3.00520689e-03 -1.31641694e+07],929,969.2316570592986
300,300,[-2.09116278e+03  3.46385296e+02 -3.16932160e-03 -1.31641694e+07],318,970.0698778626722
301,301,[-2.09137088e+03  3.48387251e+02 -2.95449799e-03 -1.31641694e+07],140,966.6062737293721
302,302,[-2.18756829e+03  3.47386026e+02 -3.13988832e-03 -1.31641694e+07],11,967.7931793424876
303,303,[-2.21251459e+03  3.46385385e+02 -3.28070453e-03 -1.31641694e+07],521,967.8025668605421
304,304,[-2.05831331e+03  3.48388534e+02 -2.65518088e-03 -1.31641694e+07],60,968.5123973910908
305,305,[-2.19937093e+03  3.45383874e+02 -2.99769811e-03 -1.31641694e+07],12,967.1418823153588
306,306,[-2.15488107e+03  3.46385018e+02 -3.08962164e-03 -1.31641694e+07],858,962.6997496494137
307,307,[-2.10359840e+03  3.46384976e+02 -3.29572520e-03 -1.31641694e+07],942,967.854666065625
308,308,[-2.11477272e+03  3.46385057e+02 -3.28762430e-03 -1.31641694e+07],228,970.1192870116591
309,309,[-2.16164492e+03  3.46385575e+02 -3.40902274e-03 -1.31641694e+07],356,967.5825339821582
310,310,[-2.32953598e+03  3.45383889e+02 -3.69088887e-03 -1.31641694e+07],649,968.2487930277779
311,311,[-2.15138589e+03  3.47386018e+02 -2.98830308e-03 -1.31641694e+07],337,969.36461092509
312,312,[-2.21810501e+03  3.45383799e+02 -3.09516614e-03 -1.31641694e+07],483,968.7483870511915
313,313,[-2.13576945e+03  3.47386306e+02 -2.64513461e-03 -1.31641694e+07],802,963.2984344546122
314,314,[-2.17683001e+03  3.46385300e+02 -3.06477083e-03 -1.31641694e+07],474,965.9087418459172
315,315,[-2.16742663e+03  3.46385081e+02 -3.25012824e-03 -1.31641694e+07],233,968.9435678461158
316,316,[-2.19568483e+03  3.46385112e+02 -3.17650907e-03 -1.31641694e+07],782,968.7627170251832
317,317,[-2.17393199e+03  3.46385488e+02 -3.35709066e-03 -1.31641694e+07],958,969.6066239351695
318,318,[-2.28398116e+03  3.45384457e+02 -3.61088883e-03 -1.31641694e+07],388,968.7277153413777
319,319,[-2.21600668e+03  3.46385755e+02 -3.37153323e-03 -1.31641694e+07],619,968.8238336628646
320,320,[-2.18974234e+03  3.46385296e+02 -2.96197327e-03 -1.31641694e+07],955,967.1657546995258
321,321,[-2.07149700e+03  3.45384130e+02 -2.95780370e-03 -1.31641694e+07],220,965.926794916613
322,322,[-2.09873241e+03  3.45383864e+02 -3.12260538e-03 -1.31641694e+07],719,969.8232865332726
323,323,[-2.07037409e+03  3.46384981e+02 -3.08363618e-03 -1.31641694e+07],924,970.0974134292896
324,324,[-2.08100019e+03  3.45383892e+02 -3.69575375e-03 -1.31641694e+07],404,969.51956336257
325,325,[-2.13624101e+03  3.46385293e+02 -3.34501663e-03 -1.31641694e+07],113,969.7516164234279
326,326,[-2.10909328e+03  3.47386277e+02 -3.24242634e-03 -1.31641694e+07],756,968.4491998162737
327,327,[-2.13012932e+03  3.46385075e+02 -3.31422377e-03 -1.31641694e+07],222,969.1519586860038
328,328,[-2.15236832e+03  3.47386105e+02 -3.12508543e-03 -1.31641694e+07],915,968.4877288860707
329,329,[-2.16253939e+03  3.47386257e+02 -3.02885038e-03 -1.31641694e+07],620,969.8567999454998
330,330,[-2.15434600e+03  3.46385464e+02 -3.23341667e-03 -1.31641694e+07],773,970.1926334700821
331,331,[-2.08841993e+03  3.46385856e+02 -3.10755987e-03 -1.31641694e+07],262,968.9044270405108
332,332,[-2.12125821e+03  3.46385074e+02 -3.14451366e-03 -1.31641694e+07],3,966.987963128562
333,333,[-2.11572754e+03  3.45383939e+02 -3.38659334e-03 -1.31641694e+07],779,970.3123682588877
334,334,[-2.14101390e+03  3.47386246e+02 -3.45406867e-03 -1.31641694e+07],760,964.6048253915573
335,335,[-2.09186454e+03  3.48387213e+02 -2.96849383e-03 -1.31641694e+07],51,967.6902322575801
336,336,[-2.18134716e+03  3.45385105e+02 -3.03574503e-03 -1.31641694e+07],846,965.5887832115856
337,337,[-2.16427867e+03  3.45384277e+02 -3.11192217e-03 -1.31641694e+07],13,968.6912538145976
338,338,[-2.12055530e+03  3.45384345e+02 -3.09434155e-03 -1.31641694e+07],431,969.4364572895726
339,339,[-2.03475699e+03  3.45383814e+02 -3.39398979e-03 -1.31641694e+07],150,970.1851111775619
340,340,[-2.10518639e+03  3.44382647e+02 -3.76304167e-03 -1.31641694e+07],814,970.198841449445
341,341,[-2.25118076e+03  3.45383894e+02 -3.69984148e-03 -1.31641694e+07],788,968.7941094985991
342,342,[-2.11004780e+03  3.46384970e+02 -3.41774424e-03 -1.31641694e+07],304,967.7567654779513
343,343,[-2.15549635e+03  3.46384955e+02 -3.52374651e-03 -1.31641694e+07],648,964.0569111683797
344,344,[-2.13542723e+03  3.47386412e+02 -3.07780427e-03 -1.31641694e+07],328,967.7023258327863
345,345,[-2.11076431e+03  3.47386650e+02 -2.92079578e-03 -1.31641694e+07],463,969.2079028654828
346,346,[-2.18555844e+03  3.46385363e+02 -2.91172666e-03 -1.31641694e+07],348,968.7893684601747
347,347,[-2.15835908e+03  3.45384058e+02 -3.11362279e-03 -1.31641694e+07],575,970.1626763335846
348,348,[-2.15508841e+03  3.45385159e+02 -3.02226660e-03 -1.31641694e+07],367,968.4742032008097
349,349,[-2.10677932e+03  3.45384563e+02 -3.69078427e-03 -1.31641694e+07],81,969.4316621803943
350,350,[-2.12436178e+03  3.47387301e+02 -3.36584358e-03 -1.31641694e+07],374,966.3739310295168
351,351,[-2.14088334e+03  3.46385309e+02 -3.43647430e-03 -1.31641694e+07],326,967.1520342084763
352,352,[-2.15034555e+03  3.46384915e+02 -3.12244130e-03 -1.31641694e+07],242,968.7442106947301
353,353,[-2.10720325e+03  3.44383627e+02 -3.28192850e-03 -1.31641694e+07],259,969.659624694674
354,354,[-2.14511749e+03  3.44382877e+02 -3.27147108e-03 -1.31641694e+07],497,970.5946555635797
355,355,[-2.14417827e+03  3.45383895e+02 -3.40782747e-03 -1.31641694e+07],419,971.0911355897821
356,356,[-2.15971950e+03  3.45384089e+02 -3.76733068e-03 -1.31641694e+07],689,968.6948984207729
357,357,[-2.16947361e+03  3.46385186e+02 -3.46697338e-03 -1.31641694e+07],16,967.8018596503891
358,358,[-2.13288861e+03  3.47386281e+02 -3.15165269e-03 -1.31641694e+07],658,968.3989694494423
359,359,[-2.06603783e+03  3.46385032e+02 -2.98648038e-03 -1.31641694e+07],292,969.125344520705
360,360,[-2.21801979e+03  3.44382937e+02 -3.23871951e-03 -1.31641694e+07],358,964.4731509590284
361,361,[-2.03067284e+03  3.48387105e+02 -2.77335831e-03 -1.31641694e+07],213,967.7826478888366
362,362,[-2.14008880e+03  3.46384997e+02 -3.53110166e-03 -1.31641694e+07],6,964.6825664595086
363,363,[-2.01487568e+03  3.49389861e+02 -3.02516767e-03 -1.31641694e+07],290,961.6683083492255
364,364,[-2.22014738e+03  3.45384166e+02 -3.29767634e-03 -1.31641694e+07],741,961.6674817417121
365,365,[-2.23528995e+03  3.45383959e+02 -3.14838003e-03 -1.31641694e+07],456,963.4846429649175
366,366,[-2.20464033e+03  3.45383882e+02 -3.07564440e-03 -1.31641694e+07],542,967.587660175828
367,367,[-2.01336179e+03  3.45384006e+02 -3.12230893e-03 -1.31641694e+07],886,968.4668052436984
368,368,[-2.10369318e+03  3.45383875e+02 -3.13904062e-03 -1.31641694e+07],723,967.0275907583954
369,369,[-2.20581317e+03  3.44382862e+02 -3.45385811e-03 -1.31641694e+07],405,969.2314849688314
370,370,[-2.03380845e+03  3.45383974e+02 -3.84414871e-03 -1.31641694e+07],48,969.654712730634
371,371,[-2.24880810e+03  3.45384657e+02 -3.94335109e-03 -1.31641694e+07],263,965.6954954600195
372,372,[-2.18980248e+03  3.46385155e+02 -3.27246405e-03 -1.31641694e+07],414,965.0377864463462
373,373,[-2.06662201e+03  3.48387145e+02 -2.88051200e-03 -1.31641694e+07],943,966.5323918275695
374,374,[-2.15759213e+03  3.46384927e+02 -3.02793639e-03 -1.31641694e+07],839,968.4550601389822
375,375,[-2.05570140e+03  3.47386259e+02 -2.94568887e-03 -1.31641694e+07],885,968.1554627208495
376,376,[-2.07968511e+03  3.46385065e+02 -3.15091791e-03 -1.31641694e+07],833,967.5451750011035
377,377,[-2.12879196e+03  3.44382877e+02 -3.61507466e-03 -1.31641694e+07],173,970.6818040959506
378,378,[-2.01332347e+03  3.45384352e+02 -3.43268311e-03 -1.31641694e+07],559,970.768341650071
379,379,[-2.20227536e+03  3.45385058e+02 -3.80185974e-03 -1.31641694e+07],633,967.874217567238
380,380,[-2.31786008e+03  3.45383906e+02 -3.91351624e-03 -1.31641694e+07],712,965.9483220636937
381,381,[-2.12485835e+03  3.47386866e+02 -3.10043803e-03 -1.31641694e+07],465,968.9092034477954
382,382,[-2.12700177e+03  3.45383811e+02 -3.29501548e-03 -1.31641694e+07],310,966.8233475219115
383,383,[-2.17457832e+03  3.46385539e+02 -2.90180075e-03 -1.31641694e+07],452,964.2742286322951
384,384,[-2.12769047e+03  3.45383923e+02 -3.26957747e-03 -1.31641694e+07],808,969.3489251864971
385,385,[-2.08632017e+03  3.46385277e+02 -3.43940272e-03 -1.31641694e+07],507,970.2321247369985
386,386,[-2.14396502e+03  3.45384042e+02 -3.32118319e-03 -1.31641694e+07],434,970.9945792242479
387,387,[-2.15264014e+03  3.45384306e+02 -3.56128237e-03 -1.31641694e+07],183,971.0657175247665
388,388,[-2.19795807e+03  3.46385703e+02 -3.39955119e-03 -1.31641694e+07],460,968.6254032081081
389,389,[-2.19861829e+03  3.46385284e+02 -3.61624425e-03 -1.31641694e+07],202,968.0005029205208
390,390,[-2.04537385e+03  3.46385966e+02 -3.22916819e-03 -1.31641694e+07],807,970.0808844132673
391,391,[-2.08304674e+03  3.46385110e+02 -3.13907307e-03 -1.31641694e+07],965,968.9125978287086
392,392,[-2.07301546e+03  3.45383797e+02 -2.84632981e-03 -1.31641694e+07],854,964.4062285863644
393,393,[-2.10941971e+03  3.46385538e+02 -2.91014830e-03 -1.31641694e+07],195,968.0431298021347
394,394,[-2.10844241e+03  3.46384908e+02 -3.21990153e-03 -1.31641694e+07],568,970.9741697424477
395,395,[-2.12102921e+03  3.45384141e+02 -3.80311109e-03 -1.31641694e+07],296,970.5787431043515
396,396,[-2.12515893e+03  3.46385086e+02 -3.42727103e-03 -1.31641694e+07],780,969.0627269450563
397,397,[-2.11280642e+03  3.46385108e+02 -3.38488938e-03 -1.31641694e+07],767,969.456109103135
398,398,[-2.14261070e+03  3.46385003e+02 -3.30931854e-03 -1.31641694e+07],752,969.9467367787344
399,399,[-2.16422954e+03  3.46385026e+02 -3.04242743e-03 -1.31641694e+07],668,968.9930358684451
400,400,[-2.07455795e+03  3.46384955e+02 -3.08074610e-03 -1.31641694e+07],794,967.3919456791928
401,401,[-2.05928481e+03  3.46385282e+02 -3.12324575e-03 -1.31641694e+07],21,966.1798129881261
402,402,[-2.11686188e+03  3.45383909e+02 -3.17365732e-03 -1.31641694e+07],375,969.0783874661424
403,403,[-2.11762218e+03  3.46384873e+02 -3.14129973e-03 -1.31641694e+07],816,967.9847140803274
404,404,[-2.19503455e+03  3.45383944e+02 -3.57691142e-03 -1.31641694e+07],792,968.5996811100887
405,405,[-2.20005950e+03  3.46384884e+02 -3.29632723e-03 -1.31641694e+07],232,968.3055091589266
406,406,[-2.17268846e+03  3.47386288e+02 -3.28373693e-03 -1.31641694e+07],600,966.5330392619142
407,407,[-2.11863986e+03  3.47386020e+02 -2.79128792e-03 -1.31641694e+07],717,969.6745175778201
408,408,[-2.15683800e+03  3.45384435e+02 -3.06188279e-03 -1.31641694e+07],284,967.5649957780809
409,409,[-2.09241286e+03  3.45383883e+02 -2.96481847e-03 -1.31641694e+07],641,965.5327114831645
410,410,[-2.14700397e+03  3.45383769e+02 -3.10550686e-03 -1.31641694e+07],878,965.8041589226555
411,411,[-2.21158685e+03  3.45383818e+02 -3.16888056e-03 -1.31641694e+07],470,969.3082313114163
412,412,[-2.13555691e+03  3.44382777e+02 -3.55174348e-03 -1.31641694e+07],857,970.1669889923755
413,413,[-2.15826399e+03  3.45383899e+02 -3.75355285e-03 -1.31641694e+07],466,968.9607292508495
414,414,[-2.18436956e+03  3.45383935e+02 -3.78821120e-03 -1.31641694e+07],865,968.294444290228
415,415,[-2.10141810e+03  3.48387104e+02 -3.11845569e-03 -1.31641694e+07],52,963.7420349129894
416,416,[-2.19810367e+03  3.47386158e+02 -3.24856270e-03 -1.31641694e+07],53,965.74619890342
417,417,[-2.19111952e+03  3.46384954e+02 -3.27750544e-03 -1.31641694e+07],36,968.7932209074429
418,418,[-2.16031795e+03  3.46385765e+02 -3.01729454e-03 -1.31641694e+07],285,967.4396306414232
419,419,[-2.04205935e+03  3.45384563e+02 -3.22490673e-03 -1.31641694e+07],940,968.4378101695683
420,420,[-2.06660250e+03  3.46385089e+02 -3.01558662e-03 -1.31641694e+07],884,966.9374557075072
421,421,[ 6.89079064e+03  2.94327044e+02 -2.04913198e-02 -1.31641694e+07],750,969.8728278160293
422,422,[-2.00071415e+03  3.45383935e+02 -3.89574171e-03 -1.31641694e+07],172,969.8752472829572
423,423,[-2.13546432e+03  3.45384246e+02 -3.93093520e-03 -1.31641694e+07],674,967.3484537468152
424,424,[-2.19678457e+03  3.46385038e+02 -3.51341830e-03 -1.31641694e+07],393,965.566941698936
425,425,[-2.17454040e+03  3.47386141e+02 -3.17900266e-03 -1.31641694e+07],68,965.5909404748186
426,426,[-2.16363534e+03  3.46385202e+02 -3.17667555e-03 -1.31641694e+07],686,968.896153408771
427,427,[-2.15664898e+03  3.46385221e+02 -3.12160156e-03 -1.31641694e+07],786,968.7756691456258
428,428,[-2.18751612e+03  3.43382022e+02 -3.43171107e-03 -1.31641694e+07],968,964.1586188894179
429,429,[-2.12258455e+03  3.46385094e+02 -3.30664000e-03 -1.31641694e+07],249,968.7728382175113
430,430,[-2.07967788e+03  3.46385011e+02 -3.45281922e-03 -1.31641694e+07],603,968.9445037519961
431,431,[-2.12617562e+03  3.46386362e+02 -3.53014190e-03 -1.31641694e+07],209,968.5229787179485
432,432,[-2.20075118e+03  3.46384937e+02 -3.48220825e-03 -1.31641694e+07],585,967.5509021567894
433,433,[-2.20309236e+03  3.45383762e+02 -3.31318277e-03 -1.31641694e+07],389,968.8758979366369
434,434,[-2.12284585e+03  3.46385226e+02 -3.10732665e-03 -1.31641694e+07],933,968.2172443894277
435,435,[-2.12699441e+03  3.46386221e+02 -3.12792793e-03 -1.31641694e+07],44,963.9835156603469
436,436,[-2.12555936e+03  3.46385173e+02 -3.21263980e-03 -1.31641694e+07],837,966.9709023217512
437,437,[-2.24768860e+03  3.46384966e+02 -3.47278390e-03 -1.31641694e+07],482,965.5231563929432
438,438,[-2.18360545e+03  3.47386297e+02 -3.08211291e-03 -1.31641694e+07],403,967.8655703521473
439,439,[-2.17305134e+03  3.46385239e+02 -2.98304975e-03 -1.31641694e+07],50,969.0861740482743
440,440,[-2.12927370e+03  3.45383823e+02 -3.03824824e-03 -1.31641694e+07],861,967.7291474939163
441,441,[-2.21824847e+03  3.44383724e+02 -3.32078074e-03 -1.31641694e+07],781,963.8234549533652
442,442,[-2.09832117e+03  3.46385357e+02 -3.40844171e-03 -1.31641694e+07],520,967.2984356190018
443,443,[-2.16956006e+03  3.46384956e+02 -3.36892382e-03 -1.31641694e+07],592,969.0193291338434
444,444,[-2.17021872e+03  3.47386118e+02 -3.21860760e-03 -1.31641694e+07],926,968.818416665994
445,445,[-2.13751403e+03  3.46385085e+02 -3.18368603e-03 -1.31641694e+07],525,969.8151995261725
446,446,[-2.12964781e+03  3.45383986e+02 -3.17630703e-03 -1.31641694e+07],838,970.0373350232553
447,447,[-2.12945379e+03  3.45383976e+02 -3.22923350e-03 -1.31641694e+07],908,967.3997086148869
448,448,[-2.09920614e+03  3.46385159e+02 -3.28748698e-03 -1.31641694e+07],917,969.1471094322314
449,449,[-2.09870384e+03  3.46384996e+02 -3.26337951e-03 -1.31641694e+07],973,970.5906042951107
450,450,[-2.11535437e+03  3.47386107e+02 -3.38044321e-03 -1.31641694e+07],697,966.2334320884424
451,451,[-2.06221128e+03  3.48387689e+02 -3.04990573e-03 -1.31641694e+07],544,967.7259073310679
452,452,[-2.11943413e+03  3.46384927e+02 -3.21053234e-03 -1.31641694e+07],379,968.2404735464955
453,453,[-2.10979988e+03  3.46385457e+02 -2.98198283e-03 -1.31641694e+07],438,967.1825956683938
454,454,[-2.08532953e+03  3.45384057e+02 -3.24579386e-03 -1.31641694e+07],307,967.4258738312922
455,455,[-1.97634830e+03  3.46385007e+02 -2.97610522e-03 -1.31641694e+07],606,970.0490272200195
456,456,[-2.03214734e+03  3.45384181e+02 -3.89772715e-03 -1.31641694e+07],740,968.3494562499085
457,457,[-2.19971470e+03  3.46384893e+02 -3.39621387e-03 -1.31641694e+07],920,967.0343218668546
458,458,[-2.17578076e+03  3.46384945e+02 -3.13281859e-03 -1.31641694e+07],754,965.6462281482541
459,459,[-2.14249850e+03  3.46384940e+02 -3.19041391e-03 -1.31641694e+07],201,969.0197807319894
460,460,[-2.14644461e+03  3.46384945e+02 -3.00348270e-03 -1.31641694e+07],508,968.2136936292637
461,461,[-2.13696774e+03  3.46384976e+02 -3.02149150e-03 -1.31641694e+07],303,964.1061915232118
462,462,[-2.12474782e+03  3.46385256e+02 -3.17645706e-03 -1.31641694e+07],357,966.408404952673
463,463,[-2.14602546e+03  3.46384977e+02 -3.12366206e-03 -1.31641694e+07],513,968.4809161294369
464,464,[-2.22138118e+03  3.46385049e+02 -3.57851424e-03 -1.31641694e+07],302,967.7211511869604
465,465,[-2.12935319e+03  3.46385766e+02 -3.21915423e-03 -1.31641694e+07],831,968.2561367091773
466,466,[-2.10792799e+03  3.46385116e+02 -2.99030193e-03 -1.31641694e+07],757,968.1175560864406
467,467,[-2.17835233e+03  3.45384180e+02 -3.09853528e-03 -1.31641694e+07],361,969.7933848078337
468,468,[-2.15444605e+03  3.45384039e+02 -3.15172172e-03 -1.31641694e+07],903,965.2007529498785
469,469,[-2.13312460e+03  3.46384935e+02 -3.19984713e-03 -1.31641694e+07],10,967.0491787240051
470,470,[-2.15311800e+03  3.47387160e+02 -3.18848854e-03 -1.31641694e+07],83,968.1213379480497
471,471,[-2.15545904e+03  3.46385277e+02 -2.99299218e-03 -1.31641694e+07],47,969.7668362300975
472,472,[-2.16015227e+03  3.46385799e+02 -2.94731701e-03 -1.31641694e+07],819,969.2882355884763
473,473,[-2.13587830e+03  3.46385300e+02 -3.01836733e-03 -1.31641694e+07],588,965.6367659766444
474,474,[-2.15439186e+03  3.45383934e+02 -3.19075209e-03 -1.31641694e+07],843,968.6361334364083
475,475,[-2.17190605e+03  3.46385250e+02 -2.99931076e-03 -1.31641694e+07],342,969.4432858622628
476,476,[-2.17680383e+03  3.45384063e+02 -3.66759915e-03 -1.31641694e+07],193,970.1251693223214
477,477,[-2.08792991e+03  3.48387571e+02 -3.16505286e-03 -1.31641694e+07],914,965.7189295017669
478,478,[-2.07339491e+03  3.48387517e+02 -2.93429761e-03 -1.31641694e+07],255,968.9895623088192
479,479,[-2.17263960e+03  3.46385854e+02 -3.18495201e-03 -1.31641694e+07],247,969.410566202799
480,480,[-2.19930722e+03  3.46385077e+02 -3.03872701e-03 -1.31641694e+07],528,961.1465450046828
481,481,[-2.04866966e+03  3.45384692e+02 -3.14455529e-03 -1.31641694e+07],440,964.4645897454446
482,482,[-2.07022946e+03  3.48388423e+02 -2.93292542e-03 -1.31641694e+07],272,967.9862739016825
483,483,[-2.01363745e+03  3.49388263e+02 -3.03377531e-03 -1.31641694e+07],236,968.6751382898165
484,484,[-2.12464362e+03  3.46385348e+02 -3.16378810e-03 -1.31641694e+07],451,969.9892729016789
485,485,[-2.06069070e+03  3.46385773e+02 -3.07459803e-03 -1.31641694e+07],246,969.930587351052
486,486,[-2.13374250e+03  3.46385169e+02 -3.08918765e-03 -1.31641694e+07],464,967.378851793232
487,487,[-2.14433341e+03  3.46385542e+02 -3.21893729e-03 -1.31641694e+07],755,967.5846541341206
488,488,[-2.23243317e+03  3.45383783e+02 -3.25672115e-03 -1.31641694e+07],889,966.977511888097
489,489,[-2.18319564e+03  3.47386274e+02 -3.29205706e-03 -1.31641694e+07],702,965.8938718372868
490,490,[-2.11750619e+03  3.47386242e+02 -3.12128104e-03 -1.31641694e+07],251,967.3089174705352
491,491,[-2.19368098e+03  3.46385483e+02 -3.03914706e-03 -1.31641694e+07],344,970.7332313074548
492,492,[-2.14914028e+03  3.46385024e+02 -3.01225515e-03 -1.31641694e+07],29,969.9409447134522
493,493,[-2.23579102e+03  3.45383849e+02 -3.01486738e-03 -1.31641694e+07],335,962.3400697614214
494,494,[-2.10626746e+03  3.46385140e+02 -3.33525682e-03 -1.31641694e+07],892,969.0913601931061
495,495,[-2.09678180e+03  3.45383866e+02 -3.72411505e-03 -1.31641694e+07],244,970.366759927729
496,496,[-2.05355000e+03  3.45384018e+02 -3.83836984e-03 -1.31641694e+07],570,969.2734110318233
497,497,[-2.17936014e+03  3.46385184e+02 -3.53515512e-03 -1.31641694e+07],1,968.438603318324
498,498,[-2.12618239e+03  3.46384969e+02 -3.29872496e-03 -1.31641694e+07],938,967.381588022603
499,499,[-2.20154101e+03  3.46385024e+02 -3.10353488e-03 -1.31641694e+07],932,969.9103286659991
500,500,[-2.06191123e+03  3.47386815e+02 -2.76657129e-03 -1.31641694e+07],693,967.5459108159708
501,501,[-2.11175263e+03  3.46385270e+02 -2.99341859e-03 -1.31641694e+07],966,965.0430271222152
502,502,[-2.11722254e+03  3.47385994e+02 -3.04434159e-03 -1.31641694e+07],19,963.0306837291264
503,503,[-2.06704498e+03  3.46384873e+02 -3.18707171e-03 -1.31641694e+07],809,970.2809255153747
504,504,[-2.20338280e+03  3.45383876e+02 -3.71866340e-03 -1.31641694e+07],683,970.1266171668482
505,505,[-2.09119223e+03  3.46385113e+02 -3.47200482e-03 -1.31641694e+07],828,969.1338198099717
506,506,[-2.20423876e+03  3.46385034e+02 -3.73653249e-03 -1.31641694e+07],270,963.1925280056237
507,507,[-2.14910826e+03  3.47386646e+02 -3.07191381e-03 -1.31641694e+07],288,968.2205462573525
508,508,[-2.11743880e+03  3.46386001e+02 -3.06265128e-03 -1.31641694e+07],366,967.8091813791034
509,509,[-2.14989980e+03  3.45383875e+02 -3.24043062e-03 -1.31641694e+07],487,967.4791137808436
510,510,[-2.20540444e+03  3.46385331e+02 -3.01956837e-03 -1.31641694e+07],122,962.1548494084141
511,511,[-2.09616484e+03  3.45383958e+02 -3.31231594e-03 -1.31641694e+07],309,966.8229871849622
512,512,[-2.13986085e+03  3.44382846e+02 -3.69812872e-03 -1.31641694e+07],408,969.5291252520702
513,513,[-2.12635120e+03  3.46384982e+02 -3.44205988e-03 -1.31641694e+07],557,967.7937887174592
514,514,[-2.19620227e+03  3.47386601e+02 -3.29373200e-03 -1.31641694e+07],114,967.1795783129644
515,515,[-2.29193012e+03  3.45384408e+02 -3.75477446e-03 -1.31641694e+07],432,966.8644215659991
516,516,[-2.15980714e+03  3.46386443e+02 -3.05378879e-03 -1.31641694e+07],100,969.1399240831194
517,517,[-2.22314614e+03  3.44382916e+02 -3.49740207e-03 -1.31641694e+07],500,965.933118818099
518,518,[-2.09986792e+03  3.45383980e+02 -2.89654679e-03 -1.31641694e+07],376,962.9277811433099
519,519,[-2.08742987e+03  3.46385128e+02 -3.08612985e-03 -1.31641694e+07],289,964.6856717693513
520,520,[-2.10667247e+03  3.46385476e+02 -3.24867392e-03 -1.31641694e+07],580,967.9506769381525
521,521,[-2.08546459e+03  3.47386598e+02 -3.28371453e-03 -1.31641694e+07],116,968.7207082007808
522,522,[-2.05933588e+03  3.45384378e+02 -3.82709100e-03 -1.31641694e+07],742,971.0867509921994
523,523,[-2.02821505e+03  3.44382820e+02 -3.54192349e-03 -1.31641694e+07],45,970.3671401118835
524,524,[-2.08991207e+03  3.45385044e+02 -3.70038279e-03 -1.31641694e+07],69,969.7991812618855
525,525,[-2.12726712e+03  3.45383854e+02 -3.82160765e-03 -1.31641694e+07],197,967.9365306509184
526,526,[-2.07441725e+03  3.48387196e+02 -3.12882462e-03 -1.31641694e+07],566,965.3246895307979
527,527,[-2.09286191e+03  3.45383957e+02 -3.72737477e-03 -1.31641694e+07],509,969.0145741680573
528,528,[-2.17724718e+03  3.45384496e+02 -3.06960095e-03 -1.31641694e+07],652,967.7303518542379
529,529,[-2.02116056e+03  3.45384633e+02 -2.89544177e-03 -1.31641694e+07],623,966.8564077414128
530,530,[-2.10798291e+03  3.46385873e+02 -2.93005651e-03 -1.31641694e+07],27,963.7205571265001
531,531,[-2.07816810e+03  3.45384099e+02 -3.36917644e-03 -1.31641694e+07],812,969.4236336926933
532,532,[-2.09055834e+03  3.46385057e+02 -3.20390609e-03 -1.31641694e+07],245,969.5066663979848
533,533,[-2.07271942e+03  3.46385086e+02 -3.21087998e-03 -1.31641694e+07],635,969.9508049464075
534,534,[-2.20159152e+03  3.46385252e+02 -3.36896286e-03 -1.31641694e+07],720,962.8475996736364
535,535,[-2.14175966e+03  3.47386492e+02 -2.91604774e-03 -1.31641694e+07],418,962.1858934760708
536,536,[-2.15214811e+03  3.46385241e+02 -2.86067711e-03 -1.31641694e+07],721,967.1091869549387
537,537,[-2.17381654e+03  3.45383965e+02 -2.98181388e-03 -1.31641694e+07],454,963.1200815015715
538,538,[-2.14480480e+03  3.46386551e+02 -2.99494866e-03 -1.31641694e+07],132,965.549591610322
539,539,[-2.12500187e+03  3.45384087e+02 -3.20912613e-03 -1.31641694e+07],597,966.2687803147137
540,540,[-2.09861731e+03  3.46385230e+02 -3.16498987e-03 -1.31641694e+07],661,966.2593825592326
541,541,[-2.07105356e+03  3.45384655e+02 -3.36742357e-03 -1.31641694e+07],725,970.7184219767121
542,542,[-2.11283894e+03  3.47386434e+02 -3.27339471e-03 -1.31641694e+07],447,968.3393139827084
543,543,[-2.15541177e+03  3.46385078e+02 -3.60487178e-03 -1.31641694e+07],400,965.3718003909629
544,544,[-2.07478341e+03  3.48387407e+02 -3.01857787e-03 -1.31641694e+07],630,967.8785247068785
545,545,[-2.11975360e+03  3.46385374e+02 -3.11186461e-03 -1.31641694e+07],498,969.3481392599017
546,546,[-2.11633842e+03  3.45384749e+02 -3.08174194e-03 -1.31641694e+07],486,965.7512797975613
547,547,[-2.09412112e+03  3.46385006e+02 -3.19404342e-03 -1.31641694e+07],650,964.0572063160461
548,548,[-2.06618877e+03  3.45384029e+02 -3.39048968e-03 -1.31641694e+07],121,966.6478190921009
549,549,[-2.05079479e+03  3.46385240e+02 -3.46822702e-03 -1.31641694e+07],175,968.7428752317758
550,550,[-2.09061656e+03  3.45384020e+02 -3.77094394e-03 -1.31641694e+07],216,969.6945638919824
551,551,[-2.01270397e+03  3.49388312e+02 -3.04362564e-03 -1.31641694e+07],951,965.0846925667558
552,552,[-2.15462342e+03  3.47386283e+02 -3.35052737e-03 -1.31641694e+07],694,966.8870533705507
553,553,[-2.14354924e+03  3.47386483e+02 -2.96861592e-03 -1.31641694e+07],922,969.0778589237086
554,554,[-2.03018149e+03  3.45385040e+02 -3.22785634e-03 -1.31641694e+07],423,967.1050424841778
555,555,[-2.07103440e+03  3.46385208e+02 -3.11847336e-03 -1.31641694e+07],243,967.0948912273418
556,556,[-1.95675040e+03  3.46385168e+02 -3.05301294e-03 -1.31641694e+07],278,969.2660750110938
557,557,[-2.13436156e+03  3.46384987e+02 -3.51288851e-03 -1.31641694e+07],490,967.5605256337572
558,558,[-2.09728796e+03  3.48387463e+02 -3.42424197e-03 -1.31641694e+07],41,962.1233530913257
559,559,[-2.06096239e+03  3.46384900e+02 -3.51660685e-03 -1.31641694e+07],442,968.2620594073362
560,560,[-2.17765807e+03  3.46385307e+02 -3.01204536e-03 -1.31641694e+07],158,966.3453226685439
561,561,[-2.14890093e+03  3.46385774e+02 -3.01661015e-03 -1.31641694e+07],297,964.385690635034
562,562,[-2.14621616e+03  3.44383111e+02 -3.33171812e-03 -1.31641694e+07],879,964.7521179273738
563,563,[-2.12902866e+03  3.45384197e+02 -3.44293700e-03 -1.31641694e+07],75,969.1333278183945
564,564,[-2.10856165e+03  3.45384046e+02 -3.58954525e-03 -1.31641694e+07],692,969.9350576221751
565,565,[-2.09906708e+03  3.48387831e+02 -3.18435671e-03 -1.31641694e+07],46,965.1570235372355
566,566,[-2.19234287e+03  3.45383823e+02 -4.00494546e-03 -1.31641694e+07],701,967.4983593870394
567,567,[-2.24264990e+03  3.45384360e+02 -3.19303983e-03 -1.31641694e+07],867,969.5130125207112
568,568,[-2.09360583e+03  3.47386123e+02 -2.68764694e-03 -1.31641694e+07],751,968.1940029096454
569,569,[-2.19304411e+03  3.46385622e+02 -3.01086117e-03 -1.31641694e+07],293,960.2102414363766
570,570,[-2.10903020e+03  3.46385548e+02 -3.02109668e-03 -1.31641694e+07],631,967.6718730080281
571,571,[-2.08472353e+03  3.45384003e+02 -3.45470896e-03 -1.31641694e+07],643,970.0312107075721
572,572,[-2.05517045e+03  3.48387117e+02 -2.91951300e-03 -1.31641694e+07],453,968.9291208576507
573,573,[-2.15751326e+03  3.46385184e+02 -3.19047065e-03 -1.31641694e+07],514,969.1645855323222
574,574,[-2.09871063e+03  3.48388048e+02 -3.04474762e-03 -1.31641694e+07],841,962.4431457143629
575,575,[-2.15329268e+03  3.46385321e+02 -3.55747366e-03 -1.31641694e+07],298,968.4700723980333
576,576,[-2.07660623e+03  3.48387307e+02 -2.90624065e-03 -1.31641694e+07],732,969.2796851432728
577,577,[-2.26530825e+03  3.45383861e+02 -3.17228873e-03 -1.31641694e+07],320,968.7594205464648
578,578,[-2.21304787e+03  3.45383878e+02 -2.97934875e-03 -1.31641694e+07],351,965.0381476036491
579,579,[-2.15267165e+03  3.46385007e+02 -2.98666806e-03 -1.31641694e+07],305,963.5676982016822
580,580,[-2.12516646e+03  3.47386176e+02 -3.07539298e-03 -1.31641694e+07],912,967.5342210657591
581,581,[-2.13948885e+03  3.46385794e+02 -3.15439511e-03 -1.31641694e+07],776,969.3736052235083
582,582,[-2.13203783e+03  3.46385593e+02 -3.21927884e-03 -1.31641694e+07],813,969.107965035573
583,583,[-2.07635904e+03  3.46385393e+02 -3.23469519e-03 -1.31641694e+07],536,969.9597737860361
584,584,[-2.12787084e+03  3.45384339e+02 -3.51421995e-03 -1.31641694e+07],598,970.025932556589
585,585,[-2.21330108e+03  3.45383918e+02 -3.68657025e-03 -1.31641694e+07],554,968.0029480579399
586,586,[-2.17081100e+03  3.45384695e+02 -3.64843155e-03 -1.31641694e+07],37,966.8362078709848
587,587,[-2.10940439e+03  3.48387723e+02 -3.11989848e-03 -1.31641694e+07],271,967.0193118382043
588,588,[-2.08077686e+03  3.48387420e+02 -3.03438303e-03 -1.31641694e+07],555,967.7730396233255
589,589,[-2.15782906e+03  3.46385044e+02 -3.16863194e-03 -1.31641694e+07],124,970.0450064764929
590,590,[-2.11307582e+03  3.46385119e+02 -3.08805796e-03 -1.31641694e+07],170,966.207523791313
591,591,[-2.24478802e+03  3.45383879e+02 -3.09137549e-03 -1.31641694e+07],111,963.8766122593128
592,592,[-2.06289640e+03  3.45383908e+02 -3.37096782e-03 -1.31641694e+07],744,967.9449655945817
593,593,[-2.09374496e+03  3.48387689e+02 -3.32331189e-03 -1.31641694e+07],622,964.0802906125258
594,594,[-2.06945096e+03  3.48387356e+02 -3.15414333e-03 -1.31641694e+07],24,966.5610883599194
595,595,[-2.18904358e+03  3.46385114e+02 -3.27102485e-03 -1.31641694e+07],675,969.4885617311594
596,596,[-2.10046380e+03  3.46385288e+02 -2.97252697e-03 -1.31641694e+07],17,969.0966010301717
597,597,[-2.11941214e+03  3.46384885e+02 -3.08223649e-03 -1.31641694e+07],211,967.4112695564027
598,598,[-2.10508077e+03  3.47386201e+02 -3.12340333e-03 -1.31641694e+07],469,967.1054213555836
599,599,[-2.07520344e+03  3.46385371e+02 -3.21506593e-03 -1.31641694e+07],850,969.0153268699185
600,600,[-2.19416837e+03  3.46385507e+02 -3.35433905e-03 -1.31641694e+07],614,968.1408270329599
601,601,[-2.09174392e+03  3.48387419e+02 -3.09733242e-03 -1.31641694e+07],219,965.8355044931715
602,602,[-2.11767634e+03  3.46384908e+02 -3.24646115e-03 -1.31641694e+07],659,969.6535389488403
603,603,[-2.18190229e+03  3.46385267e+02 -3.04019089e-03 -1.31641694e+07],457,968.0131924457792
604,604,[-2.12040968e+03  3.46385562e+02 -3.16630114e-03 -1.31641694e+07],180,966.1303433926194
605,605,[-2.17336561e+03  3.45383856e+02 -3.57810812e-03 -1.31641694e+07],368,970.0876916880719
606,606,[-2.21006041e+03  3.46385199e+02 -3.47116688e-03 -1.31641694e+07],587,967.8512095030827
607,607,[-2.12570356e+03  3.47386042e+02 -2.89087315e-03 -1.31641694e+07],646,969.4623052937828
608,608,[-2.13285368e+03  3.46385654e+02 -3.15779747e-03 -1.31641694e+07],627,968.873938032075
609,609,[-2.15956009e+03  3.45384040e+02 -3.31359440e-03 -1.31641694e+07],815,969.7721121495715
610,610,[-2.10711475e+03  3.46385695e+02 -3.31736046e-03 -1.31641694e+07],739,968.751317627414
611,611,[-2.30437604e+03  3.45383964e+02 -3.64694554e-03 -1.31641694e+07],171,968.8833922371763
612,612,[-2.15144703e+03  3.47386228e+02 -3.01519836e-03 -1.31641694e+07],332,969.0205420955539
613,613,[-2.21414206e+03  3.46384899e+02 -3.08592998e-03 -1.31641694e+07],759,969.4502683900268
614,614,[-2.25926399e+03  3.45383775e+02 -3.08121135e-03 -1.31641694e+07],151,967.0417542758736
615,615,[-2.13260467e+03  3.46385809e+02 -2.97128703e-03 -1.31641694e+07],488,964.8772521458876
616,616,[-2.16286481e+03  3.47386330e+02 -3.08534855e-03 -1.31641694e+07],436,966.4193899846665
617,617,[-2.28312844e+03  3.45384378e+02 -3.43960630e-03 -1.31641694e+07],829,969.4074382881755
618,618,[-2.17658170e+03  3.46384882e+02 -3.09113208e-03 -1.31641694e+07],748,969.4246959330567
619,619,[-2.15473332e+03  3.46386046e+02 -3.20379844e-03 -1.31641694e+07],656,968.6232427443006
620,620,[-2.17534208e+03  3.47386103e+02 -3.01722116e-03 -1.31641694e+07],935,968.5805353116333
621,621,[-2.23240115e+03  3.45383955e+02 -3.24342288e-03 -1.31641694e+07],420,969.4931192349152
622,622,[-2.18188996e+03  3.44382896e+02 -3.24283164e-03 -1.31641694e+07],279,967.0763802502489
623,623,[-2.19766596e+03  3.45384032e+02 -3.50548221e-03 -1.31641694e+07],764,967.4732954981824
624,624,[-2.17729542e+03  3.47386246e+02 -3.14608971e-03 -1.31641694e+07],624,966.9211294012395
625,625,[-2.11245621e+03  3.47386130e+02 -2.83048887e-03 -1.31641694e+07],277,968.8461901822112
626,626,[-2.18072169e+03  3.46385066e+02 -3.00389713e-03 -1.31641694e+07],707,969.42735012829
627,627,[-2.12565280e+03  3.45383958e+02 -3.12015273e-03 -1.31641694e+07],690,966.993098290548
628,628,[-2.10377518e+03  3.46385228e+02 -3.15033096e-03 -1.31641694e+07],552,966.4231023144657
629,629,[-2.17247458e+03  3.45384517e+02 -3.07320996e-03 -1.31641694e+07],738,965.9634099072356
630,630,[-2.12598127e+03  3.47387384e+02 -3.31937957e-03 -1.31641694e+07],515,967.3819153933792
631,631,[-2.07115047e+03  3.48387314e+02 -3.13404244e-03 -1.31641694e+07],749,967.1882452776767
632,632,[-2.25366640e+03  3.45383905e+02 -3.51144651e-03 -1.31641694e+07],529,968.8111340621044
633,633,[-2.19921394e+03  3.46385393e+02 -2.95348621e-03 -1.31641694e+07],586,968.2585143685274
634,634,[-2.16140615e+03  3.45384109e+02 -2.87879522e-03 -1.31641694e+07],382,959.5044276671373
635,635,[-2.08794684e+03  3.46385129e+02 -3.10926316e-03 -1.31641694e+07],511,967.4463344127851
636,636,[-2.17266909e+03  3.45384046e+02 -3.61726546e-03 -1.31641694e+07],254,966.4948499782093
637,637,[-2.19152811e+03  3.47387275e+02 -3.13356137e-03 -1.31641694e+07],856,966.4894433011583
638,638,[-2.01344269e+03  3.49388349e+02 -3.03325889e-03 -1.31641694e+07],647,966.6017176226445
639,639,[-2.06747441e+03  3.48388044e+02 -2.84481241e-03 -1.31641694e+07],65,968.8296664934321
640,640,[-2.19304246e+03  3.45384136e+02 -3.14352261e-03 -1.31641694e+07],142,969.8020390505192
641,641,[-2.19564286e+03  3.45384504e+02 -3.10560071e-03 -1.31641694e+07],256,968.1357936339202
642,642,[-2.20962865e+03  3.46385463e+02 -2.72807876e-03 -1.31641694e+07],548,960.8087830478371
643,643,[-2.12041149e+03  3.46386657e+02 -3.12364441e-03 -1.31641694e+07],851,967.1882124965988
644,644,[-2.13898659e+03  3.45383782e+02 -3.22423214e-03 -1.31641694e+07],95,969.0770310930687
645,645,[-2.13473941e+03  3.45384063e+02 -3.34876075e-03 -1.31641694e+07],301,968.9017148254857
646,646,[-2.13159848e+03  3.47386051e+02 -3.03480547e-03 -1.31641694e+07],638,967.0020871838155
647,647,[-2.14427369e+03  3.47385994e+02 -3.07009709e-03 -1.31641694e+07],130,966.7228316361155
648,648,[-2.08280715e+03  3.48387330e+02 -2.89738008e-03 -1.31641694e+07],143,968.5028541547869
649,649,[-2.29119340e+03  3.45383828e+02 -3.16446421e-03 -1.31641694e+07],191,968.6922064096372
650,650,[-2.25483810e+03  3.45383842e+02 -3.15625239e-03 -1.31641694e+07],664,967.3703429483268
651,651,[-2.18642751e+03  3.46385254e+02 -2.82449302e-03 -1.31641694e+07],909,963.7924700675306
652,652,[-2.15277882e+03  3.46385405e+02 -3.01634417e-03 -1.31641694e+07],804,967.4742538855247
653,653,[-2.11647551e+03  3.46385202e+02 -3.07439148e-03 -1.31641694e+07],109,970.000691097663
654,654,[-2.09940055e+03  3.45383822e+02 -3.50372935e-03 -1.31641694e+07],196,970.1232825445408
655,655,[-2.13762229e+03  3.45383998e+02 -3.65410117e-03 -1.31641694e+07],594,969.3347187488437
656,656,[-2.19873651e+03  3.46385228e+02 -3.42660674e-03 -1.31641694e+07],66,966.9491369100895
657,657,[-2.07453649e+03  3.48387587e+02 -2.88243822e-03 -1.31641694e+07],660,963.4019242193002
658,658,[-2.15916322e+03  3.46385673e+02 -2.98431918e-03 -1.31641694e+07],406,968.4079255215073
659,659,[-2.15711998e+03  3.45384166e+02 -3.29656612e-03 -1.31641694e+07],373,967.0356085116781
660,660,[-2.12818188e+03  3.46385141e+02 -3.16558268e-03 -1.31641694e+07],727,966.5355652448213
661,661,[-2.11221774e+03  3.45384056e+02 -3.66147484e-03 -1.31641694e+07],636,967.409508598314
662,662,[-2.06502642e+03  3.45384141e+02 -3.74723904e-03 -1.31641694e+07],637,969.7080280053145
663,663,[-2.27491204e+03  3.45383811e+02 -3.69761895e-03 -1.31641694e+07],76,968.8518432592182
664,664,[-2.24346389e+03  3.45384673e+02 -3.95808413e-03 -1.31641694e+07],241,966.5978129090682
665,665,[-2.18811076e+03  3.46384993e+02 -3.00600107e-03 -1.31641694e+07],726,969.5186135466314
666,666,[-2.12681165e+03  3.45383953e+02 -2.92369837e-03 -1.31641694e+07],898,965.4857125918869
667,667,[-2.11964221e+03  3.45383781e+02 -3.15060975e-03 -1.31641694e+07],628,965.9503122926998
668,668,[-2.06897590e+03  3.45384189e+02 -3.24600019e-03 -1.31641694e+07],616,968.1626104677114
669,669,[-2.02844823e+03  3.46385067e+02 -3.38101653e-03 -1.31641694e+07],32,968.8460670810409
670,670,[-2.07155343e+03  3.45383823e+02 -3.76318044e-03 -1.31641694e+07],462,969.2545842406288
671,671,[-2.05286971e+03  3.48388070e+02 -2.95094561e-03 -1.31641694e+07],836,965.0382060181364
672,672,[-2.06805093e+03  3.48388244e+02 -3.03082083e-03 -1.31641694e+07],133,965.4055116169428
673,673,[-2.13203610e+03  3.46384963e+02 -3.23028213e-03 -1.31641694e+07],350,969.1099740151463
674,674,[-2.14774541e+03  3.46385048e+02 -3.16500281e-03 -1.31641694e+07],266,968.0554351291253
675,675,[-2.20747016e+03  3.45385336e+02 -3.23733917e-03 -1.31641694e+07],74,967.0699795249851
676,676,[-2.08679984e+03  3.46385104e+02 -3.15551808e-03 -1.31641694e+07],714,966.245903914021
677,677,[ 9.21040551e+03  2.94327085e+02 -2.37681321e-02 -1.31641694e+07],49,969.1079338739688
678,678,[-2.05660140e+03  3.45384086e+02 -3.85813233e-03 -1.31641694e+07],560,969.246551499336
679,679,[-2.08183771e+03  3.45384192e+02 -3.63053336e-03 -1.31641694e+07],239,968.9197653944436
680,680,[-2.18897765e+03  3.46385033e+02 -3.41572683e-03 -1.31641694e+07],168,966.1625851370137
681,681,[-2.14826004e+03  3.46385880e+02 -3.36715392e-03 -1.31641694e+07],871,966.2889166148019
682,682,[-2.05882508e+03  3.47386366e+02 -3.05192920e-03 -1.31641694e+07],957,964.8696445412398
683,683,[-2.11015545e+03  3.46385461e+02 -3.06657770e-03 -1.31641694e+07],947,967.617978006265
684,684,[-2.11757243e+03  3.45384479e+02 -2.83794445e-03 -1.31641694e+07],681,963.5723333381305
685,685,[-2.21764882e+03  3.43381816e+02 -3.50925669e-03 -1.31641694e+07],210,963.0269912103531
686,686,[-2.10837136e+03  3.46385429e+02 -3.36296340e-03 -1.31641694e+07],194,968.0284648887383
687,687,[-2.11922933e+03  3.45384003e+02 -3.73042168e-03 -1.31641694e+07],539,969.1465681512266
688,688,[-2.06384138e+03  3.45383871e+02 -3.75583602e-03 -1.31641694e+07],156,969.3059455492711
689,689,[-2.12357103e+03  3.45384184e+02 -3.60045161e-03 -1.31641694e+07],540,968.4242320333676
690,690,[-2.12028742e+03  3.47386551e+02 -3.19705180e-03 -1.31641694e+07],38,966.8911722830608
691,691,[-2.26787503e+03  3.45383778e+02 -3.75026400e-03 -1.31641694e+07],70,966.1529699190039
692,692,[-2.14729425e+03  3.45383805e+02 -3.14489079e-03 -1.31641694e+07],106,967.214240714799
693,693,[-2.09947001e+03  3.45383847e+02 -2.97135036e-03 -1.31641694e+07],237,967.6393640479918
694,694,[-2.08949493e+03  3.44383323e+02 -3.25660416e-03 -1.31641694e+07],676,967.350462113331
695,695,[-2.07063503e+03  3.45385421e+02 -3.04401457e-03 -1.31641694e+07],18,965.8326518051814
696,696,[ 1.85508589e+03  2.95328329e+02 -1.38922514e-02 -1.31641694e+07],28,969.3586608023979
697,697,[-2.02148529e+03  3.45383821e+02 -3.99898748e-03 -1.31641694e+07],704,967.8951671877397
698,698,[-2.06830951e+03  3.45385197e+02 -3.89511573e-03 -1.31641694e+07],450,966.1723004805681
699,699,[-2.11496749e+03  3.44383874e+02 -3.71195185e-03 -1.31641694e+07],905,962.8071079456573
700,700,[-2.20842092e+03  3.45384327e+02 -3.48755905e-03 -1.31641694e+07],949,962.8023365197971
701,701,[-2.14260917e+03  3.47386251e+02 -2.97021983e-03 -1.31641694e+07],590,967.2060478116038
702,702,[-2.14730804e+03  3.46384917e+02 -3.17084085e-03 -1.31641694e+07],35,967.7090700495951
703,703,[-2.05789376e+03  3.45384429e+02 -3.42590197e-03 -1.31641694e+07],401,965.8917194554775
704,704,[-2.08604888e+03  3.45384184e+02 -3.00640280e-03 -1.31641694e+07],711,966.2374054022288
705,705,[-1.99983757e+03  3.44383298e+02 -3.19065217e-03 -1.31641694e+07],698,964.6102422182383
706,706,[-2.03171919e+03  3.45383815e+02 -3.33846539e-03 -1.31641694e+07],880,969.7326913601993
707,707,[-2.05867063e+03  3.45384931e+02 -3.85439876e-03 -1.31641694e+07],680,966.9015683889107
708,708,[-2.14560967e+03  3.44384150e+02 -4.73005512e-03 -1.31641694e+07],743,965.614119616538
709,709,[-2.10340394e+03  3.46385013e+02 -3.46725315e-03 -1.31641694e+07],691,962.3441840900375
710,710,[-2.18761903e+03  3.46385380e+02 -3.34569491e-03 -1.31641694e+07],103,963.68736376652
711,711,[-2.09265524e+03  3.47387386e+02 -3.19752465e-03 -1.31641694e+07],248,966.1763020396711
712,712,[-2.13086191e+03  3.46385157e+02 -3.15305198e-03 -1.31641694e+07],604,968.2568132144821
713,713,[-2.06003921e+03  3.45384253e+02 -3.20196423e-03 -1.31641694e+07],977,965.7450811569768
714,714,[-2.03955026e+03  3.45384284e+02 -3.26871493e-03 -1.31641694e+07],753,966.3555075771685
715,715,[-2.06437002e+03  3.45384937e+02 -3.36157461e-03 -1.31641694e+07],265,969.5587383661266
716,716,[-2.06248812e+03  3.44383023e+02 -4.02207321e-03 -1.31641694e+07],72,969.7247142430832
717,717,[-2.05123723e+03  3.45384788e+02 -3.78913155e-03 -1.31641694e+07],7,968.1388497185934
718,718,[-2.14095907e+03  3.47386339e+02 -3.41059810e-03 -1.31641694e+07],928,964.1091359210282
719,719,[-2.11618609e+03  3.46385118e+02 -3.19052287e-03 -1.31641694e+07],923,968.6053299232507
720,720,[-2.14581857e+03  3.45384320e+02 -3.37233434e-03 -1.31641694e+07],872,967.4459700114587
721,721,[-2.01542179e+03  3.45383761e+02 -3.06134157e-03 -1.31641694e+07],61,967.4295102137531
722,722,[-2.03072053e+03  3.45384470e+02 -3.42960744e-03 -1.31641694e+07],71,969.6250191241451
723,723,[-2.08437012e+03  3.45383955e+02 -3.79419890e-03 -1.31641694e+07],629,968.30576854143
724,724,[-2.14945318e+03  3.46385446e+02 -3.72818401e-03 -1.31641694e+07],667,962.9370137811518
725,725,[-2.13407504e+03  3.45384030e+02 -3.63835336e-03 -1.31641694e+07],380,967.409074093158
726,726,[-2.09179888e+03  3.46385282e+02 -3.03187702e-03 -1.31641694e+07],774,966.4574846902475
727,727,[-2.15034103e+03  3.44382793e+02 -3.43255767e-03 -1.31641694e+07],517,966.5205002318063
728,728,[-2.07163715e+03  3.45383913e+02 -3.55495145e-03 -1.31641694e+07],321,969.3109185739752
729,729,[-1.91820410e+03  3.45384248e+02 -3.52194932e-03 -1.31641694e+07],859,970.0063557093215
730,730,[-2.10215889e+03  3.46385240e+02 -3.61995939e-03 -1.31641694e+07],314,965.187689887619
731,731,[-2.16238658e+03  3.46385268e+02 -3.22375922e-03 -1.31641694e+07],800,968.8390519491536
732,732,[-2.19152921e+03  3.45384394e+02 -3.13250124e-03 -1.31641694e+07],489,967.1676477242362
733,733,[-2.17319050e+03  3.44382671e+02 -3.38223118e-03 -1.31641694e+07],703,965.4532326254733
734,734,[-2.08283231e+03  3.45384328e+02 -2.96815339e-03 -1.31641694e+07],820,965.6516818913243
735,735,[-2.03253498e+03  3.45383865e+02 -2.88983163e-03 -1.31641694e+07],58,965.5468001270661
736,736,[-2.10333856e+03  3.45384749e+02 -3.29231305e-03 -1.31641694e+07],54,969.7023765440459
737,737,[ 1.52073532e+03  2.94327725e+02 -1.46432094e-02 -1.31641694e+07],64,969.5687601005006
738,738,[-2.02336573e+03  3.45383989e+02 -3.99301723e-03 -1.31641694e+07],153,966.8775033225351
739,739,[-2.18279416e+03  3.45383978e+02 -3.70940067e-03 -1.31641694e+07],601,966.991190703517
740,740,[-2.27142585e+03  3.45384197e+02 -3.63983347e-03 -1.31641694e+07],695,967.8497784795879
741,741,[-2.25238271e+03  3.45384128e+02 -3.40640557e-03 -1.31641694e+07],823,968.3598494914114
742,742,[-2.18268331e+03  3.46385806e+02 -2.94083911e-03 -1.31641694e+07],410,967.5223808276949
743,743,[-2.13057938e+03  3.46385052e+02 -2.91586153e-03 -1.31641694e+07],155,966.1560631147111
744,744,[-2.07396165e+03  3.46385370e+02 -3.01897101e-03 -1.31641694e+07],972,967.0764520682319
745,745,[-2.15338024e+03  3.45384307e+02 -3.10873822e-03 -1.31641694e+07],59,969.734196664214
746,746,[-2.10629425e+03  3.44383536e+02 -3.52644938e-03 -1.31641694e+07],208,971.053116538332
747,747,[-2.01372436e+03  3.45384418e+02 -3.94410749e-03 -1.31641694e+07],546,969.4084903242758
748,748,[-2.12811295e+03  3.45383995e+02 -3.79857192e-03 -1.31641694e+07],416,966.9553340685226
749,749,[-2.13945619e+03  3.47386383e+02 -3.18821378e-03 -1.31641694e+07],713,966.8603947861375
750,750,[-2.27839344e+03  3.45384290e+02 -3.54450484e-03 -1.31641694e+07],145,968.0597949729821
751,751,[-2.21934781e+03  3.44382962e+02 -3.25222551e-03 -1.31641694e+07],936,967.1994723825773
752,752,[-2.13900832e+03  3.44384235e+02 -3.45864782e-03 -1.31641694e+07],477,968.1657550705323
753,753,[-2.08291134e+03  3.46385139e+02 -3.30840074e-03 -1.31641694e+07],371,966.1091397412804
754,754,[-2.10787853e+03  3.45384021e+02 -3.84052647e-03 -1.31641694e+07],887,967.8340288690894
755,755,[-2.17926583e+03  3.45385032e+02 -3.93738014e-03 -1.31641694e+07],931,967.721099874808
756,756,[-2.10522564e+03  3.45384541e+02 -3.69413482e-03 -1.31641694e+07],888,968.5914352614908
757,757,[-2.14855130e+03  3.46384941e+02 -3.09015452e-03 -1.31641694e+07],734,967.7889506179979
758,758,[-2.08824383e+03  3.45384365e+02 -3.05291131e-03 -1.31641694e+07],458,965.5601460078523
759,759,[-2.14621623e+03  3.45384313e+02 -3.23367193e-03 -1.31641694e+07],34,966.9846206265703
760,760,[-2.09167143e+03  3.46385356e+02 -3.05624708e-03 -1.31641694e+07],473,968.557674039675
761,761,[-2.07666402e+03  3.48387407e+02 -3.04648043e-03 -1.31641694e+07],708,964.4053418658738
762,762,[-2.15099259e+03  3.47387246e+02 -3.47994916e-03 -1.31641694e+07],425,962.8319449034273
763,763,[-2.12046663e+03  3.46385200e+02 -2.94486142e-03 -1.31641694e+07],336,964.9268834925649
764,764,[-2.20204472e+03  3.45383872e+02 -3.02109317e-03 -1.31641694e+07],424,966.9250693126714
765,765,[-2.14969489e+03  3.45383781e+02 -2.87127127e-03 -1.31641694e+07],866,960.5256674808282
766,766,[-2.09872863e+03  3.45383799e+02 -2.87685197e-03 -1.31641694e+07],758,963.0577388484813
767,767,[-2.10093647e+03  3.46385188e+02 -3.07315348e-03 -1.31641694e+07],538,968.1871451541358
768,768,[-2.09029301e+03  3.46385282e+02 -3.27286927e-03 -1.31641694e+07],735,970.5819492359932
769,769,[-2.13535208e+03  3.45384188e+02 -3.43811937e-03 -1.31641694e+07],409,970.7573236090291
770,770,[-2.07226599e+03  3.45383867e+02 -3.69891173e-03 -1.31641694e+07],80,968.9018108186748
771,771,[-2.06548796e+03  3.48387272e+02 -3.17330008e-03 -1.31641694e+07],437,963.2553809615473
772,772,[-2.09501186e+03  3.47386019e+02 -2.83414507e-03 -1.31641694e+07],855,969.0295774567529
773,773,[-2.00456348e+03  3.46385173e+02 -2.94245743e-03 -1.31641694e+07],33,968.5777234464576
774,774,[-2.08880046e+03  3.45384260e+02 -2.93233820e-03 -1.31641694e+07],82,965.9480749207194
775,775,[-2.04328086e+03  3.44382658e+02 -3.22409309e-03 -1.31641694e+07],666,965.3184466893389
776,776,[-2.12154063e+03  3.46385038e+02 -3.18016231e-03 -1.31641694e+07],910,967.1274246581597
777,777,[-2.03062015e+03  3.46385510e+02 -3.38384745e-03 -1.31641694e+07],267,968.8640297548159
778,778,[-2.16047263e+03  3.45384498e+02 -3.65112165e-03 -1.31641694e+07],733,969.0664352876637
779,779,[-2.17132111e+03  3.45385373e+02 -3.66617395e-03 -1.31641694e+07],203,968.5669926960284
780,780,[-2.12376697e+03  3.47386036e+02 -3.13845441e-03 -1.31641694e+07],795,968.1908473533675
781,781,[-2.30642725e+03  3.45383780e+02 -3.78349741e-03 -1.31641694e+07],896,967.9654592436613
782,782,[-2.20317908e+03  3.44382718e+02 -3.27243319e-03 -1.31641694e+07],672,968.6307776505658
783,783,[-2.10118996e+03  3.45384348e+02 -2.90435241e-03 -1.31641694e+07],165,962.8587757063974
784,784,[-2.08688337e+03  3.44382697e+02 -3.09452501e-03 -1.31641694e+07],217,961.990159707388
785,785,[-2.00609247e+03  3.45383868e+02 -2.92470450e-03 -1.31641694e+07],543,962.1429760645424
786,786,[-2.00727422e+03  3.45383925e+02 -3.32539250e-03 -1.31641694e+07],526,968.0235977573753
787,787,[-2.05107575e+03  3.48387407e+02 -2.95701177e-03 -1.31641694e+07],775,969.1020034829698
788,788,[-2.11248362e+03  3.46385681e+02 -3.52503215e-03 -1.31641694e+07],930,968.5143271758925
789,789,[-2.07081753e+03  3.46385414e+02 -3.36235598e-03 -1.31641694e+07],22,970.574101727064
790,790,[-2.06446346e+03  3.46385858e+02 -3.23652424e-03 -1.31641694e+07],167,970.7783060164534
791,791,[-2.20879534e+03  3.46384937e+02 -3.46946489e-03 -1.31641694e+07],801,969.4587182256483
792,792,[-2.14146430e+03  3.47386152e+02 -3.35648333e-03 -1.31641694e+07],919,968.1454248657813
793,793,[-2.30001177e+03  3.45383769e+02 -3.55015433e-03 -1.31641694e+07],198,970.0464757590133
794,794,[-2.05171977e+03  3.46385730e+02 -3.04662185e-03 -1.31641694e+07],468,968.1589333231204
795,795,[-2.16434371e+03  3.46384936e+02 -3.24070075e-03 -1.31641694e+07],730,965.4357275402151
796,796,[-2.00468079e+03  3.44384072e+02 -3.65813107e-03 -1.31641694e+07],199,968.9128863279376
797,797,[-2.15202026e+03  3.47386226e+02 -3.17277959e-03 -1.31641694e+07],282,969.0033033712133
798,798,[-2.06097611e+03  3.48387263e+02 -2.93099815e-03 -1.31641694e+07],565,968.7580338023887
799,799,[-2.12171082e+03  3.46385147e+02 -2.94698161e-03 -1.31641694e+07],925,968.9351864262076
800,800,[-2.17252464e+03  3.45384247e+02 -2.96273522e-03 -1.31641694e+07],131,965.8961190933833
801,801,[-2.08943082e+03  3.46384998e+02 -2.81763327e-03 -1.31641694e+07],551,965.275702268052
802,802,[-2.09737820e+03  3.46385091e+02 -3.24500256e-03 -1.31641694e+07],939,968.6587869464474
803,803,[-2.11535371e+03  3.45383929e+02 -3.73735960e-03 -1.31641694e+07],835,969.9012886498482
804,804,[-2.05136984e+03  3.48387228e+02 -3.00765443e-03 -1.31641694e+07],120,966.589213789455
805,805,[-2.17810207e+03  3.46385028e+02 -3.33270976e-03 -1.31641694e+07],501,969.0582567276041
806,806,[-2.07736264e+03  3.48387164e+02 -3.07453694e-03 -1.31641694e+07],671,964.2864417630205
807,807,[-2.10948747e+03  3.47387454e+02 -3.09537019e-03 -1.31641694e+07],578,968.2122192426607
808,808,[-2.15560715e+03  3.47386143e+02 -2.82568269e-03 -1.31641694e+07],372,968.2329873923504
809,809,[-2.23139724e+03  3.46385292e+02 -2.88060769e-03 -1.31641694e+07],138,967.6245905894868
810,810,[-2.10344026e+03  3.47386954e+02 -2.61753228e-03 -1.31641694e+07],96,964.605413233148
811,811,[-2.07002451e+03  3.46384937e+02 -2.41265237e-03 -1.31641694e+07],876,962.6669832319602
812,812,[-2.15390057e+03  3.46385106e+02 -3.07855721e-03 -1.31641694e+07],108,967.4576182143192
813,813,[-2.04223543e+03  3.48387647e+02 -2.95274547e-03 -1.31641694e+07],763,967.1149553683862
814,814,[-2.11203367e+03  3.46385193e+02 -3.17172399e-03 -1.31641694e+07],975,968.5143299003192
815,815,[-2.13901210e+03  3.47386410e+02 -3.17117217e-03 -1.31641694e+07],166,966.9928918042353
816,816,[-2.13374542e+03  3.47386083e+02 -3.14440720e-03 -1.31641694e+07],275,968.151813605533
817,817,[-2.35957702e+03  3.45383933e+02 -3.68047065e-03 -1.31641694e+07],918,969.1316922632096
818,818,[-2.08476640e+03  3.48387329e+02 -2.99885295e-03 -1.31641694e+07],615,969.0958773080275
819,819,[-2.23400793e+03  3.46384983e+02 -3.10445355e-03 -1.31641694e+07],682,967.7747339137863
820,820,[-2.05114815e+03  3.48387111e+02 -2.72198449e-03 -1.31641694e+07],200,965.8883557165871
821,821,[-2.20718565e+03  3.45384485e+02 -2.90195601e-03 -1.31641694e+07],954,963.8640359444537
822,822,[-2.19456023e+03  3.46385050e+02 -2.85120841e-03 -1.31641694e+07],137,963.9167597426152
823,823,[-2.24043538e+03  3.45384010e+02 -3.14529742e-03 -1.31641694e+07],562,965.8213067208188
824,824,[-2.12810293e+03  3.46386199e+02 -3.17879518e-03 -1.31641694e+07],212,969.1243304585159
825,825,[-2.11768557e+03  3.47386138e+02 -3.18738418e-03 -1.31641694e+07],519,968.76692874015
826,826,[-2.18170261e+03  3.46385247e+02 -3.20321682e-03 -1.31641694e+07],362,969.5427898132662
827,827,[-2.09624298e+03  3.45383935e+02 -3.21690320e-03 -1.31641694e+07],115,969.686240541917
828,828,[-2.12892861e+03  3.46385690e+02 -3.20350406e-03 -1.31641694e+07],99,967.60223888136
829,829,[-2.11019971e+03  3.47386138e+02 -3.16451897e-03 -1.31641694e+07],181,966.9577668276647
830,830,[-2.09418838e+03  3.48387416e+02 -3.15156169e-03 -1.31641694e+07],9,963.56749099368
831,831,[-2.08163795e+03  3.48387919e+02 -3.00194552e-03 -1.31641694e+07],705,967.7917770562191
832,832,[-2.27881126e+03  3.45384193e+02 -3.41128941e-03 -1.31641694e+07],810,969.708804939205
833,833,[-2.23649174e+03  3.46385414e+02 -2.92653969e-03 -1.31641694e+07],334,968.2705512082335
834,834,[-2.15655917e+03  3.45383792e+02 -2.93282325e-03 -1.31641694e+07],840,962.4632050018733
835,835,[-2.12795878e+03  3.46385303e+02 -3.01650793e-03 -1.31641694e+07],258,965.0739623338419
836,836,[-2.08975902e+03  3.45384444e+02 -3.25481453e-03 -1.31641694e+07],360,966.4053325301084
837,837,[-2.10170803e+03  3.46385570e+02 -3.28993607e-03 -1.31641694e+07],481,967.9911401016404
838,838,[-2.21929534e+03  3.45383826e+02 -3.72832707e-03 -1.31641694e+07],976,967.9358535113523
839,839,[-2.21436249e+03  3.45383918e+02 -3.84950771e-03 -1.31641694e+07],392,968.2723877727858
840,840,[-2.09003481e+03  3.48387609e+02 -3.13395703e-03 -1.31641694e+07],761,964.5772987348666
841,841,[-2.16565099e+03  3.47386116e+02 -3.26664820e-03 -1.31641694e+07],561,967.1737087534759
842,842,[-2.22563256e+03  3.45383837e+02 -3.50898339e-03 -1.31641694e+07],147,969.8052279536062
843,843,[-2.16527175e+03  3.46385022e+02 -3.02295578e-03 -1.31641694e+07],913,967.7728469829145
844,844,[-2.04434870e+03  3.45384851e+02 -2.82449844e-03 -1.31641694e+07],139,961.7435592124418
845,845,[-2.09889851e+03  3.46385059e+02 -3.17491599e-03 -1.31641694e+07],845,964.3145885317437
846,846,[-2.10877363e+03  3.46385468e+02 -3.29265944e-03 -1.31641694e+07],146,968.5279399084671
847,847,[-2.18933100e+03  3.44382836e+02 -3.59550362e-03 -1.31641694e+07],806,969.4468898775364
848,848,[-2.20182074e+03  3.45383890e+02 -3.52902681e-03 -1.31641694e+07],383,969.4203941056256
849,849,[-2.16337352e+03  3.45383880e+02 -3.59059750e-03 -1.31641694e+07],161,968.8231528630084
850,850,[-2.12296575e+03  3.46385357e+02 -3.60334505e-03 -1.31641694e+07],231,967.0474804984391
851,851,[-2.18897086e+03  3.47386499e+02 -3.41636227e-03 -1.31641694e+07],927,966.6473860685682
852,852,[-2.11169082e+03  3.47386368e+02 -2.85626248e-03 -1.31641694e+07],893,969.5988744035917
853,853,[-2.20814767e+03  3.46385080e+02 -3.36426803e-03 -1.31641694e+07],948,968.9334248809978
854,854,[-2.20995668e+03  3.45383984e+02 -3.13193553e-03 -1.31641694e+07],967,968.2103042396983
855,855,[-2.15832868e+03  3.46385110e+02 -2.94630770e-03 -1.31641694e+07],428,965.507334585218
856,856,[-2.10989622e+03  3.46385755e+02 -3.13735028e-03 -1.31641694e+07],718,966.7304061196845
857,857,[-2.07176459e+03  3.46384950e+02 -3.14888030e-03 -1.31641694e+07],461,968.1182930962318
858,858,[-2.03881847e+03  3.46385163e+02 -3.23239825e-03 -1.31641694e+07],179,968.7076988766352
859,859,[-2.05907051e+03  3.48387750e+02 -3.09170353e-03 -1.31641694e+07],593,965.9200112254666
860,860,[-2.10306509e+03  3.48387151e+02 -3.15289538e-03 -1.31641694e+07],136,963.5548632543685
861,861,[-2.15473515e+03  3.47386061e+02 -3.02320620e-03 -1.31641694e+07],547,967.97071061727
862,862,[-2.17065905e+03  3.46384988e+02 -3.08460431e-03 -1.31641694e+07],343,970.3047011413574
863,863,[-2.09231815e+03  3.46385844e+02 -3.16331316e-03 -1.31641694e+07],152,968.7728411328625
864,864,[-2.16185340e+03  3.46385673e+02 -3.21164973e-03 -1.31641694e+07],435,961.8419982886089
865,865,[-2.03362527e+03  3.45383985e+02 -3.88487278e-03 -1.31641694e+07],112,968.1132108511209
866,866,[-2.15012048e+03  3.47386556e+02 -3.18656172e-03 -1.31641694e+07],822,965.5621688960157
867,867,[-2.15238789e+03  3.46385246e+02 -3.50982446e-03 -1.31641694e+07],107,967.2018156120128
868,868,[-2.18696138e+03  3.46385420e+02 -3.15202471e-03 -1.31641694e+07],591,968.9688033140518
869,869,[-2.14920341e+03  3.46384944e+02 -3.04873639e-03 -1.31641694e+07],821,969.5030956333998
870,870,[-2.10029745e+03  3.46385529e+02 -2.83049929e-03 -1.31641694e+07],77,969.3602601783796
871,871,[-2.09687357e+03  3.44382670e+02 -3.33951883e-03 -1.31641694e+07],964,966.3186700433528
872,872,[-2.06810357e+03  3.46385350e+02 -3.23580463e-03 -1.31641694e+07],441,966.0194111120205
873,873,[-2.04098678e+03  3.45384137e+02 -3.32678140e-03 -1.31641694e+07],118,970.6332382900749
874,874,[-2.12712567e+03  3.45384486e+02 -3.54554552e-03 -1.31641694e+07],651,970.3442168936413
875,875,[-2.13396608e+03  3.45383975e+02 -3.68659236e-03 -1.31641694e+07],39,969.1803507027582
876,876,[-2.11847003e+03  3.46385121e+02 -3.45580842e-03 -1.31641694e+07],415,965.0158616713697
877,877,[ 2.01304516e+03  2.96329815e+02 -1.37968501e-02 -1.31641694e+07],530,962.174191043458
878,878,[-2.03426320e+03  3.45383836e+02 -3.38899372e-03 -1.31641694e+07],157,968.1256572876829
879,879,[-2.01519295e+03  3.44382785e+02 -3.39941544e-03 -1.31641694e+07],710,967.2333049090116
880,880,[-2.00871668e+03  3.46384983e+02 -3.09977382e-03 -1.31641694e+07],204,966.169874235612
881,881,[ 1.59642445e+03  2.94327079e+02 -1.43363651e-02 -1.31641694e+07],230,969.9251581229981
882,882,[-2.06356844e+03  3.44383346e+02 -3.98855868e-03 -1.31641694e+07],30,970.5251184009176
883,883,[-2.15362814e+03  3.45383936e+02 -3.64377607e-03 -1.31641694e+07],684,970.098515919191
884,884,[-2.10565789e+03  3.45384024e+02 -3.99099440e-03 -1.31641694e+07],579,968.0607851264795
885,885,[-2.07005575e+03  3.48388587e+02 -3.01513445e-03 -1.31641694e+07],830,968.2723000293485
886,886,[-2.14511935e+03  3.46385239e+02 -3.05007740e-03 -1.31641694e+07],860,968.313654157358
887,887,[-2.17687229e+03  3.45383949e+02 -3.06331711e-03 -1.31641694e+07],365,965.6945057566172
888,888,[-2.09132586e+03  3.45384029e+02 -3.33053946e-03 -1.31641694e+07],98,965.6697916994104
889,889,[-2.11309728e+03  3.46385460e+02 -3.02858533e-03 -1.31641694e+07],154,967.7155393704359
890,890,[-1.95893376e+03  3.46385075e+02 -2.96365258e-03 -1.31641694e+07],31,970.0286302038988
891,891,[-2.02703026e+03  3.45384758e+02 -3.82055603e-03 -1.31641694e+07],657,970.4571311074309
892,892,[-2.15888392e+03  3.45383836e+02 -3.83212294e-03 -1.31641694e+07],97,967.6889458385042
893,893,[-2.13671719e+03  3.46384981e+02 -3.89864716e-03 -1.31641694e+07],221,964.2167832534869
894,894,[-2.11862824e+03  3.46385464e+02 -3.09803244e-03 -1.31641694e+07],178,969.0269001982525
895,895,[-2.04752708e+03  3.45383952e+02 -3.16600500e-03 -1.31641694e+07],102,969.1981958148065
896,896,[-2.09167372e+03  3.45383834e+02 -2.93698176e-03 -1.31641694e+07],92,965.4170296230174
897,897,[-2.18090670e+03  3.44383196e+02 -3.24326235e-03 -1.31641694e+07],57,961.0719963778537
898,898,[-2.11434712e+03  3.46385136e+02 -3.34688024e-03 -1.31641694e+07],313,966.4411628951493
899,899,[-2.03371162e+03  3.46385292e+02 -3.35806411e-03 -1.31641694e+07],771,969.9969174179835
900,900,[-2.11304182e+03  3.47386484e+02 -3.10901656e-03 -1.31641694e+07],134,969.9774059597556
901,901,[-2.06985633e+03  3.48388222e+02 -3.01381953e-03 -1.31641694e+07],119,968.9792431877793
902,902,[-2.11504539e+03  3.46385213e+02 -3.08458584e-03 -1.31641694e+07],506,970.0244809713417
903,903,[-2.10840484e+03  3.46386414e+02 -3.16189811e-03 -1.31641694e+07],537,967.7817370333643
904,904,[-2.12521244e+03  3.45383867e+02 -2.98690348e-03 -1.31641694e+07],944,961.6915231684166
905,905,[-2.09378316e+03  3.46384997e+02 -3.08238296e-03 -1.31641694e+07],125,966.2279011513973
906,906,[-2.02174367e+03  3.46384931e+02 -3.12434500e-03 -1.31641694e+07],766,970.0012816377596
907,907,[-2.08301441e+03  3.45384016e+02 -3.81757561e-03 -1.31641694e+07],55,969.1815953999602
908,908,[-2.19393695e+03  3.45384387e+02 -3.86045646e-03 -1.31641694e+07],502,967.932249195219
909,909,[-2.15763228e+03  3.46384888e+02 -3.57506299e-03 -1.31641694e+07],685,966.595170343923
910,910,[-2.09210045e+03  3.48387157e+02 -3.06925895e-03 -1.31641694e+07],963,965.4800587692071
911,911,[-2.15151817e+03  3.46385382e+02 -3.25246306e-03 -1.31641694e+07],724,969.1878947829094
912,912,[-2.08862395e+03  3.46385245e+02 -3.02906892e-03 -1.31641694e+07],518,967.1348729482356
913,913,[-2.13504721e+03  3.46384913e+02 -3.04822330e-03 -1.31641694e+07],101,964.3505265540495
914,914,[-2.07201261e+03  3.46385142e+02 -3.10671170e-03 -1.31641694e+07],164,967.7461138595747
915,915,[-2.09389272e+03  3.46385040e+02 -3.25445724e-03 -1.31641694e+07],73,968.581182311934
916,916,[-2.09925937e+03  3.46385162e+02 -3.19871705e-03 -1.31641694e+07],783,969.5395687600192
917,917,[-2.22612458e+03  3.44382954e+02 -3.65642354e-03 -1.31641694e+07],534,967.9133665696875
918,918,[-2.17791707e+03  3.47386446e+02 -3.38019031e-03 -1.31641694e+07],762,964.8783929793327
919,919,[-2.15850700e+03  3.47386441e+02 -3.15047136e-03 -1.31641694e+07],8,965.2297863756257
920,920,[-2.14748187e+03  3.46385470e+02 -3.01291707e-03 -1.31641694e+07],699,967.8483938210154
921,921,[-2.12526529e+03  3.46386085e+02 -2.97794062e-03 -1.31641694e+07],700,969.2913882404825
922,922,[-2.10262954e+03  3.45383798e+02 -3.10700581e-03 -1.31641694e+07],135,967.3497932698526
923,923,[-2.05075775e+03  3.46385193e+02 -3.07440664e-03 -1.31641694e+07],253,966.039442984347
924,924,[-2.11153649e+03  3.45385418e+02 -3.78610951e-03 -1.31641694e+07],240,968.6017535450717
925,925,[-2.02929872e+03  3.46385482e+02 -3.52766544e-03 -1.31641694e+07],306,965.154322883827
926,926,[-2.10601594e+03  3.45384878e+02 -3.87973567e-03 -1.31641694e+07],811,967.9433598824772
927,927,[-2.12011206e+03  3.46384999e+02 -3.63633563e-03 -1.31641694e+07],144,964.2293060064885
928,928,[-2.07420356e+03  3.48387424e+02 -3.02709206e-03 -1.31641694e+07],23,966.0875888021899
929,929,[-2.13227405e+03  3.46385047e+02 -3.05294454e-03 -1.31641694e+07],834,968.7308507360613
930,930,[-2.04850159e+03  3.45383894e+02 -2.81748881e-03 -1.31641694e+07],574,965.2915830733219
931,931,[-2.08211079e+03  3.46385453e+02 -3.16035387e-03 -1.31641694e+07],709,965.6893642026963
932,932,[-2.09300302e+03  3.45384740e+02 -3.69961118e-03 -1.31641694e+07],493,967.655639372455
933,933,[-2.12402910e+03  3.45384271e+02 -3.78964071e-03 -1.31641694e+07],117,967.9950509465542
934,934,[-2.11644142e+03  3.45384106e+02 -3.78064738e-03 -1.31641694e+07],192,969.455091962825
935,935,[-2.20220431e+03  3.45383789e+02 -4.08818552e-03 -1.31641694e+07],535,966.9425429272021
936,936,[-2.07006303e+03  3.48387365e+02 -3.12704274e-03 -1.31641694e+07],877,965.724486418436
937,937,[-2.08738362e+03  3.46385508e+02 -3.16782950e-03 -1.31641694e+07],510,969.6311150263607
938,938,[-2.06412766e+03  3.46385227e+02 -3.09924132e-03 -1.31641694e+07],785,967.6556439801276
939,939,[-2.07893964e+03  3.45384005e+02 -3.58220992e-03 -1.31641694e+07],558,965.0805659512993
940,940,[ 4.77705755e+03  2.94327053e+02 -1.54725180e-02 -1.31641694e+07],25,968.0699776150739
941,941,[-2.10940073e+03  3.44383233e+02 -3.72366819e-03 -1.31641694e+07],784,970.3297348078006
942,942,[-2.06553181e+03  3.46385124e+02 -3.47025752e-03 -1.31641694e+07],864,968.7041981982538
943,943,[-2.07964777e+03  3.45383905e+02 -3.85308923e-03 -1.31641694e+07],844,968.2832408003031
944,944,[-2.00600774e+03  3.49388377e+02 -3.06489738e-03 -1.31641694e+07],904,963.0729416787755
945,945,[-2.06170386e+03  3.48387305e+02 -2.91155980e-03 -1.31641694e+07],363,968.7566472181259
946,946,[-2.07206656e+03  3.46386856e+02 -3.13568766e-03 -1.31641694e+07],364,968.8867086848304
947,947,[-2.08793171e+03  3.45384740e+02 -3.53185880e-03 -1.31641694e+07],110,966.2962059305208
948,948,[-2.05277674e+03  3.46384963e+02 -3.11035228e-03 -1.31641694e+07],129,964.2126760662524
949,949,[-2.11196475e+03  3.47386206e+02 -3.04345311e-03 -1.31641694e+07],480,966.2203536753918
950,950,[-2.06400753e+03  3.46385209e+02 -3.38432789e-03 -1.31641694e+07],897,969.5062175659405
951,951,[-2.13117308e+03  3.46385150e+02 -3.52225097e-03 -1.31641694e+07],128,967.3512701784032
952,952,[-2.15103057e+03  3.45384239e+02 -3.74207175e-03 -1.31641694e+07],642,970.364332781109
953,953,[-2.14802435e+03  3.45384420e+02 -3.93609463e-03 -1.31641694e+07],162,969.1775236046984
954,954,[-2.08084511e+03  3.48387580e+02 -3.23666055e-03 -1.31641694e+07],765,964.7673556693488
955,955,[-2.12144286e+03  3.47386139e+02 -3.27140477e-03 -1.31641694e+07],63,968.6192088354576
956,956,[-2.13767980e+03  3.46385598e+02 -3.25158506e-03 -1.31641694e+07],78,968.8578680754184
957,957,[-2.03015444e+03  3.45384604e+02 -3.10914568e-03 -1.31641694e+07],26,966.3025058192102
958,958,[-2.06716903e+03  3.46384879e+02 -3.16378561e-03 -1.31641694e+07],79,968.6261345904901
959,959,[-2.12468300e+03  3.45383812e+02 -3.48166712e-03 -1.31641694e+07],569,969.9955716965978
960,960,[-1.93848261e+03  3.45384225e+02 -3.37686605e-03 -1.31641694e+07],126,970.6081835050743
961,961,[-2.00254252e+03  3.45384268e+02 -3.91671322e-03 -1.31641694e+07],62,969.3192733978835
962,962,[-2.02709457e+03  3.45384207e+02 -3.91629686e-03 -1.31641694e+07],0,970.4595927471754
963,963,[-2.06948543e+03  3.48387097e+02 -3.26908219e-03 -1.31641694e+07],257,962.9722457884315
964,964,[-2.16037550e+03  3.46385104e+02 -3.73077970e-03 -1.31641694e+07],56,963.8252647972064
965,965,[-2.10327389e+03  3.47386409e+02 -3.22125319e-03 -1.31641694e+07],634,968.2115407620347
966,966,[-2.10204196e+03  3.47386001e+02 -2.95337361e-03 -1.31641694e+07],40,967.6301776577262
967,967,[-2.14852183e+03  3.45383887e+02 -3.16385555e-03 -1.31641694e+07],182,964.166629615779
968,968,[-2.05486609e+03  3.45383905e+02 -3.70136630e-03 -1.31641694e+07],127,968.0198998518247
969,969,[-1.93660069e+03  3.45384622e+02 -3.37511110e-03 -1.31641694e+07],163,970.399385809999
970,970,[-2.01969119e+03  3.44382761e+02 -3.98557596e-03 -1.31641694e+07],87,970.2502424049308
971,971,[-2.06136433e+03  3.45384428e+02 -3.91077117e-03 -1.31641694e+07],91,969.8163039969246
972,972,[-2.10840925e+03  3.46385961e+02 -3.81051909e-03 -1.31641694e+07],88,965.7986708234858
973,973,[-2.12008712e+03  3.47386858e+02 -3.31532083e-03 -1.31641694e+07],89,967.9105193327135
974,974,[-2.14159181e+03  3.45384841e+02 -3.27035551e-03 -1.31641694e+07],90,968.7657611066733
975,975,[-2.04262506e+03  3.46385106e+02 -2.79771125e-03 -1.31641694e+07],86,964.9222349357841
976,976,[-2.12010301e+03  3.46386528e+02 -2.91832120e-03 -1.31641694e+07],84,964.4523371244627
977,977,[-1.99821463e+03  3.46384940e+02 -3.11421784e-03 -1.31641694e+07],85,966.122821844166
