,0,1,2,3
0,0,[-5.04311768e+03  3.34371567e+02 -7.01546055e-03 -1.31641694e+07],742,1074.4278997297047
1,1,[-4.69800949e+03  3.35372673e+02 -5.85905414e-03 -1.31641694e+07],566,1074.0869798134522
2,2,[-5.07585948e+03  3.34371618e+02 -7.32144477e-03 -1.31641694e+07],572,1071.4094841077047
3,3,[-3.85854536e+03  3.37374908e+02 -4.90398678e-03 -1.31641694e+07],485,1071.1906580404827
4,4,[-3.93104674e+03  3.37375068e+02 -4.87460999e-03 -1.31641694e+07],261,1072.7077299171715
5,5,[-4.61899537e+03  3.35372837e+02 -5.96145011e-03 -1.31641694e+07],773,1073.1686609961655
6,6,[-3.85316329e+03  3.37375258e+02 -4.84825878e-03 -1.31641694e+07],438,1073.6639438605725
7,7,[-3.93469647e+03  3.37374946e+02 -4.77966315e-03 -1.31641694e+07],487,1073.951198048115
8,8,[-3.89068207e+03  3.37375407e+02 -4.82822341e-03 -1.31641694e+07],647,1074.0967846306135
9,9,[-4.15858214e+03  3.36373866e+02 -5.17168414e-03 -1.31641694e+07],609,1073.8084567875173
10,10,[-3.69816694e+03  3.38376070e+02 -4.14095977e-03 -1.31641694e+07],615,1074.1791396381925
11,11,[-4.66328474e+03  3.35372675e+02 -5.65873197e-03 -1.31641694e+07],445,1074.480585919991
12,12,[-4.16885528e+03  3.36373790e+02 -4.80437832e-03 -1.31641694e+07],467,1073.6109997922147
13,13,[-3.97904246e+03  3.37375108e+02 -4.49882786e-03 -1.31641694e+07],612,1074.336861041821
14,14,[-5.02147797e+03  3.34371711e+02 -6.91145101e-03 -1.31641694e+07],334,1072.5569559416247
15,15,[-4.51703617e+03  3.35372908e+02 -5.79430884e-03 -1.31641694e+07],604,1072.8559842980337
16,16,[-3.89125166e+03  3.37374894e+02 -4.87702772e-03 -1.31641694e+07],734,1072.2557915632244
17,17,[-3.72383756e+03  3.38376592e+02 -4.18404798e-03 -1.31641694e+07],798,1073.0333285840557
18,18,[-4.68275386e+03  3.35372684e+02 -5.87904179e-03 -1.31641694e+07],605,1074.0171699203322
19,19,[-4.68610973e+03  3.35372665e+02 -5.40655747e-03 -1.31641694e+07],58,1073.9043233417044
20,20,[-5.15938743e+03  3.34371692e+02 -6.77369882e-03 -1.31641694e+07],847,1074.334266246134
21,21,[-5.29607769e+03  3.33370573e+02 -7.16198216e-03 -1.31641694e+07],826,1074.7563915625697
22,22,[-4.44946275e+03  3.35372720e+02 -5.59704801e-03 -1.31641694e+07],474,1074.4930004763562
23,23,[-4.97070197e+03  3.34371524e+02 -6.95995204e-03 -1.31641694e+07],557,1072.3241367624105
24,24,[-3.54723592e+03  3.38376018e+02 -4.35466911e-03 -1.31641694e+07],236,1072.803566646931
25,25,[-4.58639519e+03  3.35372688e+02 -6.37882108e-03 -1.31641694e+07],449,1072.1619150718907
26,26,[-3.72097817e+03  3.38376320e+02 -4.16563249e-03 -1.31641694e+07],472,1072.2077956604232
27,27,[-4.89788254e+03  3.35372676e+02 -5.21429876e-03 -1.31641694e+07],614,1071.7853708204868
28,28,[-3.93293444e+03  3.37374947e+02 -4.46333696e-03 -1.31641694e+07],440,1073.1161919795024
29,29,[-4.97082446e+03  3.34371605e+02 -6.22524342e-03 -1.31641694e+07],569,1074.6244252858392
30,30,[-4.65458910e+03  3.34371783e+02 -6.05554122e-03 -1.31641694e+07],635,1074.2007583234222
31,31,[-4.55678264e+03  3.35372800e+02 -5.65745892e-03 -1.31641694e+07],470,1075.055943015728
32,32,[-5.02662454e+03  3.34371675e+02 -6.26561438e-03 -1.31641694e+07],191,1072.6068613761654
33,33,[-3.84710455e+03  3.37375369e+02 -4.74466579e-03 -1.31641694e+07],477,1072.3019059206947
34,34,[-4.57544765e+03  3.35372733e+02 -5.82740997e-03 -1.31641694e+07],746,1072.3370115928342
35,35,[-3.89373904e+03  3.37374897e+02 -4.81814405e-03 -1.31641694e+07],692,1073.1565440879986
36,36,[-3.70901371e+03  3.38376005e+02 -4.14656972e-03 -1.31641694e+07],650,1073.0569835693004
37,37,[-3.99841677e+03  3.37375065e+02 -4.63995597e-03 -1.31641694e+07],613,1073.513334085892
38,38,[-5.16776914e+03  3.34371574e+02 -6.80260148e-03 -1.31641694e+07],965,1074.0653408796643
39,39,[-5.04877615e+03  3.34371821e+02 -6.74972573e-03 -1.31641694e+07],246,1074.9178877809918
40,40,[-4.88837259e+03  3.34371712e+02 -6.55953586e-03 -1.31641694e+07],275,1075.2512399893496
41,41,[-4.49487106e+03  3.35372655e+02 -5.60971438e-03 -1.31641694e+07],471,1074.4353590037072
42,42,[-5.08812074e+03  3.34371654e+02 -7.14139588e-03 -1.31641694e+07],831,1072.9928171335323
43,43,[-5.06646214e+03  3.34371554e+02 -7.12707933e-03 -1.31641694e+07],624,1072.138476844868
44,44,[-4.04908304e+03  3.37374949e+02 -4.89821704e-03 -1.31641694e+07],882,1072.8972055655743
45,45,[-4.76664071e+03  3.35372717e+02 -6.16380236e-03 -1.31641694e+07],435,1073.0653242117764
46,46,[-4.67333009e+03  3.35372767e+02 -5.60169352e-03 -1.31641694e+07],575,1073.8381086270915
47,47,[-4.57629898e+03  3.35372672e+02 -5.59745562e-03 -1.31641694e+07],725,1074.7402010367448
48,48,[-5.31890220e+03  3.33370533e+02 -7.41393010e-03 -1.31641694e+07],696,1074.9725950161767
49,49,[-4.18827649e+03  3.36373770e+02 -5.33386004e-03 -1.31641694e+07],564,1075.2522338415474
50,50,[-4.37294240e+03  3.35372970e+02 -5.66487408e-03 -1.31641694e+07],247,1074.5856450608276
51,51,[-4.33157663e+03  3.36373852e+02 -5.71404096e-03 -1.31641694e+07],819,1073.263383105475
52,52,[-4.54465729e+03  3.35372651e+02 -5.98556780e-03 -1.31641694e+07],768,1074.3463976158837
53,53,[-5.02779933e+03  3.34371590e+02 -7.17445728e-03 -1.31641694e+07],796,1073.9330632732424
54,54,[-4.77382925e+03  3.35372784e+02 -6.09445795e-03 -1.31641694e+07],967,1074.0351516392961
55,55,[-3.88408379e+03  3.37375090e+02 -4.41181640e-03 -1.31641694e+07],534,1074.2703862353412
56,56,[-5.13813978e+03  3.34371565e+02 -6.70995705e-03 -1.31641694e+07],568,1075.1526904502714
57,57,[-4.47604447e+03  3.35372645e+02 -5.65778556e-03 -1.31641694e+07],708,1075.4539988390568
58,58,[-4.91590023e+03  3.34371716e+02 -6.55298132e-03 -1.31641694e+07],714,1075.7760585572569
59,59,[-4.57179784e+03  3.35372812e+02 -5.72602763e-03 -1.31641694e+07],559,1075.2828338416973
60,60,[-4.11114643e+03  3.36373802e+02 -5.09043253e-03 -1.31641694e+07],237,1074.6182878202785
61,61,[-3.90840163e+03  3.37375111e+02 -5.03876584e-03 -1.31641694e+07],356,1073.1256756251944
62,62,[-4.69778588e+03  3.35372772e+02 -6.09190431e-03 -1.31641694e+07],567,1073.9826933720099
63,63,[-3.95832749e+03  3.37374991e+02 -4.62463969e-03 -1.31641694e+07],507,1074.2445605823425
64,64,[-4.56061534e+03  3.35372682e+02 -5.52662504e-03 -1.31641694e+07],475,1074.0379314636843
65,65,[-4.90965421e+03  3.34371820e+02 -6.57505786e-03 -1.31641694e+07],809,1075.22173979875
66,66,[-5.58579391e+03  3.33370564e+02 -6.93381475e-03 -1.31641694e+07],85,1073.9390587925782
67,67,[-5.48893385e+03  3.33370414e+02 -7.23481643e-03 -1.31641694e+07],505,1073.6914988515493
68,68,[-5.04857161e+03  3.34371608e+02 -7.38963630e-03 -1.31641694e+07],822,1073.7859311174932
69,69,[-4.16213420e+03  3.36373780e+02 -5.10663610e-03 -1.31641694e+07],821,1073.5316356032226
70,70,[-4.17303264e+03  3.36373799e+02 -5.10249890e-03 -1.31641694e+07],680,1073.67575451236
71,71,[-4.73607895e+03  3.35372776e+02 -5.80159675e-03 -1.31641694e+07],552,1074.6091947205148
72,72,[-4.72312878e+03  3.35372819e+02 -5.61568629e-03 -1.31641694e+07],583,1074.460641372443
73,73,[-4.91883285e+03  3.34371699e+02 -6.57464824e-03 -1.31641694e+07],491,1075.353379675851
74,74,[-4.85559692e+03  3.34371731e+02 -6.56960486e-03 -1.31641694e+07],216,1075.497155101431
75,75,[-5.34318636e+03  3.33370443e+02 -7.26506157e-03 -1.31641694e+07],1053,1075.2496680393472
76,76,[-3.88208687e+03  3.37375246e+02 -4.74959251e-03 -1.31641694e+07],542,1075.603642544621
77,77,[-4.83231818e+03  3.34371584e+02 -6.50656157e-03 -1.31641694e+07],280,1074.8989787933308
78,78,[-4.83966733e+03  3.34371620e+02 -7.08707583e-03 -1.31641694e+07],473,1075.1118057076615
79,79,[-3.87880235e+03  3.37375205e+02 -4.81469399e-03 -1.31641694e+07],781,1074.4740761773444
80,80,[-4.68980329e+03  3.35372809e+02 -5.74440157e-03 -1.31641694e+07],458,1073.8276647984183
81,81,[-4.58005815e+03  3.35372663e+02 -5.56168127e-03 -1.31641694e+07],553,1073.0429355535068
82,82,[-4.90748129e+03  3.34371769e+02 -6.43462563e-03 -1.31641694e+07],586,1074.8923820186706
83,83,[-4.80576769e+03  3.34371583e+02 -6.61889848e-03 -1.31641694e+07],466,1074.9717679382338
84,84,[-4.88480949e+03  3.34371742e+02 -6.53447023e-03 -1.31641694e+07],688,1075.6097048660201
85,85,[-4.92055501e+03  3.34371545e+02 -6.70264568e-03 -1.31641694e+07],795,1075.645212325071
86,86,[-4.75222228e+03  3.34371835e+02 -6.46887527e-03 -1.31641694e+07],484,1074.461264739466
87,87,[-3.97553680e+03  3.37374935e+02 -5.13010842e-03 -1.31641694e+07],637,1074.172950127968
88,88,[-4.13929786e+03  3.37375062e+02 -4.76897438e-03 -1.31641694e+07],84,1074.6003681818177
89,89,[-5.15723227e+03  3.34371557e+02 -6.74746312e-03 -1.31641694e+07],576,1074.1249040944733
90,90,[-4.90006356e+03  3.34371535e+02 -6.54575910e-03 -1.31641694e+07],799,1074.6025193132411
91,91,[-4.96193910e+03  3.34371639e+02 -6.29941266e-03 -1.31641694e+07],215,1075.2322658932446
92,92,[-5.59230467e+03  3.33370438e+02 -7.10454757e-03 -1.31641694e+07],854,1074.3753111382198
93,93,[-4.58802075e+03  3.35372803e+02 -5.89375281e-03 -1.31641694e+07],76,1075.4657846318603
94,94,[-3.89625866e+03  3.37375153e+02 -5.00367410e-03 -1.31641694e+07],563,1074.672836122889
95,95,[-4.05864479e+03  3.37374996e+02 -4.89233057e-03 -1.31641694e+07],426,1074.9966693474619
96,96,[-4.71635968e+03  3.35372643e+02 -6.03913506e-03 -1.31641694e+07],694,1074.9653329786117
97,97,[-3.54819407e+03  3.38376024e+02 -3.97197614e-03 -1.31641694e+07],726,1073.9055152594487
98,98,[-4.92609349e+03  3.34371534e+02 -6.53307868e-03 -1.31641694e+07],488,1075.3883302059446
99,99,[-4.91320670e+03  3.34371568e+02 -6.40532724e-03 -1.31641694e+07],629,1075.589062649434
100,100,[-4.96326688e+03  3.34371592e+02 -6.60188680e-03 -1.31641694e+07],558,1075.4326956336354
101,101,[-3.85050247e+03  3.37374985e+02 -5.00409730e-03 -1.31641694e+07],99,1074.722379842803
102,102,[-4.83086227e+03  3.34371632e+02 -6.68505275e-03 -1.31641694e+07],852,1075.0042610133994
103,103,[-4.54433278e+03  3.35372675e+02 -6.15099381e-03 -1.31641694e+07],519,1075.1012402523434
104,104,[-4.02009295e+03  3.37375020e+02 -4.71346803e-03 -1.31641694e+07],424,1074.4104180479048
105,105,[-4.01201771e+03  3.37375085e+02 -4.71367446e-03 -1.31641694e+07],872,1074.2225898406462
106,106,[-5.03880262e+03  3.34371545e+02 -6.49606780e-03 -1.31641694e+07],1025,1074.5743472591787
107,107,[-4.74850304e+03  3.34371587e+02 -6.21312610e-03 -1.31641694e+07],948,1075.0706307410164
108,108,[-4.68020994e+03  3.34371547e+02 -6.11901766e-03 -1.31641694e+07],573,1074.504022013153
109,109,[-4.44120522e+03  3.35372759e+02 -5.55490346e-03 -1.31641694e+07],984,1075.2145169718406
110,110,[-4.62799619e+03  3.35372663e+02 -5.38392827e-03 -1.31641694e+07],832,1074.1824201084128
111,111,[-4.52830598e+03  3.35372930e+02 -6.00696211e-03 -1.31641694e+07],871,1075.263599855041
112,112,[-4.15422281e+03  3.36373849e+02 -5.17942700e-03 -1.31641694e+07],776,1074.5615103829493
113,113,[-4.75199935e+03  3.35372663e+02 -5.78769423e-03 -1.31641694e+07],777,1073.403479608624
114,114,[-4.75149385e+03  3.35373026e+02 -5.56618798e-03 -1.31641694e+07],823,1071.5076833500707
115,115,[-3.93366493e+03  3.37374977e+02 -4.49256199e-03 -1.31641694e+07],905,1072.171065416941
116,116,[-4.69495673e+03  3.35372643e+02 -5.15631622e-03 -1.31641694e+07],523,1072.9485045056388
117,117,[-5.03006684e+03  3.34371668e+02 -6.73989423e-03 -1.31641694e+07],828,1074.5974029826846
118,118,[-4.64585219e+03  3.34371593e+02 -6.36274349e-03 -1.31641694e+07],883,1074.9320609020208
119,119,[-4.66036081e+03  3.35372645e+02 -5.39128254e-03 -1.31641694e+07],843,1074.1715965853077
120,120,[-4.62893847e+03  3.35372659e+02 -5.98088715e-03 -1.31641694e+07],480,1075.1486288916687
121,121,[-3.83620893e+03  3.37375021e+02 -4.92304825e-03 -1.31641694e+07],208,1075.0221142359933
122,122,[-4.35746306e+03  3.36374119e+02 -5.19159948e-03 -1.31641694e+07],582,1074.343542427368
123,123,[-4.71011459e+03  3.35372706e+02 -5.72731037e-03 -1.31641694e+07],1043,1073.2295752608397
124,124,[-4.79612175e+03  3.35372823e+02 -5.16137570e-03 -1.31641694e+07],579,1071.859473126396
125,125,[-5.11703896e+03  3.34371721e+02 -6.73537510e-03 -1.31641694e+07],749,1074.01914104248
126,126,[-4.73214929e+03  3.34371563e+02 -6.11665170e-03 -1.31641694e+07],245,1074.5753682751197
127,127,[-4.89578879e+03  3.34371653e+02 -6.49683608e-03 -1.31641694e+07],784,1075.0304826733338
128,128,[-4.62605521e+03  3.35372738e+02 -5.92443304e-03 -1.31641694e+07],527,1075.2142472728483
129,129,[-3.93064648e+03  3.37375053e+02 -4.91127862e-03 -1.31641694e+07],741,1075.0708869165076
130,130,[-4.46908132e+03  3.35372655e+02 -5.86581674e-03 -1.31641694e+07],695,1075.055029645868
131,131,[-4.52463845e+03  3.35372816e+02 -6.01927531e-03 -1.31641694e+07],225,1075.0592511899354
132,132,[-4.15241759e+03  3.37375045e+02 -4.91417239e-03 -1.31641694e+07],525,1073.5367099094806
133,133,[-3.67210931e+03  3.38376188e+02 -4.09493387e-03 -1.31641694e+07],285,1074.0772267626505
134,134,[-5.14745101e+03  3.34371533e+02 -6.76804645e-03 -1.31641694e+07],1033,1074.8448311769932
135,135,[-5.06844176e+03  3.34371628e+02 -6.90167101e-03 -1.31641694e+07],361,1074.9058313625146
136,136,[-5.13170759e+03  3.34371665e+02 -7.03729099e-03 -1.31641694e+07],902,1074.3443240756549
137,137,[-4.14297954e+03  3.37375015e+02 -4.70229377e-03 -1.31641694e+07],451,1074.7227738153465
138,138,[-4.97261803e+03  3.34371705e+02 -7.13440278e-03 -1.31641694e+07],248,1073.2800018556725
139,139,[-4.50554575e+03  3.35372760e+02 -6.04891920e-03 -1.31641694e+07],888,1073.7285455826343
140,140,[-3.73806200e+03  3.38376077e+02 -4.13237265e-03 -1.31641694e+07],453,1074.5551324451928
141,141,[-4.62022040e+03  3.35372637e+02 -5.69237842e-03 -1.31641694e+07],1032,1074.9112437359586
142,142,[-4.58484707e+03  3.35372678e+02 -5.78044766e-03 -1.31641694e+07],987,1075.3422523865763
143,143,[-4.47860778e+03  3.35372745e+02 -5.51373822e-03 -1.31641694e+07],631,1074.9159780225266
144,144,[-4.63465351e+03  3.35372657e+02 -5.78931503e-03 -1.31641694e+07],1046,1075.468377733122
145,145,[-4.96118194e+03  3.34371554e+02 -7.04098813e-03 -1.31641694e+07],701,1075.044548586633
146,146,[-4.60000268e+03  3.35372782e+02 -6.46628779e-03 -1.31641694e+07],211,1073.6960629519315
147,147,[-4.69933084e+03  3.35372832e+02 -5.89182095e-03 -1.31641694e+07],599,1074.937743228644
148,148,[-4.08322794e+03  3.37374944e+02 -4.83884332e-03 -1.31641694e+07],578,1074.732214770835
149,149,[-4.61869786e+03  3.35372956e+02 -5.56579119e-03 -1.31641694e+07],439,1075.0140130084167
150,150,[-4.68959024e+03  3.35372752e+02 -5.12764999e-03 -1.31641694e+07],627,1074.0117497770177
151,151,[-4.87136370e+03  3.34371545e+02 -6.63133504e-03 -1.31641694e+07],634,1075.286493683938
152,152,[-4.68705099e+03  3.35372747e+02 -5.35887753e-03 -1.31641694e+07],210,1073.631102001076
153,153,[-3.94852921e+03  3.37374898e+02 -4.81357705e-03 -1.31641694e+07],769,1074.3038931250555
154,154,[-4.64066712e+03  3.35372685e+02 -5.96157906e-03 -1.31641694e+07],318,1074.261811438815
155,155,[-3.71633763e+03  3.38376123e+02 -4.23198327e-03 -1.31641694e+07],737,1074.1255061914617
156,156,[-4.79617265e+03  3.35372677e+02 -6.25615470e-03 -1.31641694e+07],281,1073.7700170573678
157,157,[-3.94633805e+03  3.37374914e+02 -4.57668763e-03 -1.31641694e+07],957,1074.8727275618478
158,158,[-4.58571043e+03  3.35372649e+02 -5.55158699e-03 -1.31641694e+07],1045,1074.700522261191
159,159,[-4.60099111e+03  3.35372664e+02 -5.84017685e-03 -1.31641694e+07],842,1075.3227664541962
160,160,[-4.60436112e+03  3.35372656e+02 -6.11022239e-03 -1.31641694e+07],481,1074.5784444775366
161,161,[-4.71819043e+03  3.35372854e+02 -6.32720388e-03 -1.31641694e+07],513,1073.8987698146254
162,162,[-4.76848802e+03  3.35372656e+02 -6.11381286e-03 -1.31641694e+07],540,1074.5887178169166
163,163,[-4.69658534e+03  3.35372656e+02 -5.68752819e-03 -1.31641694e+07],962,1074.7475961054568
164,164,[-5.21264655e+03  3.34371548e+02 -6.84151914e-03 -1.31641694e+07],489,1075.227229840171
165,165,[-4.94774213e+03  3.34371563e+02 -6.37393406e-03 -1.31641694e+07],833,1074.449090327478
166,166,[-4.62565720e+03  3.35372645e+02 -5.97949133e-03 -1.31641694e+07],865,1074.3944331106256
167,167,[-4.63878963e+03  3.35372742e+02 -6.12362783e-03 -1.31641694e+07],900,1073.1058230129536
168,168,[-4.66870756e+03  3.35372724e+02 -6.00400867e-03 -1.31641694e+07],974,1073.7787686965908
169,169,[-4.28931798e+03  3.36373787e+02 -4.98541509e-03 -1.31641694e+07],890,1073.5106289183357
170,170,[-5.20040136e+03  3.34371542e+02 -6.92225953e-03 -1.31641694e+07],74,1074.2190833442214
171,171,[-3.96221084e+03  3.37375026e+02 -4.51022857e-03 -1.31641694e+07],508,1074.481095138459
172,172,[-5.11332582e+03  3.34371672e+02 -6.98247677e-03 -1.31641694e+07],590,1074.8146559403679
173,173,[-4.57466968e+03  3.35373036e+02 -5.88446641e-03 -1.31641694e+07],760,1075.1186117904745
174,174,[-3.91620858e+03  3.37375046e+02 -4.85181048e-03 -1.31641694e+07],896,1074.3797201291025
175,175,[-3.86672332e+03  3.37374967e+02 -4.91909540e-03 -1.31641694e+07],800,1073.6892528113615
176,176,[-4.74082593e+03  3.35372643e+02 -6.16494174e-03 -1.31641694e+07],824,1074.3632792752592
177,177,[-5.19260633e+03  3.34371721e+02 -6.90869773e-03 -1.31641694e+07],628,1074.484132783366
178,178,[-4.28313545e+03  3.36373853e+02 -5.45375475e-03 -1.31641694e+07],460,1073.8480110573503
179,179,[-5.07225385e+03  3.34371769e+02 -6.93243247e-03 -1.31641694e+07],533,1075.229473073359
180,180,[-3.62933584e+03  3.38376041e+02 -4.34146681e-03 -1.31641694e+07],704,1074.621978580157
181,181,[-4.58345855e+03  3.35372720e+02 -5.97319363e-03 -1.31641694e+07],1028,1074.6857907188544
182,182,[-4.02754904e+03  3.37374940e+02 -4.96617315e-03 -1.31641694e+07],541,1073.229173549558
183,183,[-4.74765001e+03  3.35372841e+02 -5.66430544e-03 -1.31641694e+07],610,1074.424325169216
184,184,[-4.63358724e+03  3.35372875e+02 -5.80513933e-03 -1.31641694e+07],829,1075.1136385579475
185,185,[-4.63120520e+03  3.35372771e+02 -6.08385238e-03 -1.31641694e+07],463,1075.1148447061064
186,186,[-3.93051395e+03  3.37375024e+02 -4.83016619e-03 -1.31641694e+07],535,1074.7759385890377
187,187,[-3.89959180e+03  3.37375078e+02 -4.86535745e-03 -1.31641694e+07],1066,1074.4902846907291
188,188,[-4.76699591e+03  3.35372670e+02 -6.01949317e-03 -1.31641694e+07],1008,1075.0082841624087
189,189,[-4.22955646e+03  3.36373750e+02 -4.92933504e-03 -1.31641694e+07],554,1074.396668959064
190,190,[-4.15075341e+03  3.36373761e+02 -5.00208286e-03 -1.31641694e+07],617,1074.8008358878153
191,191,[-5.11705954e+03  3.34371754e+02 -7.03628438e-03 -1.31641694e+07],144,1075.7360731765223
192,192,[-4.63368562e+03  3.35372986e+02 -6.26946479e-03 -1.31641694e+07],804,1075.393002041568
193,193,[-3.87984953e+03  3.37374900e+02 -4.87885198e-03 -1.31641694e+07],93,1075.248817363312
194,194,[-4.19027913e+03  3.36373848e+02 -4.95432992e-03 -1.31641694e+07],348,1073.856641785356
195,195,[-4.58895002e+03  3.35372740e+02 -5.76933759e-03 -1.31641694e+07],909,1075.445162808332
196,196,[-4.47643906e+03  3.35372833e+02 -5.53423887e-03 -1.31641694e+07],255,1074.8144473172522
197,197,[-4.06113777e+03  3.36373794e+02 -4.89478462e-03 -1.31641694e+07],238,1074.689587298569
198,198,[-4.57034997e+03  3.35372806e+02 -6.09768038e-03 -1.31641694e+07],1001,1075.004080634144
199,199,[-4.07803701e+03  3.37374995e+02 -4.94159505e-03 -1.31641694e+07],706,1072.5177552396947
200,200,[-4.58011310e+03  3.35372856e+02 -5.42536098e-03 -1.31641694e+07],861,1068.682085778025
201,201,[-4.66741423e+03  3.35372721e+02 -5.94205541e-03 -1.31641694e+07],600,1069.5148383876117
202,202,[-4.26244271e+03  3.36373827e+02 -4.93729775e-03 -1.31641694e+07],252,1069.146187237561
203,203,[-4.83837783e+03  3.35372707e+02 -5.24900742e-03 -1.31641694e+07],537,1068.0400859419015
204,204,[-5.16241936e+03  3.34371542e+02 -6.84650740e-03 -1.31641694e+07],286,1071.0702888564522
205,205,[-4.48793367e+03  3.35372692e+02 -5.15408051e-03 -1.31641694e+07],57,1071.581885342135
206,206,[-4.86598515e+03  3.34371730e+02 -6.37385552e-03 -1.31641694e+07],574,1074.572019286234
207,207,[-4.19197874e+03  3.36373889e+02 -5.26115806e-03 -1.31641694e+07],587,1075.29147085153
208,208,[-4.56342984e+03  3.35372831e+02 -5.93470800e-03 -1.31641694e+07],911,1075.5586834634287
209,209,[-4.66544047e+03  3.35373013e+02 -5.90885625e-03 -1.31641694e+07],892,1075.4154602505648
210,210,[-4.06084338e+03  3.37374916e+02 -4.86710768e-03 -1.31641694e+07],464,1075.512530308071
211,211,[-3.95673442e+03  3.37375317e+02 -4.83533865e-03 -1.31641694e+07],807,1075.5192300726958
212,212,[-4.90150508e+03  3.34371532e+02 -6.66137078e-03 -1.31641694e+07],1039,1074.6833625565073
213,213,[-3.88443849e+03  3.37375147e+02 -5.00914010e-03 -1.31641694e+07],594,1074.343062854941
214,214,[-4.59727750e+03  3.35372679e+02 -6.40570254e-03 -1.31641694e+07],427,1075.1046373047789
215,215,[-4.16276025e+03  3.37374919e+02 -4.82864435e-03 -1.31641694e+07],195,1075.6080286171825
216,216,[-4.36155031e+03  3.36373765e+02 -5.23229861e-03 -1.31641694e+07],697,1075.6258483695192
217,217,[-5.02170090e+03  3.34371614e+02 -6.43999524e-03 -1.31641694e+07],689,1075.1237470661588
218,218,[-4.55151759e+03  3.35372754e+02 -5.95150729e-03 -1.31641694e+07],520,1074.5023133321654
219,219,[-4.49853525e+03  3.36373997e+02 -5.47293653e-03 -1.31641694e+07],1018,1074.7983405369189
220,220,[-4.81590734e+03  3.34371561e+02 -6.96397483e-03 -1.31641694e+07],971,1075.2463162650783
221,221,[-4.53840511e+03  3.35372679e+02 -5.80489513e-03 -1.31641694e+07],100,1074.4977255126967
222,222,[-3.79110293e+03  3.38375996e+02 -4.40736770e-03 -1.31641694e+07],851,1075.0555732729777
223,223,[-4.05098904e+03  3.37375010e+02 -4.72619886e-03 -1.31641694e+07],786,1074.5216784325228
224,224,[-4.04243655e+03  3.37375241e+02 -4.54993002e-03 -1.31641694e+07],718,1074.2934620389785
225,225,[-4.83828192e+03  3.35372795e+02 -6.15482126e-03 -1.31641694e+07],886,1075.5395445690317
226,226,[-4.51550952e+03  3.36373799e+02 -5.51336802e-03 -1.31641694e+07],282,1075.099674285526
227,227,[-3.86071752e+03  3.38376103e+02 -4.46540650e-03 -1.31641694e+07],869,1075.1709340493762
228,228,[-3.72255593e+03  3.38376019e+02 -4.42482938e-03 -1.31641694e+07],441,1075.3532886550968
229,229,[-4.19568154e+03  3.37374970e+02 -5.09602374e-03 -1.31641694e+07],1003,1074.6245427447222
230,230,[-4.70839560e+03  3.35372948e+02 -5.79586708e-03 -1.31641694e+07],536,1075.009078926536
231,231,[-4.90368058e+03  3.34371656e+02 -6.63038627e-03 -1.31641694e+07],209,1075.3131907317957
232,232,[-4.01465729e+03  3.36373865e+02 -5.20101465e-03 -1.31641694e+07],910,1074.7695370955998
233,233,[-3.88465424e+03  3.37375068e+02 -4.79478282e-03 -1.31641694e+07],881,1075.0870946204623
234,234,[-4.42786400e+03  3.36374019e+02 -5.31852376e-03 -1.31641694e+07],623,1075.038469358015
235,235,[-5.06556155e+03  3.34371532e+02 -6.37973582e-03 -1.31641694e+07],357,1074.8440256524061
236,236,[-4.31059637e+03  3.36373891e+02 -5.28355944e-03 -1.31641694e+07],648,1075.7538562103628
237,237,[-4.10394141e+03  3.36374018e+02 -5.19093727e-03 -1.31641694e+07],759,1075.6583751537814
238,238,[-4.11542275e+03  3.36373768e+02 -5.49199398e-03 -1.31641694e+07],571,1075.462358831194
239,239,[-4.94967477e+03  3.34371767e+02 -7.06864595e-03 -1.31641694e+07],835,1075.2743636909659
240,240,[-3.87632151e+03  3.38376173e+02 -4.32654839e-03 -1.31641694e+07],262,1075.3244538358858
241,241,[-4.35377255e+03  3.36373753e+02 -5.81750701e-03 -1.31641694e+07],691,1074.873146938355
242,242,[-4.15788207e+03  3.37374964e+02 -5.10764765e-03 -1.31641694e+07],192,1074.577177009088
243,243,[-4.52216389e+03  3.36373773e+02 -5.62229998e-03 -1.31641694e+07],950,1074.8611371589561
244,244,[-4.17566356e+03  3.37374909e+02 -4.92546637e-03 -1.31641694e+07],1015,1074.7981806729836
245,245,[-4.33240569e+03  3.36373757e+02 -5.33565639e-03 -1.31641694e+07],722,1075.5507598723
246,246,[-4.94156712e+03  3.34371624e+02 -7.03436179e-03 -1.31641694e+07],997,1075.7111890996268
247,247,[-4.82978612e+03  3.34371864e+02 -7.04341025e-03 -1.31641694e+07],616,1075.678101647537
248,248,[-4.85186921e+03  3.34371562e+02 -7.10633230e-03 -1.31641694e+07],98,1075.5297369230484
249,249,[-3.88044221e+03  3.38376068e+02 -4.39141147e-03 -1.31641694e+07],875,1075.1762108848718
250,250,[-4.77426813e+03  3.35372662e+02 -5.54412010e-03 -1.31641694e+07],756,1073.5561525865323
251,251,[-5.05541384e+03  3.34371545e+02 -6.46493109e-03 -1.31641694e+07],988,1074.4529721949664
252,252,[-4.91699631e+03  3.34371556e+02 -6.55298868e-03 -1.31641694e+07],598,1075.4599393257229
253,253,[-4.79591461e+03  3.34371590e+02 -6.26356215e-03 -1.31641694e+07],873,1074.681820011031
254,254,[-4.77356483e+03  3.34371783e+02 -6.47659529e-03 -1.31641694e+07],526,1074.9634021792053
255,255,[-4.50894967e+03  3.36373779e+02 -5.64985151e-03 -1.31641694e+07],633,1075.462896012329
256,256,[-4.96111680e+03  3.34371829e+02 -6.30857236e-03 -1.31641694e+07],806,1073.9419712535237
257,257,[-4.27317784e+03  3.36373779e+02 -5.00933462e-03 -1.31641694e+07],912,1073.8714779330135
258,258,[-4.31262077e+03  3.36373838e+02 -5.22655777e-03 -1.31641694e+07],603,1074.455233380275
259,259,[-4.88081986e+03  3.34371721e+02 -6.48008969e-03 -1.31641694e+07],724,1074.849815371189
260,260,[-4.73547250e+03  3.34371694e+02 -6.22811554e-03 -1.31641694e+07],803,1074.1861135464746
261,261,[-4.85779954e+03  3.34371531e+02 -7.00511325e-03 -1.31641694e+07],990,1075.857404217115
262,262,[-4.86068871e+03  3.34371680e+02 -6.91152455e-03 -1.31641694e+07],626,1075.3943460519827
263,263,[-3.96341899e+03  3.37375077e+02 -4.77281370e-03 -1.31641694e+07],73,1074.681852095367
264,264,[-3.67475090e+03  3.39377240e+02 -4.04198424e-03 -1.31641694e+07],228,1071.9232292111178
265,265,[-4.05944329e+03  3.37375211e+02 -4.57629486e-03 -1.31641694e+07],284,1070.8929571007
266,266,[-5.05151253e+03  3.34371577e+02 -6.61483789e-03 -1.31641694e+07],839,1074.9237685416688
267,267,[-4.90816362e+03  3.34371620e+02 -6.52277312e-03 -1.31641694e+07],437,1075.0619703500643
268,268,[-4.55434012e+03  3.36373751e+02 -5.59709165e-03 -1.31641694e+07],827,1075.0570971140664
269,269,[-4.72850641e+03  3.36373835e+02 -5.49431624e-03 -1.31641694e+07],524,1074.381210487742
270,270,[-4.88555266e+03  3.35372856e+02 -5.46773145e-03 -1.31641694e+07],482,1071.554624770384
271,271,[-5.02574246e+03  3.34371584e+02 -6.50539999e-03 -1.31641694e+07],142,1074.5613325575991
272,272,[-4.94961474e+03  3.34371554e+02 -6.50067796e-03 -1.31641694e+07],802,1075.2586994692017
273,273,[-4.91220191e+03  3.35372648e+02 -6.36145094e-03 -1.31641694e+07],963,1074.912909343381
274,274,[-4.66785553e+03  3.36373850e+02 -5.52913016e-03 -1.31641694e+07],855,1074.58155217663
275,275,[-4.00812379e+03  3.37374906e+02 -4.68674990e-03 -1.31641694e+07],492,1075.71017992392
276,276,[-4.06571258e+03  3.37374877e+02 -4.51074791e-03 -1.31641694e+07],838,1074.867281664948
277,277,[-5.03989371e+03  3.34371648e+02 -6.73262234e-03 -1.31641694e+07],555,1075.0647097153994
278,278,[-4.01239140e+03  3.37374912e+02 -4.68438846e-03 -1.31641694e+07],450,1074.9671308580555
279,279,[-4.75801619e+03  3.35372723e+02 -5.77007927e-03 -1.31641694e+07],517,1075.261936748211
280,280,[-4.83402542e+03  3.35372655e+02 -6.19007386e-03 -1.31641694e+07],317,1075.6230145298223
281,281,[-4.98165862e+03  3.34371566e+02 -7.03621968e-03 -1.31641694e+07],719,1075.5079989053327
282,282,[-4.85381275e+03  3.34371838e+02 -6.97239497e-03 -1.31641694e+07],1010,1075.4261986708875
283,283,[-4.65876441e+03  3.35372815e+02 -5.99071151e-03 -1.31641694e+07],478,1074.9655753032757
284,284,[-3.94448144e+03  3.37374930e+02 -4.70013265e-03 -1.31641694e+07],592,1075.353229607886
285,285,[-5.01982425e+03  3.34371573e+02 -6.62206118e-03 -1.31641694e+07],419,1075.537178367009
286,286,[-5.02103218e+03  3.34371546e+02 -6.60365820e-03 -1.31641694e+07],682,1075.4566248885317
287,287,[-4.98489485e+03  3.34371640e+02 -6.74807204e-03 -1.31641694e+07],240,1075.1076486851855
288,288,[-4.38106323e+03  3.36373848e+02 -5.58784096e-03 -1.31641694e+07],159,1073.9775034928837
289,289,[-4.14011458e+03  3.37374865e+02 -4.50576997e-03 -1.31641694e+07],976,1074.3435327936975
290,290,[-3.99462031e+03  3.37374941e+02 -4.39157327e-03 -1.31641694e+07],442,1073.977862391992
291,291,[-4.87865058e+03  3.34371825e+02 -7.09822860e-03 -1.31641694e+07],529,1073.534151529957
292,292,[-4.01425741e+03  3.37375130e+02 -4.83343209e-03 -1.31641694e+07],836,1073.4328318364728
293,293,[-4.05784281e+03  3.37375021e+02 -4.75867181e-03 -1.31641694e+07],476,1074.9405241768638
294,294,[-5.05721428e+03  3.34371688e+02 -6.87095153e-03 -1.31641694e+07],231,1073.893258311876
295,295,[-4.90679770e+03  3.34371577e+02 -7.11518163e-03 -1.31641694e+07],570,1072.606887574912
296,296,[-4.42073336e+03  3.36373773e+02 -5.36159781e-03 -1.31641694e+07],561,1073.8463264067636
297,297,[-5.04440693e+03  3.34371527e+02 -6.63468768e-03 -1.31641694e+07],602,1074.8189374992623
298,298,[-4.32824834e+03  3.36373847e+02 -5.19373004e-03 -1.31641694e+07],565,1075.2701930545886
299,299,[-3.99776002e+03  3.37374883e+02 -4.68620675e-03 -1.31641694e+07],966,1074.357441966022
300,300,[-3.83254852e+03  3.38376217e+02 -4.68222917e-03 -1.31641694e+07],340,1072.04722568427
301,301,[-4.89591905e+03  3.34371643e+02 -6.93827878e-03 -1.31641694e+07],859,1073.4316684838634
302,302,[-5.07506141e+03  3.34371563e+02 -6.73353038e-03 -1.31641694e+07],670,1073.8712097617151
303,303,[-4.05002794e+03  3.37375306e+02 -4.68548454e-03 -1.31641694e+07],454,1074.6610345997499
304,304,[-3.86095506e+03  3.38376032e+02 -4.34901655e-03 -1.31641694e+07],898,1074.1766680549965
305,305,[-3.98371839e+03  3.37374918e+02 -4.90293097e-03 -1.31641694e+07],820,1073.7882465865712
306,306,[-4.55382299e+03  3.36373763e+02 -5.63840358e-03 -1.31641694e+07],700,1073.3523745170255
307,307,[-4.44148448e+03  3.36374156e+02 -5.84244187e-03 -1.31641694e+07],720,1073.5658312332241
308,308,[-4.30639980e+03  3.37374992e+02 -5.03597738e-03 -1.31641694e+07],207,1074.0470708392272
309,309,[-4.39946165e+03  3.36373757e+02 -5.40619518e-03 -1.31641694e+07],743,1074.5398464213333
310,310,[-5.02270892e+03  3.34371587e+02 -6.83137608e-03 -1.31641694e+07],355,1074.2350081979507
311,311,[-3.65234934e+03  3.38375997e+02 -4.35965489e-03 -1.31641694e+07],479,1073.5677634058877
312,312,[-3.72476525e+03  3.39377216e+02 -3.86396035e-03 -1.31641694e+07],994,1073.6852598985806
313,313,[-4.76827037e+03  3.35372864e+02 -6.39553348e-03 -1.31641694e+07],589,1073.5002328619078
314,314,[-4.85161967e+03  3.34371640e+02 -6.82951426e-03 -1.31641694e+07],906,1074.079195810645
315,315,[-3.94344458e+03  3.38376150e+02 -4.47050146e-03 -1.31641694e+07],151,1073.4203246253687
316,316,[-4.07803954e+03  3.37374908e+02 -4.69372796e-03 -1.31641694e+07],59,1074.4401150782307
317,317,[-5.04578433e+03  3.34371569e+02 -6.72327820e-03 -1.31641694e+07],585,1075.3304927490844
318,318,[-4.18188615e+03  3.36373800e+02 -5.46075102e-03 -1.31641694e+07],336,1075.509971527835
319,319,[-4.31649402e+03  3.36373750e+02 -5.82785434e-03 -1.31641694e+07],444,1073.5328907444102
320,320,[-4.39779244e+03  3.36373749e+02 -5.63366650e-03 -1.31641694e+07],239,1074.742557720342
321,321,[-4.11795725e+03  3.37375361e+02 -4.56331908e-03 -1.31641694e+07],651,1074.5712926711242
322,322,[-5.08899716e+03  3.34371673e+02 -6.75392822e-03 -1.31641694e+07],298,1074.9953013737065
323,323,[-3.91449368e+03  3.37375064e+02 -4.62302393e-03 -1.31641694e+07],972,1074.3609324648255
324,324,[-4.07966216e+03  3.37374915e+02 -4.71848453e-03 -1.31641694e+07],417,1072.8509956571008
325,325,[-5.04899853e+03  3.34371577e+02 -6.76288942e-03 -1.31641694e+07],815,1071.5746066707045
326,326,[-5.00168585e+03  3.34371777e+02 -6.82123723e-03 -1.31641694e+07],699,1070.9483561456689
327,327,[-4.96438793e+03  3.34371556e+02 -6.43810759e-03 -1.31641694e+07],111,1072.4551752068764
328,328,[-4.99001620e+03  3.34371611e+02 -7.11061621e-03 -1.31641694e+07],469,1071.7130350511113
329,329,[-4.65317020e+03  3.35372728e+02 -5.52124671e-03 -1.31641694e+07],908,1073.425173678796
330,330,[-4.70707417e+03  3.36373798e+02 -5.42068461e-03 -1.31641694e+07],279,1075.1508796207584
331,331,[-5.02515676e+03  3.34371567e+02 -6.71930508e-03 -1.31641694e+07],504,1075.2524497234622
332,332,[-4.14878243e+03  3.36373754e+02 -5.53731537e-03 -1.31641694e+07],272,1075.1446406453804
333,333,[-4.75157178e+03  3.36373865e+02 -5.72738318e-03 -1.31641694e+07],1011,1074.8381885579756
334,334,[-5.00229655e+03  3.34371547e+02 -6.73771546e-03 -1.31641694e+07],528,1075.7889403874412
335,335,[-4.16854870e+03  3.36373817e+02 -5.53103446e-03 -1.31641694e+07],331,1075.1107417208977
336,336,[-4.58723247e+03  3.35372658e+02 -6.02911508e-03 -1.31641694e+07],49,1075.281432622364
337,337,[-4.05691933e+03  3.37374907e+02 -4.83418364e-03 -1.31641694e+07],353,1074.701578416255
338,338,[-4.05480193e+03  3.37374892e+02 -4.71501921e-03 -1.31641694e+07],40,1075.058342508039
339,339,[-4.60771195e+03  3.35372841e+02 -5.57215488e-03 -1.31641694e+07],75,1074.9471310032786
340,340,[-4.49699787e+03  3.35372761e+02 -5.86081386e-03 -1.31641694e+07],794,1075.303639381838
341,341,[-4.05303404e+03  3.37374887e+02 -4.68520586e-03 -1.31641694e+07],193,1073.6793016822708
342,342,[-4.06991363e+03  3.37374919e+02 -4.70838762e-03 -1.31641694e+07],770,1072.8800961908833
343,343,[-5.01683049e+03  3.34371698e+02 -6.72363028e-03 -1.31641694e+07],220,1073.1931311271524
344,344,[-3.77123106e+03  3.38376094e+02 -4.40852485e-03 -1.31641694e+07],421,1074.50868401278
345,345,[-4.01491487e+03  3.37374874e+02 -4.73911829e-03 -1.31641694e+07],510,1074.281877196293
346,346,[-4.10420224e+03  3.37375060e+02 -4.75996121e-03 -1.31641694e+07],1058,1074.001250575664
347,347,[-4.66473100e+03  3.36373991e+02 -5.46953587e-03 -1.31641694e+07],846,1075.1004247886485
348,348,[-4.88553747e+03  3.34371635e+02 -6.87415121e-03 -1.31641694e+07],459,1075.464178495905
349,349,[-5.02230537e+03  3.34371607e+02 -6.90315571e-03 -1.31641694e+07],862,1075.227025876215
350,350,[-4.09596199e+03  3.37375036e+02 -4.79416613e-03 -1.31641694e+07],515,1074.7317992309222
351,351,[-5.01707961e+03  3.34371808e+02 -6.25573767e-03 -1.31641694e+07],748,1074.5789037349375
352,352,[-4.69427813e+03  3.35372676e+02 -5.90585570e-03 -1.31641694e+07],91,1075.1776144008363
353,353,[-4.93701320e+03  3.34371732e+02 -6.83204900e-03 -1.31641694e+07],723,1075.2512751404813
354,354,[-5.08872556e+03  3.34371605e+02 -6.81227457e-03 -1.31641694e+07],179,1075.0068866608967
355,355,[-4.02536030e+03  3.37374887e+02 -4.80591601e-03 -1.31641694e+07],452,1075.2905064232746
356,356,[-4.98799645e+03  3.34371645e+02 -6.73171479e-03 -1.31641694e+07],814,1075.6563795480865
357,357,[-4.99206226e+03  3.34371611e+02 -7.22003968e-03 -1.31641694e+07],164,1075.4028904627287
358,358,[-4.76537950e+03  3.35372695e+02 -6.03122801e-03 -1.31641694e+07],349,1074.8739757349722
359,359,[-4.11154128e+03  3.37375164e+02 -4.79230125e-03 -1.31641694e+07],501,1074.6651143570962
360,360,[-4.84977591e+03  3.35372703e+02 -6.33725698e-03 -1.31641694e+07],65,1074.9498439028037
361,361,[-3.97472155e+03  3.37375053e+02 -4.84641839e-03 -1.31641694e+07],710,1075.5351495545333
362,362,[-4.40124542e+03  3.36374067e+02 -5.63536893e-03 -1.31641694e+07],109,1074.7486815981247
363,363,[-4.07697630e+03  3.37375366e+02 -4.73239156e-03 -1.31641694e+07],128,1073.1962627446949
364,364,[-5.08467952e+03  3.34371766e+02 -6.73577989e-03 -1.31641694e+07],818,1073.068925808956
365,365,[-3.95816379e+03  3.37375223e+02 -4.80531961e-03 -1.31641694e+07],678,1072.4099297116318
366,366,[-4.50711910e+03  3.35372816e+02 -5.83725697e-03 -1.31641694e+07],1049,1071.1788013088867
367,367,[-4.63998574e+03  3.35372690e+02 -6.06139857e-03 -1.31641694e+07],522,1070.0251279442919
368,368,[-4.08573763e+03  3.37374878e+02 -4.63482116e-03 -1.31641694e+07],702,1067.6869958627406
369,369,[-4.06091460e+03  3.37374977e+02 -4.75271767e-03 -1.31641694e+07],622,1068.3048336507354
370,370,[-4.57972980e+03  3.36373902e+02 -5.39959718e-03 -1.31641694e+07],1035,1072.2691938920918
371,371,[-4.00924278e+03  3.37375052e+02 -4.69081757e-03 -1.31641694e+07],516,1074.674659104359
372,372,[-4.61182807e+03  3.35372732e+02 -6.01870171e-03 -1.31641694e+07],721,1074.9471242258758
373,373,[-4.03571696e+03  3.36373882e+02 -5.29981342e-03 -1.31641694e+07],698,1074.3897241685243
374,374,[-5.11725149e+03  3.34371865e+02 -6.87612268e-03 -1.31641694e+07],961,1072.5425860105427
375,375,[-5.05438840e+03  3.34371531e+02 -6.71447741e-03 -1.31641694e+07],817,1073.745460799593
376,376,[-3.97730930e+03  3.37374884e+02 -4.72764389e-03 -1.31641694e+07],848,1074.0871843000734
377,377,[-4.87073062e+03  3.34371661e+02 -6.90280023e-03 -1.31641694e+07],1022,1074.4946994234622
378,378,[-4.07327242e+03  3.37374889e+02 -4.71094856e-03 -1.31641694e+07],782,1069.986387780389
379,379,[-4.08139328e+03  3.37374901e+02 -4.83680355e-03 -1.31641694e+07],352,1067.2054155873498
380,380,[-4.08204534e+03  3.37375090e+02 -4.58134462e-03 -1.31641694e+07],249,1071.9461129452313
381,381,[-4.96537859e+03  3.34371673e+02 -6.78584665e-03 -1.31641694e+07],580,1074.4492899265765
382,382,[-4.52786328e+03  3.35372643e+02 -6.20503060e-03 -1.31641694e+07],703,1074.7213357577957
383,383,[-3.79252982e+03  3.38376066e+02 -4.45011939e-03 -1.31641694e+07],227,1074.4514872292405
384,384,[-4.04976355e+03  3.37375253e+02 -4.85147466e-03 -1.31641694e+07],985,1073.8552288961082
385,385,[-4.18878260e+03  3.36373855e+02 -5.31086494e-03 -1.31641694e+07],423,1074.538500800006
386,386,[-4.25327489e+03  3.36373753e+02 -5.55039155e-03 -1.31641694e+07],395,1074.3428459134952
387,387,[-4.19487472e+03  3.37374926e+02 -5.11695269e-03 -1.31641694e+07],483,1074.5938224182632
388,388,[-4.09133039e+03  3.37374915e+02 -4.67243108e-03 -1.31641694e+07],730,1072.7513386550065
389,389,[-3.99901542e+03  3.37375246e+02 -4.72765587e-03 -1.31641694e+07],857,1074.0375346619735
390,390,[-4.91302863e+03  3.34371551e+02 -6.56884646e-03 -1.31641694e+07],56,1074.2556897796144
391,391,[-4.92240834e+03  3.34371662e+02 -6.96302304e-03 -1.31641694e+07],330,1074.3520806178467
392,392,[-4.65321501e+03  3.35372705e+02 -6.19750278e-03 -1.31641694e+07],649,1074.1480458711176
393,393,[-4.10478448e+03  3.37374891e+02 -4.62379122e-03 -1.31641694e+07],120,1073.3170869053001
394,394,[-4.90834135e+03  3.34371672e+02 -7.07985127e-03 -1.31641694e+07],332,1074.8044116503818
395,395,[-4.18080395e+03  3.36373797e+02 -5.60327625e-03 -1.31641694e+07],646,1075.1565937340838
396,396,[-3.89873752e+03  3.37374974e+02 -4.91098043e-03 -1.31641694e+07],816,1074.3977276888509
397,397,[-3.73608912e+03  3.39377187e+02 -3.90457592e-03 -1.31641694e+07],425,1070.2009362740878
398,398,[-5.00973935e+03  3.34371553e+02 -6.91450763e-03 -1.31641694e+07],673,1073.8651887272608
399,399,[-4.26919216e+03  3.36373919e+02 -5.52870594e-03 -1.31641694e+07],1034,1074.5285306877313
400,400,[-3.75599047e+03  3.38375997e+02 -4.50842748e-03 -1.31641694e+07],889,1074.2369825611147
401,401,[-4.13217111e+03  3.37375041e+02 -4.67179825e-03 -1.31641694e+07],422,1070.491809755329
402,402,[-5.02241761e+03  3.35372705e+02 -6.46525385e-03 -1.31641694e+07],217,1073.143478394688
403,403,[-4.90970845e+03  3.34371568e+02 -6.84243534e-03 -1.31641694e+07],1029,1074.7036211742584
404,404,[-4.46026144e+03  3.35372830e+02 -6.18699823e-03 -1.31641694e+07],173,1074.80093089039
405,405,[-4.50006640e+03  3.36373801e+02 -5.60160730e-03 -1.31641694e+07],455,1073.8242662169341
406,406,[-4.53164305e+03  3.36373994e+02 -5.67403017e-03 -1.31641694e+07],780,1071.8438074997864
407,407,[-4.75592686e+03  3.35372787e+02 -6.01434416e-03 -1.31641694e+07],779,1074.0162071490108
408,408,[-4.00962434e+03  3.37374867e+02 -4.77248458e-03 -1.31641694e+07],486,1074.3905086664752
409,409,[-4.03959740e+03  3.37375025e+02 -4.75443163e-03 -1.31641694e+07],185,1070.1241342053474
410,410,[-3.95294509e+03  3.37374921e+02 -4.71686709e-03 -1.31641694e+07],531,1073.2079836809014
411,411,[-4.26929814e+03  3.36373899e+02 -5.54428306e-03 -1.31641694e+07],184,1074.0880006599061
412,412,[-3.75801779e+03  3.38376044e+02 -4.48958304e-03 -1.31641694e+07],792,1074.1595028103004
413,413,[-4.05562456e+03  3.37374929e+02 -4.80561336e-03 -1.31641694e+07],78,1071.6685821769877
414,414,[-3.67917662e+03  3.39377137e+02 -3.93661633e-03 -1.31641694e+07],335,1072.857544910834
415,415,[-4.84934713e+03  3.34371584e+02 -6.90759526e-03 -1.31641694e+07],753,1074.2479918756403
416,416,[-4.63787540e+03  3.35372723e+02 -6.07510077e-03 -1.31641694e+07],810,1073.6274655584307
417,417,[-3.96469780e+03  3.37374901e+02 -4.83484394e-03 -1.31641694e+07],560,1075.2686899064097
418,418,[-5.04409835e+03  3.34371570e+02 -6.89316224e-03 -1.31641694e+07],287,1074.7897297109087
419,419,[-4.87535032e+03  3.34371532e+02 -6.90961918e-03 -1.31641694e+07],666,1075.3260869953342
420,420,[-4.48459256e+03  3.36373763e+02 -5.87029043e-03 -1.31641694e+07],214,1075.0871777598502
421,421,[-4.45638146e+03  3.36373779e+02 -5.67946168e-03 -1.31641694e+07],761,1075.2459976015841
422,422,[-4.57727193e+03  3.35372699e+02 -6.15703190e-03 -1.31641694e+07],825,1075.1251701705817
423,423,[-4.83251080e+03  3.34371547e+02 -7.02341396e-03 -1.31641694e+07],991,1075.1658543737997
424,424,[-3.79127726e+03  3.38376061e+02 -4.51393695e-03 -1.31641694e+07],735,1075.581897653262
425,425,[-4.02990770e+03  3.37375023e+02 -4.80245724e-03 -1.31641694e+07],103,1075.1316622045945
426,426,[-4.87223527e+03  3.34371579e+02 -7.01350857e-03 -1.31641694e+07],347,1075.600388563076
427,427,[-4.23120323e+03  3.36373780e+02 -5.61339313e-03 -1.31641694e+07],226,1075.4455469735892
428,428,[-4.07700680e+03  3.37374960e+02 -4.72314432e-03 -1.31641694e+07],747,1074.3765969683539
429,429,[-4.52827660e+03  3.36374012e+02 -5.52699589e-03 -1.31641694e+07],667,1074.8038475356118
430,430,[-4.93397574e+03  3.34371578e+02 -7.22084290e-03 -1.31641694e+07],980,1074.7248591282123
431,431,[-3.98807782e+03  3.37375105e+02 -4.82051779e-03 -1.31641694e+07],949,1074.9871403095997
432,432,[-4.11442523e+03  3.37374923e+02 -4.64599440e-03 -1.31641694e+07],420,1074.2656250939247
433,433,[-4.65459680e+03  3.35372676e+02 -6.19190677e-03 -1.31641694e+07],233,1074.8469575684874
434,434,[-3.87305329e+03  3.37374981e+02 -4.91707433e-03 -1.31641694e+07],811,1074.2788706176148
435,435,[-3.26685950e+03  3.40378288e+02 -3.58056263e-03 -1.31641694e+07],654,1075.6874432398788
436,436,[-3.99067753e+03  3.37374916e+02 -4.77405372e-03 -1.31641694e+07],880,1074.8317937263264
437,437,[-4.09545681e+03  3.36373831e+02 -5.52087077e-03 -1.31641694e+07],551,1075.3526021996
438,438,[-4.05587887e+03  3.37374937e+02 -4.80698709e-03 -1.31641694e+07],774,1075.848213433755
439,439,[-3.97952129e+03  3.37374929e+02 -4.76770116e-03 -1.31641694e+07],550,1075.5160946596545
440,440,[-4.20812082e+03  3.36374142e+02 -5.66238658e-03 -1.31641694e+07],1021,1075.7514042478604
441,441,[-4.07400308e+03  3.37375215e+02 -4.74129978e-03 -1.31641694e+07],684,1075.4181303802834
442,442,[-4.57361149e+03  3.36373801e+02 -5.67029467e-03 -1.31641694e+07],129,1075.3221406691443
443,443,[-4.27678609e+03  3.36373774e+02 -5.63844233e-03 -1.31641694e+07],107,1074.9580294544494
444,444,[-4.00922157e+03  3.37374965e+02 -4.84949611e-03 -1.31641694e+07],893,1075.2744947114243
445,445,[-4.08049406e+03  3.37375161e+02 -4.88002043e-03 -1.31641694e+07],620,1075.8126517775638
446,446,[-3.97608166e+03  3.37374921e+02 -4.82497516e-03 -1.31641694e+07],938,1074.8331758000647
447,447,[-3.59790189e+03  3.39377100e+02 -4.19865838e-03 -1.31641694e+07],884,1074.9318301783107
448,448,[-4.14673695e+03  3.37375016e+02 -5.46129179e-03 -1.31641694e+07],277,1074.1531053329616
449,449,[-4.06566400e+03  3.37374921e+02 -4.80167824e-03 -1.31641694e+07],663,1075.7529801998437
450,450,[-4.91368479e+03  3.34371534e+02 -6.99293208e-03 -1.31641694e+07],267,1075.3328267000616
451,451,[-4.52296328e+03  3.35372794e+02 -6.42250078e-03 -1.31641694e+07],1023,1075.5312464887706
452,452,[-4.21680610e+03  3.37375127e+02 -4.92011953e-03 -1.31641694e+07],763,1075.2280513285245
453,453,[-4.69617745e+03  3.36373841e+02 -5.59852928e-03 -1.31641694e+07],131,1075.5280305399344
454,454,[-3.95853241e+03  3.37374958e+02 -4.80087157e-03 -1.31641694e+07],338,1075.298744599364
455,455,[-3.52748758e+03  3.39377261e+02 -4.12315080e-03 -1.31641694e+07],805,1075.1177402794103
456,456,[-4.84544272e+03  3.36373874e+02 -5.51150677e-03 -1.31641694e+07],268,1074.3069004050542
457,457,[-4.90637750e+03  3.35372683e+02 -6.57578501e-03 -1.31641694e+07],31,1075.0184712208838
458,458,[-4.28442558e+03  3.36374190e+02 -5.58634486e-03 -1.31641694e+07],222,1075.6165562057677
459,459,[-4.03475333e+03  3.37374904e+02 -4.83972488e-03 -1.31641694e+07],130,1075.2392199178582
460,460,[-4.05618258e+03  3.37374947e+02 -4.83376857e-03 -1.31641694e+07],860,1075.4863611779167
461,461,[-3.91030639e+03  3.37374981e+02 -4.91257762e-03 -1.31641694e+07],685,1074.6430286039795
462,462,[-4.47465755e+03  3.35372695e+02 -6.25951075e-03 -1.31641694e+07],577,1074.851372468174
463,463,[-4.07307231e+03  3.37374919e+02 -4.71134894e-03 -1.31641694e+07],731,1075.4807825916573
464,464,[-4.66111586e+03  3.35372879e+02 -6.08288587e-03 -1.31641694e+07],145,1075.4474204741118
465,465,[-4.67403881e+03  3.36373842e+02 -5.77256181e-03 -1.31641694e+07],772,1075.0195574343418
466,466,[-4.18113680e+03  3.37374911e+02 -4.93335127e-03 -1.31641694e+07],937,1075.6129652770321
467,467,[-4.26587045e+03  3.36374254e+02 -5.54858075e-03 -1.31641694e+07],597,1075.802397930077
468,468,[-4.51161529e+03  3.35372712e+02 -6.27090154e-03 -1.31641694e+07],712,1074.8138402777458
469,469,[-4.45245450e+03  3.36373824e+02 -5.73818659e-03 -1.31641694e+07],234,1075.263321303684
470,470,[-4.06639083e+03  3.37374912e+02 -4.80450241e-03 -1.31641694e+07],543,1075.7421967984626
471,471,[-3.94110365e+03  3.37374947e+02 -4.79905326e-03 -1.31641694e+07],127,1075.69937716095
472,472,[-4.85335610e+03  3.34371541e+02 -7.02956616e-03 -1.31641694e+07],973,1075.752727310414
473,473,[-4.02393923e+03  3.37374964e+02 -4.78398921e-03 -1.31641694e+07],899,1075.6195301382795
474,474,[-4.98407513e+03  3.34371602e+02 -6.92597559e-03 -1.31641694e+07],891,1075.7557086721656
475,475,[-4.85749959e+03  3.34371708e+02 -7.06824995e-03 -1.31641694e+07],514,1075.6499216944212
476,476,[-4.82540463e+03  3.36373790e+02 -5.69071148e-03 -1.31641694e+07],121,1075.3147784726125
477,477,[-4.49817012e+03  3.36373757e+02 -5.55636053e-03 -1.31641694e+07],465,1075.7257441629822
478,478,[-3.86997240e+03  3.37374878e+02 -4.88590186e-03 -1.31641694e+07],457,1075.3294085878827
479,479,[-3.65703992e+03  3.39377133e+02 -4.08338184e-03 -1.31641694e+07],149,1075.2899460207288
480,480,[-4.95277334e+03  3.34371568e+02 -6.88755594e-03 -1.31641694e+07],755,1075.5596590751456
481,481,[-4.64024816e+03  3.35372736e+02 -6.07755634e-03 -1.31641694e+07],868,1075.5052414435215
482,482,[-4.92446188e+03  3.34371765e+02 -7.04832742e-03 -1.31641694e+07],230,1075.3516927268768
483,483,[-3.70881392e+03  3.39377086e+02 -4.02385435e-03 -1.31641694e+07],188,1075.1564540323584
484,484,[-4.78452182e+03  3.34371711e+02 -7.02121028e-03 -1.31641694e+07],354,1075.6117222225623
485,485,[-3.91998957e+03  3.37375122e+02 -5.03421854e-03 -1.31641694e+07],662,1075.8677982086992
486,486,[-4.10228757e+03  3.37374880e+02 -4.72118014e-03 -1.31641694e+07],102,1075.1152775561163
487,487,[-4.95328857e+03  3.34371833e+02 -6.90185793e-03 -1.31641694e+07],198,1075.8411931592073
488,488,[-3.92727900e+03  3.37375252e+02 -4.83019470e-03 -1.31641694e+07],532,1075.5909285791026
489,489,[-4.27245041e+03  3.36373802e+02 -5.62670354e-03 -1.31641694e+07],766,1075.5040965350533
490,490,[-3.82171491e+03  3.38376145e+02 -4.20600587e-03 -1.31641694e+07],791,1074.9119507874036
491,491,[-4.15737163e+03  3.36374006e+02 -5.37415334e-03 -1.31641694e+07],989,1075.6272966898991
492,492,[-4.55991309e+03  3.35372782e+02 -6.28987688e-03 -1.31641694e+07],903,1075.3384279376605
493,493,[-4.09079455e+03  3.37375001e+02 -4.80197368e-03 -1.31641694e+07],95,1073.1921464058614
494,494,[-4.04326747e+03  3.37375170e+02 -4.78068208e-03 -1.31641694e+07],322,1074.6974984478306
495,495,[-4.98432372e+03  3.34371625e+02 -7.06159704e-03 -1.31641694e+07],767,1073.824738738601
496,496,[-4.64840534e+03  3.35372700e+02 -6.01583768e-03 -1.31641694e+07],1024,1070.0359811686913
497,497,[-4.46398818e+03  3.36373828e+02 -5.66455075e-03 -1.31641694e+07],539,1069.4657610518643
498,498,[-4.41222671e+03  3.36374134e+02 -4.95902666e-03 -1.31641694e+07],431,1067.8598020333902
499,499,[-5.13923271e+03  3.34371870e+02 -6.79082653e-03 -1.31641694e+07],625,1070.344745858556
500,500,[-4.16915939e+03  3.36373982e+02 -5.37089751e-03 -1.31641694e+07],664,1072.8965313747353
501,501,[-4.61220646e+03  3.35372646e+02 -6.23886637e-03 -1.31641694e+07],48,1075.223846080687
502,502,[-4.77520513e+03  3.35372755e+02 -5.60301935e-03 -1.31641694e+07],83,1072.6812461215604
503,503,[-3.93937847e+03  3.37374960e+02 -4.71789131e-03 -1.31641694e+07],652,1074.8338713324238
504,504,[-4.72664974e+03  3.35372719e+02 -5.95017402e-03 -1.31641694e+07],904,1075.2596174567648
505,505,[-4.85666683e+03  3.34371762e+02 -7.06759294e-03 -1.31641694e+07],874,1075.644939360403
506,506,[-3.83642987e+03  3.37375254e+02 -4.78072669e-03 -1.31641694e+07],1036,1074.851590225309
507,507,[-4.09833309e+03  3.36373897e+02 -5.56689261e-03 -1.31641694e+07],278,1075.6521993986078
508,508,[-3.96487545e+03  3.37375114e+02 -4.94597620e-03 -1.31641694e+07],283,1075.4966468761966
509,509,[-4.70696162e+03  3.36373945e+02 -5.50871892e-03 -1.31641694e+07],96,1074.778461923478
510,510,[-4.06372484e+03  3.37375007e+02 -4.86170030e-03 -1.31641694e+07],254,1075.2451151111622
511,511,[-4.96431407e+03  3.34371528e+02 -6.98541217e-03 -1.31641694e+07],443,1074.8930368282004
512,512,[-4.14752139e+03  3.36373848e+02 -5.47829005e-03 -1.31641694e+07],717,1074.49898113978
513,513,[-4.04614493e+03  3.37374964e+02 -4.80130746e-03 -1.31641694e+07],360,1075.505088470513
514,514,[-4.11519308e+03  3.37374898e+02 -4.63321335e-03 -1.31641694e+07],1075,1075.0249262116358
515,515,[-4.01637327e+03  3.37374987e+02 -4.80042312e-03 -1.31641694e+07],339,1075.2347841149628
516,516,[-3.99198093e+03  3.37374913e+02 -4.86529297e-03 -1.31641694e+07],372,1075.2028262840195
517,517,[-4.01717595e+03  3.37374867e+02 -4.95869365e-03 -1.31641694e+07],293,1075.3320472465052
518,518,[-4.24914595e+03  3.37375055e+02 -5.14421685e-03 -1.31641694e+07],674,1074.4355664671211
519,519,[-3.99598494e+03  3.37374873e+02 -4.92036363e-03 -1.31641694e+07],1026,1075.585176430875
520,520,[-3.86932303e+03  3.37375050e+02 -5.01953302e-03 -1.31641694e+07],147,1075.440843921377
521,521,[-3.60532371e+03  3.39377207e+02 -4.30261793e-03 -1.31641694e+07],672,1074.6196067338612
522,522,[-4.65828747e+03  3.36373888e+02 -5.51835257e-03 -1.31641694e+07],1009,1075.2061639325893
523,523,[-4.98142180e+03  3.34371734e+02 -6.85061847e-03 -1.31641694e+07],940,1075.5644637393468
524,524,[-4.63136558e+03  3.35372949e+02 -6.07714434e-03 -1.31641694e+07],778,1075.3517548351138
525,525,[-3.91682283e+03  3.37374919e+02 -4.95543220e-03 -1.31641694e+07],632,1075.5385352439487
526,526,[-4.09469789e+03  3.37374873e+02 -4.76401305e-03 -1.31641694e+07],118,1075.371603554372
527,527,[-3.95544979e+03  3.37374931e+02 -4.81855951e-03 -1.31641694e+07],447,1075.5502638198584
528,528,[-3.98835325e+03  3.37374980e+02 -4.83970557e-03 -1.31641694e+07],758,1075.2551491825109
529,529,[-4.07908878e+03  3.37375114e+02 -4.80252389e-03 -1.31641694e+07],556,1075.3208038126206
530,530,[-4.72048231e+03  3.35372721e+02 -5.93189943e-03 -1.31641694e+07],709,1074.6905687169105
531,531,[-3.97522701e+03  3.37374906e+02 -4.81822579e-03 -1.31641694e+07],732,1075.1146787631708
532,532,[-3.67576196e+03  3.39377468e+02 -4.11952482e-03 -1.31641694e+07],266,1075.0030183425074
533,533,[-4.05710494e+03  3.37375216e+02 -4.82281044e-03 -1.31641694e+07],986,1075.4862203010618
534,534,[-4.62550699e+03  3.35372936e+02 -6.15460990e-03 -1.31641694e+07],679,1075.6693544520936
535,535,[-4.30974371e+03  3.36373832e+02 -5.65303870e-03 -1.31641694e+07],39,1075.4777650764825
536,536,[-4.10108213e+03  3.37375305e+02 -4.79895564e-03 -1.31641694e+07],143,1075.4162365142206
537,537,[-4.05933943e+03  3.37375097e+02 -4.72666462e-03 -1.31641694e+07],273,1075.4581248913535
538,538,[-3.77576270e+03  3.38376357e+02 -4.70984208e-03 -1.31641694e+07],490,1074.7616002788823
539,539,[-4.64392873e+03  3.35372888e+02 -6.04815402e-03 -1.31641694e+07],141,1074.9927726235908
540,540,[-3.63127433e+03  3.39377157e+02 -3.94958443e-03 -1.31641694e+07],1061,1075.5049022378714
541,541,[-3.69134014e+03  3.39377208e+02 -3.99659341e-03 -1.31641694e+07],606,1075.4812456409545
542,542,[-4.92603887e+03  3.34371533e+02 -6.94961985e-03 -1.31641694e+07],135,1075.6231916913957
543,543,[-3.60385597e+03  3.39377123e+02 -4.20297732e-03 -1.31641694e+07],711,1075.0336123183924
544,544,[-3.86440679e+03  3.37375230e+02 -4.79114788e-03 -1.31641694e+07],77,1074.8652544653835
545,545,[-3.54413168e+03  3.39377369e+02 -4.15285168e-03 -1.31641694e+07],733,1074.7996876362643
546,546,[-4.46922379e+03  3.36373973e+02 -5.72530191e-03 -1.31641694e+07],977,1071.413517093595
547,547,[-4.74329119e+03  3.36373804e+02 -5.53871130e-03 -1.31641694e+07],715,1069.135835822538
548,548,[-4.13273586e+03  3.37374932e+02 -4.74517648e-03 -1.31641694e+07],771,1070.0118558047538
549,549,[-4.57518373e+03  3.35372924e+02 -5.64038026e-03 -1.31641694e+07],653,1073.2867180970293
550,550,[-4.14852355e+03  3.36373826e+02 -5.41372510e-03 -1.31641694e+07],511,1075.0770167612416
551,551,[-3.74629761e+03  3.38376121e+02 -4.55055721e-03 -1.31641694e+07],82,1075.0780330295615
552,552,[-5.08860930e+03  3.34371544e+02 -6.96543000e-03 -1.31641694e+07],738,1075.6382558318774
553,553,[-4.03028932e+03  3.37375045e+02 -4.91930643e-03 -1.31641694e+07],1067,1075.6158418808423
554,554,[-4.38903079e+03  3.36373812e+02 -5.73168422e-03 -1.31641694e+07],656,1075.4709540508748
555,555,[-4.02110295e+03  3.37374941e+02 -4.97954175e-03 -1.31641694e+07],739,1075.3331635406666
556,556,[-4.12861286e+03  3.37374896e+02 -4.81670667e-03 -1.31641694e+07],705,1074.9280146436708
557,557,[-5.00712004e+03  3.34371554e+02 -6.92389628e-03 -1.31641694e+07],358,1075.7556634746643
558,558,[-3.93051136e+03  3.37375016e+02 -5.04984364e-03 -1.31641694e+07],870,1075.5902820609545
559,559,[-4.56622562e+03  3.35372730e+02 -6.26210780e-03 -1.31641694e+07],241,1075.6622230816504
560,560,[-4.76832099e+03  3.35372731e+02 -6.10822939e-03 -1.31641694e+07],157,1075.108422298692
561,561,[-4.52217861e+03  3.35372762e+02 -6.29270006e-03 -1.31641694e+07],276,1075.3117202602157
562,562,[-4.29747064e+03  3.36373831e+02 -5.67108360e-03 -1.31641694e+07],544,1074.8120988539129
563,563,[-4.07095243e+03  3.37375157e+02 -4.86210360e-03 -1.31641694e+07],1044,1075.6013322802498
564,564,[-4.01011691e+03  3.37375101e+02 -4.84165731e-03 -1.31641694e+07],243,1075.678934208261
565,565,[-3.96839910e+03  3.37374871e+02 -4.86916139e-03 -1.31641694e+07],591,1075.304266398056
566,566,[-3.94090121e+03  3.37375271e+02 -5.01726200e-03 -1.31641694e+07],506,1075.9190631855731
567,567,[-4.09497659e+03  3.37374912e+02 -4.83521599e-03 -1.31641694e+07],462,1075.653896072073
568,568,[-4.06654005e+03  3.37375057e+02 -4.73514998e-03 -1.31641694e+07],259,1075.6649681083366
569,569,[-5.02988325e+03  3.34371615e+02 -6.94210245e-03 -1.31641694e+07],787,1075.7491437770298
570,570,[-4.46779630e+03  3.36373895e+02 -5.66411530e-03 -1.31641694e+07],433,1075.3130034646406
571,571,[-4.02713809e+03  3.37374914e+02 -4.82692263e-03 -1.31641694e+07],644,1075.3980861716093
572,572,[-5.09679833e+03  3.34371571e+02 -7.02575364e-03 -1.31641694e+07],618,1075.9186191157285
573,573,[-4.95605711e+03  3.34371677e+02 -7.23035143e-03 -1.31641694e+07],134,1075.577580387093
574,574,[-3.94633087e+03  3.37374943e+02 -5.01540740e-03 -1.31641694e+07],235,1075.4525753183282
575,575,[-4.05093424e+03  3.37374923e+02 -4.84529429e-03 -1.31641694e+07],333,1075.6864876325178
576,576,[-4.52095011e+03  3.36373845e+02 -5.64567676e-03 -1.31641694e+07],960,1075.6090922372512
577,577,[-4.51520123e+03  3.36373988e+02 -5.80111724e-03 -1.31641694e+07],503,1075.0507735795904
578,578,[-4.18542688e+03  3.37375094e+02 -5.01636782e-03 -1.31641694e+07],446,1075.5172508901458
579,579,[-4.09946371e+03  3.37375036e+02 -4.83988211e-03 -1.31641694e+07],619,1075.5560114884095
580,580,[-4.59666966e+03  3.35372806e+02 -6.30786831e-03 -1.31641694e+07],436,1075.1748998818146
581,581,[-4.44123343e+03  3.36373794e+02 -6.05096825e-03 -1.31641694e+07],1038,1074.4064206070595
582,582,[-4.10937485e+03  3.37374953e+02 -4.77381089e-03 -1.31641694e+07],713,1075.558219916243
583,583,[-3.97376726e+03  3.37375177e+02 -4.85335719e-03 -1.31641694e+07],775,1075.629200057834
584,584,[-4.43295951e+03  3.36373900e+02 -6.00378836e-03 -1.31641694e+07],956,1074.75978120414
585,585,[-4.09353737e+03  3.37374984e+02 -4.75803102e-03 -1.31641694e+07],939,1075.2816798056222
586,586,[-4.11467140e+03  3.37375063e+02 -4.76547404e-03 -1.31641694e+07],297,1075.6150964844733
587,587,[-4.15708237e+03  3.36374029e+02 -5.41909616e-03 -1.31641694e+07],172,1075.4524250642698
588,588,[-4.39778977e+03  3.36374029e+02 -6.06396502e-03 -1.31641694e+07],196,1074.4748048735876
589,589,[-4.06711843e+03  3.37375072e+02 -4.79406811e-03 -1.31641694e+07],468,1075.2870763303663
590,590,[-4.64054166e+03  3.35372640e+02 -6.17203651e-03 -1.31641694e+07],562,1075.4932946048573
591,591,[-3.98822349e+03  3.37375125e+02 -4.91323709e-03 -1.31641694e+07],394,1074.8602000000133
592,592,[-4.03314805e+03  3.37374867e+02 -4.97072231e-03 -1.31641694e+07],429,1075.3292762822678
593,593,[-3.82371761e+03  3.38376039e+02 -4.23359738e-03 -1.31641694e+07],752,1074.7166870839994
594,594,[-4.31410904e+03  3.36373756e+02 -5.58415822e-03 -1.31641694e+07],716,1075.447064056134
595,595,[-4.03359175e+03  3.37375323e+02 -4.94541763e-03 -1.31641694e+07],404,1074.4804893037056
596,596,[-4.11297762e+03  3.37375032e+02 -4.79715955e-03 -1.31641694e+07],190,1072.766785608032
597,597,[-4.75106376e+03  3.35372719e+02 -6.08983001e-03 -1.31641694e+07],545,1075.0416243282332
598,598,[-4.46841764e+03  3.36373875e+02 -5.69418386e-03 -1.31641694e+07],219,1075.3754633030612
599,599,[-4.04494293e+03  3.37374891e+02 -4.96764953e-03 -1.31641694e+07],244,1075.5183623122578
600,600,[-4.06370581e+03  3.37374999e+02 -4.78806183e-03 -1.31641694e+07],418,1075.4600496619896
601,601,[-4.45003893e+03  3.36373842e+02 -5.97122505e-03 -1.31641694e+07],686,1074.7662975958594
602,602,[-3.98186926e+03  3.37374954e+02 -4.93742842e-03 -1.31641694e+07],509,1075.3084033320893
603,603,[-3.55302521e+03  3.39377250e+02 -4.18020377e-03 -1.31641694e+07],186,1075.3583804403984
604,604,[-4.04901016e+03  3.37375226e+02 -4.89922725e-03 -1.31641694e+07],630,1075.7874589289625
605,605,[-4.02600478e+03  3.37374930e+02 -4.96479855e-03 -1.31641694e+07],232,1075.7763261959876
606,606,[-4.76508106e+03  3.35372773e+02 -6.00734171e-03 -1.31641694e+07],1006,1074.9082412260504
607,607,[-4.29360938e+03  3.37375201e+02 -4.93472424e-03 -1.31641694e+07],601,1073.4051772208513
608,608,[-3.69799586e+03  3.39377107e+02 -4.03374378e-03 -1.31641694e+07],1047,1074.6691186378566
609,609,[-3.99031721e+03  3.37375009e+02 -5.01849854e-03 -1.31641694e+07],538,1075.822096092533
610,610,[-3.96781896e+03  3.37374942e+02 -4.96675272e-03 -1.31641694e+07],584,1075.4809826529447
611,611,[-3.47017940e+03  3.40378228e+02 -3.67645010e-03 -1.31641694e+07],21,1074.7354131960676
612,612,[-4.15204610e+03  3.36374020e+02 -5.46198022e-03 -1.31641694e+07],1007,1075.7965406758424
613,613,[-4.07740402e+03  3.36373888e+02 -5.59580239e-03 -1.31641694e+07],690,1075.7160690929554
614,614,[-4.17587583e+03  3.37375014e+02 -5.07431121e-03 -1.31641694e+07],879,1075.751743192304
615,615,[-4.01175265e+03  3.37375006e+02 -4.90026938e-03 -1.31641694e+07],754,1075.8171449137965
616,616,[-4.77821203e+03  3.34371913e+02 -7.14779952e-03 -1.31641694e+07],362,1075.3883670055232
617,617,[-4.02421688e+03  3.37375282e+02 -4.93633834e-03 -1.31641694e+07],163,1075.469372406768
618,618,[-4.11976393e+03  3.37374896e+02 -4.83412321e-03 -1.31641694e+07],844,1074.845678959272
619,619,[-4.49991792e+03  3.36373982e+02 -5.65616017e-03 -1.31641694e+07],320,1074.8322713595292
620,620,[-4.62014920e+03  3.35372756e+02 -6.24318739e-03 -1.31641694e+07],47,1075.0669518550549
621,621,[-3.82214792e+03  3.38376021e+02 -4.25626492e-03 -1.31641694e+07],813,1074.5095010319346
622,622,[-4.07335247e+03  3.37374982e+02 -4.84457152e-03 -1.31641694e+07],677,1075.2053582992776
623,623,[-4.84001424e+03  3.34371663e+02 -7.06706683e-03 -1.31641694e+07],611,1075.4046356921426
624,624,[-4.91656592e+03  3.34371609e+02 -7.33588647e-03 -1.31641694e+07],1064,1075.6960440560376
625,625,[-4.09082314e+03  3.37374892e+02 -4.87565776e-03 -1.31641694e+07],148,1074.9841915375864
626,626,[-4.96827834e+03  3.34371645e+02 -7.03057364e-03 -1.31641694e+07],350,1075.3537242365148
627,627,[-4.26853231e+03  3.36373940e+02 -5.66626475e-03 -1.31641694e+07],1004,1075.5156536037334
628,628,[-4.03485808e+03  3.37374981e+02 -4.88021571e-03 -1.31641694e+07],430,1075.4864989232356
629,629,[-4.07881513e+03  3.37375045e+02 -4.87244733e-03 -1.31641694e+07],137,1075.5907728705329
630,630,[-4.52886467e+03  3.35372764e+02 -5.89783953e-03 -1.31641694e+07],101,1074.7703337943287
631,631,[-3.97457597e+03  3.37375018e+02 -4.94193215e-03 -1.31641694e+07],382,1075.5236067276314
632,632,[-4.13122627e+03  3.37375143e+02 -4.78198539e-03 -1.31641694e+07],593,1074.934074179945
633,633,[-5.01752665e+03  3.34371706e+02 -7.00119436e-03 -1.31641694e+07],1076,1075.3671904960354
634,634,[-3.91290577e+03  3.37374993e+02 -4.92408012e-03 -1.31641694e+07],866,1075.5140593290914
635,635,[-3.91227846e+03  3.37375268e+02 -5.04574564e-03 -1.31641694e+07],403,1075.7489222087856
636,636,[-4.84860665e+03  3.35372873e+02 -5.97592254e-03 -1.31641694e+07],837,1074.46223282328
637,637,[-4.55520733e+03  3.35372683e+02 -6.28115626e-03 -1.31641694e+07],337,1075.6102246254743
638,638,[-4.22988547e+03  3.37375092e+02 -5.20879134e-03 -1.31641694e+07],158,1074.5619497680805
639,639,[-3.86427177e+03  3.38376167e+02 -4.22254892e-03 -1.31641694e+07],494,1072.4906665810117
640,640,[-3.85773387e+03  3.38376266e+02 -4.15148016e-03 -1.31641694e+07],793,1068.9770810750406
641,641,[-4.78467746e+03  3.35372755e+02 -5.73163385e-03 -1.31641694e+07],530,1068.1739824499234
642,642,[-4.75123485e+03  3.35372718e+02 -5.73492247e-03 -1.31641694e+07],197,1071.5542967509323
643,643,[-4.46969695e+03  3.36373763e+02 -5.61078733e-03 -1.31641694e+07],887,1073.7219554724481
644,644,[-4.27971795e+03  3.36373757e+02 -5.67472543e-03 -1.31641694e+07],181,1074.8457559569176
645,645,[-4.00718488e+03  3.37374947e+02 -4.93264800e-03 -1.31641694e+07],863,1074.4279485264874
646,646,[-4.44838000e+03  3.36373767e+02 -5.83191880e-03 -1.31641694e+07],1065,1075.141610903107
647,647,[-3.99300205e+03  3.37375176e+02 -5.04125883e-03 -1.31641694e+07],212,1075.8365705511894
648,648,[-4.41920995e+03  3.36373775e+02 -5.80741340e-03 -1.31641694e+07],263,1075.4007833032642
649,649,[-3.91628070e+03  3.37374949e+02 -4.95343923e-03 -1.31641694e+07],253,1075.1492593321116
650,650,[-3.90816972e+03  3.37375106e+02 -5.00446654e-03 -1.31641694e+07],765,1075.7214682047788
651,651,[-3.95606953e+03  3.37375081e+02 -5.04594111e-03 -1.31641694e+07],371,1075.272055184398
652,652,[-4.88064484e+03  3.36373971e+02 -5.84592361e-03 -1.31641694e+07],750,1074.9700183051395
653,653,[-4.02829554e+03  3.37374971e+02 -4.79136461e-03 -1.31641694e+07],94,1074.8943804846153
654,654,[-4.47211672e+03  3.36374071e+02 -5.77719446e-03 -1.31641694e+07],608,1075.0824402091341
655,655,[-4.12039102e+03  3.37374958e+02 -4.88625545e-03 -1.31641694e+07],801,1074.254816847899
656,656,[-4.67516405e+03  3.35372710e+02 -6.23364512e-03 -1.31641694e+07],359,1074.888830633608
657,657,[-4.00862247e+03  3.37374874e+02 -5.01518734e-03 -1.31641694e+07],303,1074.5943165981687
658,658,[-3.51154996e+03  3.39377129e+02 -4.20910991e-03 -1.31641694e+07],683,1070.982232907786
659,659,[-4.05996405e+03  3.37374899e+02 -4.82499094e-03 -1.31641694e+07],864,1073.702361345625
660,660,[-3.46381364e+03  3.40378235e+02 -3.70888184e-03 -1.31641694e+07],999,1072.7241382196962
661,661,[-4.08706107e+03  3.37375010e+02 -4.79440569e-03 -1.31641694e+07],1040,1074.5487382258077
662,662,[-4.65493140e+03  3.35372734e+02 -6.18755286e-03 -1.31641694e+07],461,1075.005154506552
663,663,[-4.03082549e+03  3.37374955e+02 -4.85597348e-03 -1.31641694e+07],964,1075.0625510888392
664,664,[-4.05953042e+03  3.37375181e+02 -4.93192823e-03 -1.31641694e+07],935,1074.9814541400547
665,665,[-4.60095186e+03  3.35372940e+02 -6.23580303e-03 -1.31641694e+07],901,1074.5852665307143
666,666,[-4.44359667e+03  3.36373894e+02 -5.80467282e-03 -1.31641694e+07],229,1075.104849597595
667,667,[-4.46945205e+03  3.36373988e+02 -5.75846464e-03 -1.31641694e+07],29,1075.093814781634
668,668,[-4.02133800e+03  3.37374991e+02 -4.78773768e-03 -1.31641694e+07],180,1074.358078421743
669,669,[-4.64631352e+03  3.35372664e+02 -6.02175406e-03 -1.31641694e+07],675,1074.0997247511007
670,670,[-4.05674674e+03  3.37374910e+02 -4.94271200e-03 -1.31641694e+07],521,1075.299966388307
671,671,[-4.75888646e+03  3.36374010e+02 -5.91033813e-03 -1.31641694e+07],60,1074.5893288241618
672,672,[-3.88365206e+03  3.37374866e+02 -5.01105759e-03 -1.31641694e+07],995,1074.936880008454
673,673,[-4.22255743e+03  3.37375235e+02 -5.00414144e-03 -1.31641694e+07],71,1075.1288270320272
674,674,[-4.99300648e+03  3.34371528e+02 -7.05043619e-03 -1.31641694e+07],936,1074.9399559975266
675,675,[-3.95629899e+03  3.37374870e+02 -5.06100385e-03 -1.31641694e+07],90,1074.6199338816127
676,676,[-4.47732560e+03  3.36374019e+02 -6.18243524e-03 -1.31641694e+07],88,1073.1449942613506
677,677,[-4.70000435e+03  3.36373757e+02 -5.73967301e-03 -1.31641694e+07],117,1074.7367723756167
678,678,[-4.00355467e+03  3.37374977e+02 -4.88687285e-03 -1.31641694e+07],947,1075.2096295789108
679,679,[-4.01187601e+03  3.37374876e+02 -4.93154986e-03 -1.31641694e+07],657,1074.9188975619427
680,680,[-4.10352791e+03  3.37374918e+02 -4.83830373e-03 -1.31641694e+07],387,1075.638312853189
681,681,[-4.53128509e+03  3.35372689e+02 -5.77683485e-03 -1.31641694e+07],959,1073.6208224465747
682,682,[-4.01431889e+03  3.37375279e+02 -5.03918092e-03 -1.31641694e+07],968,1075.3249184756587
683,683,[-4.02355064e+03  3.38376114e+02 -4.73237981e-03 -1.31641694e+07],671,1074.6589386232042
684,684,[-4.06442791e+03  3.37374963e+02 -4.83566357e-03 -1.31641694e+07],162,1075.0728006696702
685,685,[-4.00125891e+03  3.37375230e+02 -5.03739021e-03 -1.31641694e+07],1019,1075.0520411174564
686,686,[-4.16889035e+03  3.37374886e+02 -5.19517020e-03 -1.31641694e+07],50,1074.7839624561475
687,687,[-4.79802399e+03  3.36373770e+02 -6.06248213e-03 -1.31641694e+07],665,1074.5615286374505
688,688,[-3.95661494e+03  3.37374908e+02 -4.84295891e-03 -1.31641694e+07],876,1075.6124164834275
689,689,[-4.48838149e+03  3.36373831e+02 -5.71370970e-03 -1.31641694e+07],274,1075.440905554797
690,690,[-3.95665268e+03  3.37375439e+02 -4.97552916e-03 -1.31641694e+07],351,1074.7541490000633
691,691,[-4.10402578e+03  3.37374947e+02 -5.23646404e-03 -1.31641694e+07],160,1075.3938331409047
692,692,[-4.05797761e+03  3.37375002e+02 -4.93216450e-03 -1.31641694e+07],242,1075.7247558442448
693,693,[-4.53869571e+03  3.35372697e+02 -5.85084240e-03 -1.31641694e+07],126,1074.047026328772
694,694,[-3.95130822e+03  3.37374944e+02 -5.06332092e-03 -1.31641694e+07],106,1075.5987400176941
695,695,[-4.16271496e+03  3.37374991e+02 -5.13016855e-03 -1.31641694e+07],206,1075.540901028945
696,696,[-4.07645829e+03  3.37375298e+02 -4.95598156e-03 -1.31641694e+07],996,1075.6819416173107
697,697,[-3.94978139e+03  3.37375059e+02 -4.99643914e-03 -1.31641694e+07],321,1075.4450911096233
698,698,[-4.00640800e+03  3.37375088e+02 -4.96622581e-03 -1.31641694e+07],638,1075.1991333073802
699,699,[-4.28194023e+03  3.37375119e+02 -4.97885090e-03 -1.31641694e+07],687,1075.2637984709372
700,700,[-4.12637895e+03  3.37375073e+02 -4.79685394e-03 -1.31641694e+07],112,1075.2954160667862
701,701,[-4.02063367e+03  3.37374960e+02 -5.00745834e-03 -1.31641694e+07],271,1075.5211239294415
702,702,[-3.54103368e+03  3.39377207e+02 -4.22503519e-03 -1.31641694e+07],140,1075.2059078567754
703,703,[-4.74917079e+03  3.35372686e+02 -6.22342550e-03 -1.31641694e+07],736,1075.174330353475
704,704,[-4.06168504e+03  3.37374890e+02 -4.87583433e-03 -1.31641694e+07],1059,1075.4837185604804
705,705,[-4.70897677e+03  3.35372794e+02 -6.04950789e-03 -1.31641694e+07],661,1074.8825078996
706,706,[-3.99710868e+03  3.37374919e+02 -5.00473315e-03 -1.31641694e+07],309,1075.4618999094541
707,707,[-3.74434002e+03  3.38376238e+02 -4.22963394e-03 -1.31641694e+07],385,1074.3878121556675
708,708,[-4.11262227e+03  3.37375061e+02 -4.83650372e-03 -1.31641694e+07],867,1075.6647152458695
709,709,[-4.69059005e+03  3.35372961e+02 -5.98350426e-03 -1.31641694e+07],399,1074.9272281100161
710,710,[-4.71557121e+03  3.35372852e+02 -6.23209557e-03 -1.31641694e+07],729,1075.221463486343
711,711,[-4.26819099e+03  3.37375157e+02 -4.99339292e-03 -1.31641694e+07],998,1074.8992950256184
712,712,[-3.64744626e+03  3.39377129e+02 -4.09617821e-03 -1.31641694e+07],223,1075.038643584051
713,713,[-4.42893339e+03  3.36374003e+02 -5.79409390e-03 -1.31641694e+07],745,1074.8267822377773
714,714,[-4.21580721e+03  3.37375057e+02 -5.07056887e-03 -1.31641694e+07],751,1075.6622284873947
715,715,[-3.82061166e+03  3.38376221e+02 -4.31871484e-03 -1.31641694e+07],621,1074.8972059850018
716,716,[-3.53846123e+03  3.39377089e+02 -4.25369875e-03 -1.31641694e+07],344,1074.8011979118785
717,717,[-3.85108134e+03  3.38376229e+02 -4.22870234e-03 -1.31641694e+07],108,1074.9521047547064
718,718,[-5.01519124e+03  3.34371663e+02 -7.06588899e-03 -1.31641694e+07],853,1075.4271364917697
719,719,[-3.97925862e+03  3.37374933e+02 -4.93754249e-03 -1.31641694e+07],218,1075.330160760556
720,720,[-3.98257525e+03  3.37375106e+02 -4.93984731e-03 -1.31641694e+07],1062,1075.2929814371432
721,721,[-4.90881361e+03  3.36373994e+02 -5.87358001e-03 -1.31641694e+07],512,1075.201208148571
722,722,[-3.58562281e+03  3.39377348e+02 -4.11472012e-03 -1.31641694e+07],221,1075.389330218523
723,723,[-3.96293173e+03  3.37375160e+02 -5.05902655e-03 -1.31641694e+07],377,1075.230536498457
724,724,[-4.00659098e+03  3.37375012e+02 -5.00353805e-03 -1.31641694e+07],22,1075.356706374803
725,725,[-4.23451786e+03  3.37374882e+02 -5.06002155e-03 -1.31641694e+07],762,1075.6841212294428
726,726,[-4.09865816e+03  3.37374958e+02 -4.79089738e-03 -1.31641694e+07],1074,1075.5921923823787
727,727,[-3.56293580e+03  3.39377173e+02 -4.15175274e-03 -1.31641694e+07],187,1074.314092054553
728,728,[-4.76038659e+03  3.35372748e+02 -6.05315515e-03 -1.31641694e+07],177,1073.9694351123837
729,729,[-3.98864966e+03  3.37375055e+02 -4.95918798e-03 -1.31641694e+07],1060,1074.5257237451399
730,730,[-4.12052516e+03  3.37375119e+02 -4.81610604e-03 -1.31641694e+07],171,1075.155513353345
731,731,[-4.03956552e+03  3.37374945e+02 -4.94006180e-03 -1.31641694e+07],11,1075.0492518494775
732,732,[-3.99421442e+03  3.37374924e+02 -5.08321455e-03 -1.31641694e+07],595,1074.9259665888337
733,733,[-4.02585616e+03  3.38376193e+02 -4.74349564e-03 -1.31641694e+07],958,1074.897873381756
734,734,[-4.17526503e+03  3.37375097e+02 -5.11362228e-03 -1.31641694e+07],588,1075.7852197291181
735,735,[-4.49940995e+03  3.36373813e+02 -5.77781997e-03 -1.31641694e+07],79,1075.1013401491107
736,736,[-4.59456544e+03  3.36373812e+02 -6.17649817e-03 -1.31641694e+07],840,1074.5524863081969
737,737,[-3.62810929e+03  3.39377134e+02 -4.05386763e-03 -1.31641694e+07],636,1075.5085133442803
738,738,[-3.71388077e+03  3.39377140e+02 -4.08220893e-03 -1.31641694e+07],86,1074.890210272322
739,739,[-4.00217063e+03  3.37375010e+02 -4.90588072e-03 -1.31641694e+07],72,1074.8839152138905
740,740,[-4.63304499e+03  3.36373828e+02 -6.01191984e-03 -1.31641694e+07],808,1074.0626173350313
741,741,[-4.14011963e+03  3.37374956e+02 -4.84698941e-03 -1.31641694e+07],258,1075.5461306033174
742,742,[-4.05461244e+03  3.37374979e+02 -4.84886129e-03 -1.31641694e+07],251,1075.9660438799474
743,743,[-4.17785805e+03  3.37375097e+02 -5.06034772e-03 -1.31641694e+07],383,1075.2907056259114
744,744,[-4.20906437e+03  3.37375335e+02 -5.26163978e-03 -1.31641694e+07],381,1074.1429958803055
745,745,[-4.92444007e+03  3.36373903e+02 -5.84313591e-03 -1.31641694e+07],165,1074.5145392553193
746,746,[-4.06779006e+03  3.37374914e+02 -4.84011796e-03 -1.31641694e+07],1054,1075.7257126876143
747,747,[-4.67589509e+03  3.35372686e+02 -6.23640060e-03 -1.31641694e+07],316,1075.095883038067
748,748,[-4.04220777e+03  3.37374943e+02 -5.01535466e-03 -1.31641694e+07],1005,1075.234064003853
749,749,[-4.26219513e+03  3.37375009e+02 -4.98770715e-03 -1.31641694e+07],856,1075.5524154297048
750,750,[-4.04953903e+03  3.37375104e+02 -4.87960671e-03 -1.31641694e+07],518,1074.6732913516912
751,751,[-4.03760542e+03  3.37374912e+02 -4.96193695e-03 -1.31641694e+07],41,1074.5139604776004
752,752,[-3.84151166e+03  3.38376031e+02 -4.35580606e-03 -1.31641694e+07],645,1074.8032183694384
753,753,[-3.98497232e+03  3.37374890e+02 -4.98634816e-03 -1.31641694e+07],0,1075.1102127360928
754,754,[-4.07674605e+03  3.37374936e+02 -4.94684456e-03 -1.31641694e+07],183,1074.7502561188232
755,755,[-4.80485768e+03  3.35372768e+02 -6.09406904e-03 -1.31641694e+07],1002,1075.0128236850921
756,756,[-3.97341986e+03  3.37374871e+02 -5.10218319e-03 -1.31641694e+07],104,1075.3783466752584
757,757,[-4.27658309e+03  3.37374992e+02 -5.03622832e-03 -1.31641694e+07],943,1074.2488811292617
758,758,[-4.72948750e+03  3.36373798e+02 -5.66442121e-03 -1.31641694e+07],1063,1074.9288128240155
759,759,[-4.86418411e+03  3.36373825e+02 -5.78179495e-03 -1.31641694e+07],581,1075.398567453621
760,760,[-4.73991077e+03  3.35372694e+02 -6.11978901e-03 -1.31641694e+07],907,1075.4924221678707
761,761,[-4.02231768e+03  3.37375111e+02 -4.84958045e-03 -1.31641694e+07],396,1075.1036650084404
762,762,[-4.13386327e+03  3.37374888e+02 -5.17189861e-03 -1.31641694e+07],1050,1074.4922558565115
763,763,[-4.85810773e+03  3.35372744e+02 -5.99805476e-03 -1.31641694e+07],189,1075.0611749033017
764,764,[-4.21278095e+03  3.37374922e+02 -5.10955249e-03 -1.31641694e+07],166,1074.2833521831733
765,765,[-4.02714275e+03  3.37375245e+02 -4.88417185e-03 -1.31641694e+07],408,1074.6798255720582
766,766,[-3.98241672e+03  3.37375134e+02 -4.93716801e-03 -1.31641694e+07],373,1075.0027287787561
767,767,[-3.85956879e+03  3.38376150e+02 -4.37267436e-03 -1.31641694e+07],785,1074.9952265255815
768,768,[-4.09403492e+03  3.37374910e+02 -4.81450186e-03 -1.31641694e+07],707,1075.6707679960107
769,769,[-4.56969359e+03  3.36373935e+02 -5.71126794e-03 -1.31641694e+07],269,1075.5101069860077
770,770,[-3.98598296e+03  3.37375158e+02 -4.88606268e-03 -1.31641694e+07],174,1075.246587639194
771,771,[-4.03689750e+03  3.37375025e+02 -4.99315361e-03 -1.31641694e+07],428,1074.8953607257752
772,772,[-4.96817029e+03  3.36373810e+02 -5.88300431e-03 -1.31641694e+07],92,1075.0432060941257
773,773,[-4.22603842e+03  3.37374937e+02 -5.00668423e-03 -1.31641694e+07],1016,1075.850137078609
774,774,[-3.64673238e+03  3.39377166e+02 -4.19097218e-03 -1.31641694e+07],176,1075.0774133048653
775,775,[-4.00063452e+03  3.37374870e+02 -4.97079191e-03 -1.31641694e+07],323,1074.8262156036567
776,776,[-4.09102379e+03  3.37375140e+02 -4.94260882e-03 -1.31641694e+07],1052,1075.5730814691196
777,777,[-4.83345529e+03  3.35372791e+02 -6.10541178e-03 -1.31641694e+07],668,1075.5725368951712
778,778,[-4.66582460e+03  3.35372710e+02 -6.09430967e-03 -1.31641694e+07],299,1074.934324787477
779,779,[-3.96608068e+03  3.37374977e+02 -4.97924899e-03 -1.31641694e+07],391,1075.116365851013
780,780,[-4.14018433e+03  3.37374895e+02 -4.84193388e-03 -1.31641694e+07],52,1075.117702890276
781,781,[-4.21056724e+03  3.37374907e+02 -5.03819176e-03 -1.31641694e+07],136,1075.6173609135933
782,782,[-4.45935288e+03  3.36374122e+02 -5.77752711e-03 -1.31641694e+07],122,1075.1845675456102
783,783,[-4.60073740e+03  3.36374091e+02 -6.05577604e-03 -1.31641694e+07],289,1074.308953008942
784,784,[-4.07191505e+03  3.37374917e+02 -4.92500757e-03 -1.31641694e+07],213,1075.5507101587962
785,785,[-4.53016304e+03  3.36373830e+02 -6.20853895e-03 -1.31641694e+07],386,1074.3881689421155
786,786,[-4.05313379e+03  3.37374932e+02 -5.01959412e-03 -1.31641694e+07],13,1075.4274748800465
787,787,[-4.14071137e+03  3.37374985e+02 -4.85650059e-03 -1.31641694e+07],20,1074.8476847755014
788,788,[-4.14658302e+03  3.37375261e+02 -4.71511535e-03 -1.31641694e+07],1000,1072.2288221585663
789,789,[-4.90338396e+03  3.35372700e+02 -6.01436654e-03 -1.31641694e+07],934,1071.2402805628542
790,790,[-4.55862983e+03  3.36373788e+02 -5.66002718e-03 -1.31641694e+07],942,1071.5303232466067
791,791,[-4.03729808e+03  3.37375113e+02 -4.91782867e-03 -1.31641694e+07],727,1074.9995630568606
792,792,[-4.19668407e+03  3.37374909e+02 -5.12761149e-03 -1.31641694e+07],783,1075.112632323888
793,793,[-4.29798105e+03  3.37375037e+02 -5.03689717e-03 -1.31641694e+07],456,1074.6909367480948
794,794,[-4.81828970e+03  3.35372687e+02 -5.97934152e-03 -1.31641694e+07],153,1075.2489956289508
795,795,[-4.68554010e+03  3.35372655e+02 -6.21564828e-03 -1.31641694e+07],850,1075.6120868446076
796,796,[-4.00071499e+03  3.37375040e+02 -5.03766290e-03 -1.31641694e+07],224,1075.670337123197
797,797,[-4.84674356e+03  3.35372663e+02 -5.63083591e-03 -1.31641694e+07],764,1073.7533859972543
798,798,[-4.11474729e+03  3.37375081e+02 -4.75728813e-03 -1.31641694e+07],345,1075.777491853292
799,799,[-4.03955712e+03  3.37375140e+02 -4.94702018e-03 -1.31641694e+07],434,1075.6087295881882
800,800,[-3.80819753e+03  3.38376196e+02 -4.36890689e-03 -1.31641694e+07],845,1075.4870064645672
801,801,[-3.66945164e+03  3.39377422e+02 -4.05582943e-03 -1.31641694e+07],924,1074.6680207110016
802,802,[-4.09497463e+03  3.37374942e+02 -4.76239982e-03 -1.31641694e+07],55,1075.3408586318194
803,803,[-4.02741444e+03  3.37374981e+02 -4.95892054e-03 -1.31641694e+07],432,1075.3546063735955
804,804,[-4.20650056e+03  3.37374943e+02 -5.12160155e-03 -1.31641694e+07],154,1075.4663258943106
805,805,[-4.61437793e+03  3.36373791e+02 -5.81527131e-03 -1.31641694e+07],390,1075.0576127005597
806,806,[-4.48014290e+03  3.36373820e+02 -5.80531383e-03 -1.31641694e+07],655,1075.36444463155
807,807,[-3.73434072e+03  3.38376000e+02 -4.43925685e-03 -1.31641694e+07],841,1075.4473712145864
808,808,[-3.88636044e+03  3.38376100e+02 -4.23483854e-03 -1.31641694e+07],757,1074.458983061686
809,809,[-4.03234075e+03  3.37375219e+02 -4.86992016e-03 -1.31641694e+07],415,1075.6461057425684
810,810,[-4.54931372e+03  3.36373836e+02 -5.78761891e-03 -1.31641694e+07],63,1075.1101885423682
811,811,[-4.08396597e+03  3.37375154e+02 -5.01653074e-03 -1.31641694e+07],1042,1075.0849350773817
812,812,[-4.96033357e+03  3.36373849e+02 -5.81134994e-03 -1.31641694e+07],400,1074.1605788042775
813,813,[-4.75962615e+03  3.35372904e+02 -6.00073077e-03 -1.31641694e+07],1037,1074.7386567593064
814,814,[-4.13356756e+03  3.37374924e+02 -5.16735758e-03 -1.31641694e+07],310,1075.2273234134123
815,815,[-4.09943916e+03  3.37374895e+02 -4.91612149e-03 -1.31641694e+07],993,1075.267019212054
816,816,[-4.19310746e+03  3.37375068e+02 -5.06023200e-03 -1.31641694e+07],105,1075.132859200668
817,817,[-4.63092376e+03  3.35372659e+02 -6.23886533e-03 -1.31641694e+07],170,1075.1864335911694
818,818,[-4.07015270e+03  3.37374965e+02 -4.88292413e-03 -1.31641694e+07],1051,1075.212069640805
819,819,[-4.43073026e+03  3.36374149e+02 -5.81094126e-03 -1.31641694e+07],30,1075.6712736415518
820,820,[-3.93519942e+03  3.37374918e+02 -4.96168492e-03 -1.31641694e+07],877,1075.2968265027203
821,821,[-4.08678992e+03  3.37374954e+02 -4.91217030e-03 -1.31641694e+07],260,1075.6389455170183
822,822,[-4.02943380e+03  3.37375097e+02 -4.93179368e-03 -1.31641694e+07],110,1075.640044519194
823,823,[-3.98168335e+03  3.37375067e+02 -5.01074168e-03 -1.31641694e+07],969,1075.5701036595951
824,824,[-3.99614504e+03  3.37374868e+02 -4.98457140e-03 -1.31641694e+07],10,1075.4865023560585
825,825,[-4.68923266e+03  3.36373797e+02 -5.71883246e-03 -1.31641694e+07],304,1075.1022079357956
826,826,[-4.05342704e+03  3.37374880e+02 -4.92704038e-03 -1.31641694e+07],87,1075.7684048381163
827,827,[-4.47993642e+03  3.36373795e+02 -5.83219301e-03 -1.31641694e+07],119,1075.3520996458215
828,828,[-4.20885825e+03  3.37375168e+02 -5.09430760e-03 -1.31641694e+07],812,1075.5631471590264
829,829,[-4.48055942e+03  3.36373786e+02 -5.76023695e-03 -1.31641694e+07],412,1075.4809508665
830,830,[-4.58932144e+03  3.36373864e+02 -6.23780949e-03 -1.31641694e+07],448,1074.0356034470276
831,831,[-3.24115079e+03  3.40378226e+02 -3.80241565e-03 -1.31641694e+07],392,1075.6961733999499
832,832,[-4.09001775e+03  3.37374977e+02 -4.84097879e-03 -1.31641694e+07],744,1075.574048079169
833,833,[-4.59256507e+03  3.35372785e+02 -6.32468787e-03 -1.31641694e+07],1027,1075.5029787621013
834,834,[-4.50436913e+03  3.35372819e+02 -5.90604829e-03 -1.31641694e+07],975,1073.8556243005928
835,835,[-3.79210525e+03  3.38376380e+02 -4.44152738e-03 -1.31641694e+07],155,1075.396420098403
836,836,[-4.51177368e+03  3.36373984e+02 -5.72328944e-03 -1.31641694e+07],89,1075.3165083201125
837,837,[-4.54843771e+03  3.35372707e+02 -6.36108223e-03 -1.31641694e+07],895,1074.7028871703167
838,838,[-4.05490381e+03  3.37374976e+02 -4.97653232e-03 -1.31641694e+07],925,1075.3375841564007
839,839,[-4.22807365e+03  3.37375317e+02 -5.04850340e-03 -1.31641694e+07],992,1075.3528367736774
840,840,[-4.73445970e+03  3.35372745e+02 -6.03438338e-03 -1.31641694e+07],669,1074.4640435046376
841,841,[-3.53686339e+03  3.39377424e+02 -4.27701533e-03 -1.31641694e+07],8,1074.251834300141
842,842,[-4.21095319e+03  3.37375012e+02 -5.10738109e-03 -1.31641694e+07],411,1075.5058696763804
843,843,[-4.09909056e+03  3.37374891e+02 -4.87220753e-03 -1.31641694e+07],376,1075.5604404213288
844,844,[-4.66400991e+03  3.35372687e+02 -6.35715937e-03 -1.31641694e+07],1,1074.747469281626
845,845,[-4.16147642e+03  3.37375075e+02 -5.22083665e-03 -1.31641694e+07],314,1074.2746495530466
846,846,[-3.85622660e+03  3.38376049e+02 -4.37518152e-03 -1.31641694e+07],133,1075.242069778637
847,847,[-3.83281535e+03  3.38376087e+02 -4.35936179e-03 -1.31641694e+07],849,1075.7730333161942
848,848,[-4.02815463e+03  3.37375008e+02 -4.91431039e-03 -1.31641694e+07],38,1075.1863038412353
849,849,[-3.59400514e+03  3.39377504e+02 -4.23567561e-03 -1.31641694e+07],740,1074.0673613269716
850,850,[-4.16801332e+03  3.37374944e+02 -5.24579270e-03 -1.31641694e+07],897,1074.2993250493187
851,851,[-3.64328316e+03  3.39377111e+02 -4.09718191e-03 -1.31641694e+07],858,1075.4288923139407
852,852,[-4.22548094e+03  3.37375093e+02 -5.07391695e-03 -1.31641694e+07],308,1075.585757868661
853,853,[-4.56647499e+03  3.36373805e+02 -5.84873439e-03 -1.31641694e+07],693,1074.5038916591323
854,854,[-4.01546040e+03  3.37374872e+02 -5.02621824e-03 -1.31641694e+07],894,1075.604362151653
855,855,[-3.64284851e+03  3.39377419e+02 -4.08899098e-03 -1.31641694e+07],1031,1075.3401600871223
856,856,[-3.56548664e+03  3.39377227e+02 -4.24026841e-03 -1.31641694e+07],64,1074.436759082891
857,857,[-4.17171566e+03  3.37375034e+02 -5.18746502e-03 -1.31641694e+07],389,1075.154046624799
858,858,[-4.84690057e+03  3.36373898e+02 -6.21332773e-03 -1.31641694e+07],830,1074.055846984473
859,859,[-4.18216252e+03  3.37374863e+02 -5.08189680e-03 -1.31641694e+07],54,1075.3030692548016
860,860,[-3.97321318e+03  3.37375191e+02 -5.05294985e-03 -1.31641694e+07],1014,1075.0523709190404
861,861,[-4.27349606e+03  3.37375021e+02 -5.09523115e-03 -1.31641694e+07],1012,1075.4616439360423
862,862,[-4.83349649e+03  3.35372744e+02 -6.10212570e-03 -1.31641694e+07],125,1075.2355719236818
863,863,[-4.53798292e+03  3.36373937e+02 -5.76904388e-03 -1.31641694e+07],18,1074.684186051561
864,864,[-4.05569618e+03  3.37374914e+02 -4.97746154e-03 -1.31641694e+07],407,1074.6577472652314
865,865,[-3.16129458e+03  3.41379590e+02 -3.41128781e-03 -1.31641694e+07],150,1075.5022141441436
866,866,[-3.80962915e+03  3.38376340e+02 -4.31085928e-03 -1.31641694e+07],981,1074.7086633181946
867,867,[-3.99010066e+03  3.37375009e+02 -4.95934227e-03 -1.31641694e+07],346,1074.5305511774004
868,868,[-4.20490460e+03  3.37374877e+02 -4.98266658e-03 -1.31641694e+07],62,1075.0097440391307
869,869,[-4.65672392e+03  3.36373767e+02 -5.69044254e-03 -1.31641694e+07],290,1075.4214059249875
870,870,[-4.73628698e+03  3.35372648e+02 -6.04657092e-03 -1.31641694e+07],288,1074.8734034584727
871,871,[-4.11099203e+03  3.37375092e+02 -4.91966140e-03 -1.31641694e+07],728,1075.5731715272868
872,872,[-3.96614912e+03  3.38376074e+02 -4.47441253e-03 -1.31641694e+07],983,1075.5804920983808
873,873,[-4.05591985e+03  3.37374882e+02 -4.87617171e-03 -1.31641694e+07],7,1075.3740767984564
874,874,[-4.03445613e+03  3.37374947e+02 -4.96698927e-03 -1.31641694e+07],954,1074.968985471631
875,875,[-4.87635872e+03  3.35372799e+02 -6.51707473e-03 -1.31641694e+07],256,1075.379945746098
876,876,[-4.83785170e+03  3.35372946e+02 -5.98826421e-03 -1.31641694e+07],66,1074.583729998515
877,877,[-4.01382355e+03  3.37375087e+02 -4.99160117e-03 -1.31641694e+07],53,1074.1932570399665
878,878,[-4.78194108e+03  3.36373761e+02 -6.06724177e-03 -1.31641694e+07],878,1073.9140440278438
879,879,[-4.87068282e+03  3.36373790e+02 -5.95227614e-03 -1.31641694e+07],97,1074.7525577689546
880,880,[-3.93414519e+03  3.37374994e+02 -4.99078620e-03 -1.31641694e+07],19,1075.079709822991
881,881,[-4.16058608e+03  3.37374873e+02 -5.17769924e-03 -1.31641694e+07],161,1075.40924236293
882,882,[-4.11136133e+03  3.37374961e+02 -4.90391454e-03 -1.31641694e+07],294,1075.694400529781
883,883,[-4.15052484e+03  3.37374907e+02 -5.12619200e-03 -1.31641694e+07],257,1075.5628349494573
884,884,[-4.73491107e+03  3.35372959e+02 -6.19113054e-03 -1.31641694e+07],302,1075.0660849091382
885,885,[-3.44505991e+03  3.40378339e+02 -4.09541792e-03 -1.31641694e+07],398,1073.5829477455536
886,886,[-3.63951366e+03  3.39377211e+02 -4.08493205e-03 -1.31641694e+07],194,1075.4264671000014
887,887,[-3.67771932e+03  3.39377166e+02 -4.34866744e-03 -1.31641694e+07],834,1074.6894548397072
888,888,[-4.16067434e+03  3.37374897e+02 -5.20068101e-03 -1.31641694e+07],384,1075.528221421915
889,889,[-4.71784048e+03  3.36374040e+02 -5.82284627e-03 -1.31641694e+07],178,1075.126454494415
890,890,[-4.04025211e+03  3.37374940e+02 -4.90999670e-03 -1.31641694e+07],296,1075.4972636317752
891,891,[-4.11857296e+03  3.37374882e+02 -5.24481809e-03 -1.31641694e+07],46,1075.0254693578452
892,892,[-4.24497485e+03  3.37375067e+02 -5.11085449e-03 -1.31641694e+07],80,1075.4478191717799
893,893,[-5.27203703e+03  3.34371805e+02 -7.57480328e-03 -1.31641694e+07],495,1075.070143979113
894,894,[-4.00765065e+03  3.37375198e+02 -5.16854092e-03 -1.31641694e+07],405,1074.0454697505013
895,895,[-4.20896472e+03  3.37374987e+02 -5.20356447e-03 -1.31641694e+07],941,1074.110643618655
896,896,[-4.22932499e+03  3.37374957e+02 -5.14306184e-03 -1.31641694e+07],9,1075.487675583414
897,897,[-4.61812947e+03  3.36374081e+02 -6.10735422e-03 -1.31641694e+07],305,1074.0572612921644
898,898,[-4.13029971e+03  3.37375001e+02 -5.02704189e-03 -1.31641694e+07],68,1075.2980504436919
899,899,[-4.88429563e+03  3.36374068e+02 -5.96460880e-03 -1.31641694e+07],945,1075.0263016841875
900,900,[-3.98561084e+03  3.37374880e+02 -5.09585450e-03 -1.31641694e+07],1048,1075.5018236663366
901,901,[-4.02651206e+03  3.37375245e+02 -4.96298499e-03 -1.31641694e+07],168,1074.6319317316422
902,902,[-4.09511629e+03  3.37374861e+02 -4.95890487e-03 -1.31641694e+07],156,1075.5343038313833
903,903,[-4.02011032e+03  3.37375030e+02 -4.98227440e-03 -1.31641694e+07],797,1074.9973040923533
904,904,[-4.00123686e+03  3.37374967e+02 -5.07717304e-03 -1.31641694e+07],375,1074.9691864532501
905,905,[-4.27401064e+03  3.37375093e+02 -5.04883387e-03 -1.31641694e+07],139,1075.567513712952
906,906,[-4.19139979e+03  3.37374933e+02 -5.08503842e-03 -1.31641694e+07],978,1075.2866037601104
907,907,[-4.11770763e+03  3.37375367e+02 -5.24473439e-03 -1.31641694e+07],643,1074.4058984980852
908,908,[-3.77378043e+03  3.38376094e+02 -4.48299895e-03 -1.31641694e+07],659,1075.2628405496048
909,909,[-3.66235071e+03  3.39377277e+02 -4.12874647e-03 -1.31641694e+07],146,1075.4632910755881
910,910,[-3.56452596e+03  3.39377497e+02 -4.15036387e-03 -1.31641694e+07],67,1075.413150579238
911,911,[-4.01640058e+03  3.37374936e+02 -4.98975169e-03 -1.31641694e+07],175,1075.4480787974062
912,912,[-3.77970934e+03  3.38376441e+02 -4.42716380e-03 -1.31641694e+07],312,1075.360632485667
913,913,[-4.03969686e+03  3.37375016e+02 -5.00219027e-03 -1.31641694e+07],341,1071.8566816208313
914,914,[-4.21882266e+03  3.36373896e+02 -5.24457280e-03 -1.31641694e+07],70,1069.8150195481503
915,915,[-3.77591056e+03  3.38375975e+02 -4.40945154e-03 -1.31641694e+07],6,1068.8381829733296
916,916,[-4.73779596e+03  3.35372669e+02 -5.81846965e-03 -1.31641694e+07],1041,1067.4714635186845
917,917,[-3.89830595e+03  3.38376146e+02 -4.26905397e-03 -1.31641694e+07],152,1067.3479817027953
918,918,[-4.50054613e+03  3.36373934e+02 -5.09581517e-03 -1.31641694e+07],416,1064.6948835428482
919,919,[-4.42302305e+03  3.36373875e+02 -4.97924246e-03 -1.31641694e+07],681,1064.8475780220485
920,920,[-4.95268327e+03  3.35372692e+02 -6.01703271e-03 -1.31641694e+07],12,1069.121501391739
921,921,[-4.59821851e+03  3.35372931e+02 -5.84128180e-03 -1.31641694e+07],1030,1069.7749946819076
922,922,[-4.38492352e+03  3.36373767e+02 -5.15149704e-03 -1.31641694e+07],885,1068.2062523556604
923,923,[-4.18322513e+03  3.37374886e+02 -4.83016263e-03 -1.31641694e+07],311,1072.5061098859335
924,924,[-4.01644729e+03  3.37374886e+02 -4.99544609e-03 -1.31641694e+07],307,1074.2713164703948
925,925,[-4.73478559e+03  3.35372736e+02 -6.09083188e-03 -1.31641694e+07],250,1074.1060300916217
926,926,[-4.13227539e+03  3.37374948e+02 -5.02454986e-03 -1.31641694e+07],132,1070.3396553851576
927,927,[-3.91060716e+03  3.38376299e+02 -4.23049979e-03 -1.31641694e+07],291,1067.509419172245
928,928,[-4.12503724e+03  3.37374887e+02 -4.82960535e-03 -1.31641694e+07],319,1064.0084665147863
929,929,[-4.57859496e+03  3.35372644e+02 -5.52888354e-03 -1.31641694e+07],69,1063.27662123405
930,930,[-5.13664336e+03  3.34371699e+02 -6.75963140e-03 -1.31641694e+07],37,1068.794455649934
931,931,[-4.62475854e+03  3.36373783e+02 -5.64386509e-03 -1.31641694e+07],169,1069.581121809452
932,932,[-4.09931087e+03  3.37375090e+02 -4.84900128e-03 -1.31641694e+07],313,1072.82036235005
933,933,[-4.14366279e+03  3.37375014e+02 -5.19414396e-03 -1.31641694e+07],951,1073.3404401956066
934,934,[-3.76496331e+03  3.38376286e+02 -4.38742329e-03 -1.31641694e+07],944,1074.3287540636193
935,935,[-4.16790520e+03  3.37374978e+02 -5.20970742e-03 -1.31641694e+07],292,1074.6326148094718
936,936,[-3.76581876e+03  3.38375983e+02 -4.44394410e-03 -1.31641694e+07],301,1074.6088700121932
937,937,[-3.85844532e+03  3.38376090e+02 -4.40569805e-03 -1.31641694e+07],329,1075.043142400232
938,938,[-4.19715891e+03  3.37374872e+02 -4.97572047e-03 -1.31641694e+07],315,1075.0666608155727
939,939,[-4.06336601e+03  3.37375023e+02 -4.92979995e-03 -1.31641694e+07],1055,1074.8193486635087
940,940,[-3.99401884e+03  3.37374984e+02 -4.95253616e-03 -1.31641694e+07],607,1074.935552570074
941,941,[-4.18437487e+03  3.37375212e+02 -5.16460116e-03 -1.31641694e+07],113,1073.8172447283278
942,942,[-4.92983472e+03  3.36373765e+02 -6.02656453e-03 -1.31641694e+07],946,1074.3157421560013
943,943,[-4.58800094e+03  3.37374915e+02 -5.20407761e-03 -1.31641694e+07],306,1074.4098557570255
944,944,[-4.67230452e+03  3.36373846e+02 -5.69735305e-03 -1.31641694e+07],933,1073.4533598815833
945,945,[-4.23052804e+03  3.37375194e+02 -5.12734125e-03 -1.31641694e+07],393,1073.7858802847502
946,946,[-3.75409876e+03  3.38376038e+02 -4.50297311e-03 -1.31641694e+07],549,1073.3564492401547
947,947,[-4.09611397e+03  3.37374993e+02 -4.99399899e-03 -1.31641694e+07],138,1074.5960445805372
948,948,[-4.32185815e+03  3.37375267e+02 -4.99273082e-03 -1.31641694e+07],51,1075.5792800207305
949,949,[-4.77631313e+03  3.35372714e+02 -6.05064403e-03 -1.31641694e+07],1017,1075.0893875427769
950,950,[-4.12382007e+03  3.37375052e+02 -5.20787324e-03 -1.31641694e+07],123,1075.3926355150445
951,951,[-4.61390879e+03  3.37375014e+02 -5.21866058e-03 -1.31641694e+07],182,1073.48408279577
952,952,[-3.62540974e+03  3.39377123e+02 -4.13514587e-03 -1.31641694e+07],952,1073.2236134130055
953,953,[-4.80922056e+03  3.36373819e+02 -6.15784634e-03 -1.31641694e+07],410,1072.8333506338417
954,954,[-4.67941760e+03  3.36373765e+02 -5.78549476e-03 -1.31641694e+07],363,1073.9429299736028
955,955,[-4.63170218e+03  3.36373801e+02 -6.27746446e-03 -1.31641694e+07],343,1072.5120759173685
956,956,[-4.20961486e+03  3.37374959e+02 -5.01031882e-03 -1.31641694e+07],493,1074.8227203899753
957,957,[-4.05642274e+03  3.37374871e+02 -4.99266178e-03 -1.31641694e+07],5,1075.5079954970236
958,958,[-4.19827678e+03  3.37375080e+02 -5.24491952e-03 -1.31641694e+07],35,1074.4756432375423
959,959,[-4.27204520e+03  3.37374990e+02 -5.20976920e-03 -1.31641694e+07],676,1074.5914629448262
960,960,[-4.78733657e+03  3.36373835e+02 -5.76282531e-03 -1.31641694e+07],402,1074.834789155281
961,961,[-4.84192655e+03  3.35372716e+02 -6.12678326e-03 -1.31641694e+07],61,1075.1929990855972
962,962,[-4.04306236e+03  3.37375080e+02 -4.91479043e-03 -1.31641694e+07],28,1075.5042204611086
963,963,[-4.16592083e+03  3.37375050e+02 -5.15089906e-03 -1.31641694e+07],167,1075.3407348150758
964,964,[-4.74873727e+03  3.35372719e+02 -6.17250399e-03 -1.31641694e+07],364,1074.6368405959363
965,965,[-4.03036220e+03  3.37374989e+02 -5.07809545e-03 -1.31641694e+07],45,1075.7155467256648
966,966,[-3.84755199e+03  3.38375986e+02 -4.44191426e-03 -1.31641694e+07],36,1075.3041938967935
967,967,[-3.82337885e+03  3.38376055e+02 -4.48312158e-03 -1.31641694e+07],81,1075.6696140250635
968,968,[-3.96148212e+03  3.37374989e+02 -4.98597213e-03 -1.31641694e+07],970,1074.5905821591803
969,969,[-4.06976037e+03  3.37374959e+02 -5.01996290e-03 -1.31641694e+07],17,1074.1813539503817
970,970,[-4.50265557e+03  3.35372733e+02 -6.39674877e-03 -1.31641694e+07],1013,1073.0429335288522
971,971,[-3.81060566e+03  3.38376257e+02 -4.50337801e-03 -1.31641694e+07],42,1075.4350857636439
972,972,[-4.55400567e+03  3.35372760e+02 -6.51687424e-03 -1.31641694e+07],116,1075.2694445941538
973,973,[-4.32646983e+03  3.37374902e+02 -5.04964827e-03 -1.31641694e+07],44,1075.0299345977585
974,974,[-4.22377354e+03  3.37375145e+02 -5.10228903e-03 -1.31641694e+07],500,1075.497328887104
975,975,[-4.24489236e+03  3.37374881e+02 -5.33654813e-03 -1.31641694e+07],342,1074.1381477120822
976,976,[-4.03765864e+03  3.37374910e+02 -5.10265961e-03 -1.31641694e+07],414,1075.3224216306494
977,977,[-4.29408165e+03  3.37375264e+02 -5.07592810e-03 -1.31641694e+07],15,1074.8978544951265
978,978,[-4.75937520e+03  3.35372748e+02 -6.31339292e-03 -1.31641694e+07],324,1073.7275996065064
979,979,[-3.71829841e+03  3.38376010e+02 -4.57592470e-03 -1.31641694e+07],953,1072.5390252181005
980,980,[-3.89136091e+03  3.38376004e+02 -4.41434519e-03 -1.31641694e+07],932,1075.0936102688565
981,981,[-4.06486034e+03  3.37375007e+02 -4.95820744e-03 -1.31641694e+07],24,1074.0097051436583
982,982,[-4.28553642e+03  3.37375085e+02 -5.39071671e-03 -1.31641694e+07],596,1072.673348329735
983,983,[-4.76195499e+03  3.36373824e+02 -5.86680945e-03 -1.31641694e+07],388,1073.9559313475424
984,984,[-4.09574290e+03  3.37374994e+02 -4.99500729e-03 -1.31641694e+07],660,1075.5749638520585
985,985,[-4.03200908e+03  3.37374952e+02 -5.04071825e-03 -1.31641694e+07],4,1075.1668298026486
986,986,[-4.77432865e+03  3.35372805e+02 -6.28685306e-03 -1.31641694e+07],502,1074.9230039583706
987,987,[-4.11370042e+03  3.37374949e+02 -4.99345635e-03 -1.31641694e+07],982,1075.5278112004619
988,988,[-4.59591527e+03  3.35372666e+02 -6.39206628e-03 -1.31641694e+07],295,1075.377625466175
989,989,[-4.14612756e+03  3.37374907e+02 -5.19428927e-03 -1.31641694e+07],32,1074.9975790004944
990,990,[-3.94129881e+03  3.38376070e+02 -4.62136287e-03 -1.31641694e+07],14,1075.3542941949233
991,991,[-4.02802913e+03  3.37375009e+02 -5.05358235e-03 -1.31641694e+07],374,1075.1016346138367
992,992,[-4.03094048e+03  3.37375317e+02 -5.05854220e-03 -1.31641694e+07],979,1074.1000962879398
993,993,[-4.36810337e+03  3.37374884e+02 -5.25490147e-03 -1.31641694e+07],199,1074.232960919358
994,994,[-4.24532160e+03  3.37375044e+02 -5.11614347e-03 -1.31641694e+07],955,1075.2885222568914
995,995,[-4.16988423e+03  3.37374906e+02 -5.19102101e-03 -1.31641694e+07],923,1074.617326853257
996,996,[-3.61076490e+03  3.39377148e+02 -4.33291295e-03 -1.31641694e+07],639,1074.5714714199516
997,997,[-4.27261671e+03  3.37375114e+02 -5.13631848e-03 -1.31641694e+07],327,1075.389067014542
998,998,[-3.99893875e+03  3.37374985e+02 -5.01868764e-03 -1.31641694e+07],365,1074.5251818422391
999,999,[-3.72487972e+03  3.38376072e+02 -4.52748661e-03 -1.31641694e+07],1073,1074.650555938231
1000,1000,[-3.84992223e+03  3.39377439e+02 -4.28841460e-03 -1.31641694e+07],1020,1074.3295902180125
1001,1001,[-4.87280017e+03  3.35372699e+02 -6.49439449e-03 -1.31641694e+07],34,1075.4619749198384
1002,1002,[-4.23449143e+03  3.37375062e+02 -5.31582103e-03 -1.31641694e+07],23,1074.420283219702
1003,1003,[-4.14387439e+03  3.37374897e+02 -5.11733203e-03 -1.31641694e+07],33,1075.4170055411616
1004,1004,[-4.66456498e+03  3.36374017e+02 -5.84771300e-03 -1.31641694e+07],370,1074.7292862734507
1005,1005,[-3.78428199e+03  3.38376270e+02 -4.46881623e-03 -1.31641694e+07],16,1074.4372326613022
1006,1006,[-4.26299911e+03  3.37374876e+02 -5.18251611e-03 -1.31641694e+07],788,1074.7667554326733
1007,1007,[-4.60832107e+03  3.37374872e+02 -5.27377964e-03 -1.31641694e+07],26,1074.7545035013648
1008,1008,[-4.02807177e+03  3.37374874e+02 -4.98022704e-03 -1.31641694e+07],115,1075.4728470275752
1009,1009,[-4.13524038e+03  3.37374921e+02 -5.26811256e-03 -1.31641694e+07],25,1074.9367467777704
1010,1010,[-3.87243142e+03  3.38376380e+02 -4.42453277e-03 -1.31641694e+07],43,1075.3299848922109
1011,1011,[-4.12566821e+03  3.37374962e+02 -5.05962097e-03 -1.31641694e+07],1057,1075.2561937406865
1012,1012,[-4.16943280e+03  3.37374910e+02 -5.19915177e-03 -1.31641694e+07],300,1074.0251910198663
1013,1013,[-4.52166974e+03  3.35372694e+02 -6.02532878e-03 -1.31641694e+07],380,1073.000714761847
1014,1014,[-4.38403001e+03  3.37374877e+02 -5.13713459e-03 -1.31641694e+07],264,1074.0268535538114
1015,1015,[-4.81050010e+03  3.35372961e+02 -6.25963872e-03 -1.31641694e+07],124,1075.3911071439898
1016,1016,[-4.22141036e+03  3.37374868e+02 -5.12959034e-03 -1.31641694e+07],913,1074.3709057253686
1017,1017,[-3.61086032e+03  3.39377530e+02 -4.35519989e-03 -1.31641694e+07],406,1073.2576703027464
1018,1018,[-3.84549880e+03  3.38375982e+02 -4.47403612e-03 -1.31641694e+07],27,1075.4404248402157
1019,1019,[-3.81297567e+03  3.38376076e+02 -4.35538823e-03 -1.31641694e+07],328,1074.586673185135
1020,1020,[-3.60811255e+03  3.39377090e+02 -4.22468681e-03 -1.31641694e+07],413,1072.3457268768932
1021,1021,[-4.24258935e+03  3.37374911e+02 -5.17530754e-03 -1.31641694e+07],1068,1075.0738734897234
1022,1022,[-3.83580033e+03  3.38376070e+02 -4.45425450e-03 -1.31641694e+07],205,1075.185626977055
1023,1023,[-4.01891583e+03  3.37374896e+02 -5.09821260e-03 -1.31641694e+07],325,1075.0616534312617
1024,1024,[-4.17998021e+03  3.37375034e+02 -5.26564884e-03 -1.31641694e+07],270,1074.9937293216863
1025,1025,[-3.90332967e+03  3.38376103e+02 -4.39849464e-03 -1.31641694e+07],642,1075.5802965479481
1026,1026,[-4.45981448e+03  3.36373967e+02 -5.79903067e-03 -1.31641694e+07],790,1074.9379603706168
1027,1027,[-4.14758986e+03  3.37374954e+02 -5.21129139e-03 -1.31641694e+07],114,1074.1423869980583
1028,1028,[-3.78935869e+03  3.38376174e+02 -4.53771256e-03 -1.31641694e+07],546,1075.483074631718
1029,1029,[-4.84010077e+03  3.35372976e+02 -6.29625779e-03 -1.31641694e+07],2,1075.1232961054998
1030,1030,[-4.77208496e+03  3.35372878e+02 -6.24981296e-03 -1.31641694e+07],1056,1073.606810602328
1031,1031,[-4.16184877e+03  3.37374999e+02 -5.34999608e-03 -1.31641694e+07],789,1074.038581340283
1032,1032,[-4.96356779e+03  3.35372894e+02 -6.47510282e-03 -1.31641694e+07],3,1075.527951421015
1033,1033,[-4.06104317e+03  3.37374864e+02 -5.08250717e-03 -1.31641694e+07],366,1075.5364526095439
1034,1034,[-4.18871258e+03  3.37375036e+02 -5.18872601e-03 -1.31641694e+07],204,1075.1287184869504
1035,1035,[-4.55351806e+03  3.36374019e+02 -5.48494946e-03 -1.31641694e+07],658,1075.203336765762
1036,1036,[-3.60062884e+03  3.39377227e+02 -4.21400156e-03 -1.31641694e+07],326,1074.9674383939005
1037,1037,[-4.63701890e+03  3.36374111e+02 -6.21561734e-03 -1.31641694e+07],265,1074.2361993078594
1038,1038,[-4.13664114e+03  3.37374980e+02 -5.26928360e-03 -1.31641694e+07],1072,1074.8280907268072
1039,1039,[-3.82413303e+03  3.38376104e+02 -4.51375507e-03 -1.31641694e+07],401,1075.4471038981396
1040,1040,[-4.74663570e+03  3.35373028e+02 -6.15502838e-03 -1.31641694e+07],499,1074.6475985103084
1041,1041,[-4.60281286e+03  3.35372696e+02 -6.38455384e-03 -1.31641694e+07],926,1073.6530990237095
1042,1042,[-4.47092553e+03  3.36373796e+02 -5.45064104e-03 -1.31641694e+07],397,1074.2408741101815
1043,1043,[-3.80179950e+03  3.38376197e+02 -4.47128502e-03 -1.31641694e+07],409,1075.5573186897032
1044,1044,[-3.56315785e+03  3.39377112e+02 -4.38000933e-03 -1.31641694e+07],496,1074.8634245134824
1045,1045,[-4.23151390e+03  3.37374893e+02 -5.24969248e-03 -1.31641694e+07],367,1075.506390194134
1046,1046,[-3.85235302e+03  3.38376063e+02 -4.45397601e-03 -1.31641694e+07],548,1075.521775560921
1047,1047,[-4.58246109e+03  3.36373958e+02 -5.92627882e-03 -1.31641694e+07],378,1074.7621969694358
1048,1048,[-4.72704980e+03  3.36373823e+02 -6.22161958e-03 -1.31641694e+07],914,1073.7858475208218
1049,1049,[-3.64688905e+03  3.39377638e+02 -4.18857683e-03 -1.31641694e+07],921,1075.2088585334045
1050,1050,[-4.19111586e+03  3.37374894e+02 -5.20399092e-03 -1.31641694e+07],931,1074.3972077364824
1051,1051,[-4.16837662e+03  3.37375249e+02 -5.25267064e-03 -1.31641694e+07],201,1074.201867449369
1052,1052,[-4.07907305e+03  3.37374937e+02 -5.06779925e-03 -1.31641694e+07],497,1074.3595282820845
1053,1053,[-4.10896393e+03  3.37374895e+02 -5.12640588e-03 -1.31641694e+07],202,1075.623879852245
1054,1054,[-3.93715498e+03  3.37374928e+02 -5.06472133e-03 -1.31641694e+07],547,1074.4404087129521
1055,1055,[-3.84913600e+03  3.38376057e+02 -4.50567872e-03 -1.31641694e+07],920,1073.4119526074676
1056,1056,[-4.57839353e+03  3.37374899e+02 -5.22146348e-03 -1.31641694e+07],640,1071.2845669272253
1057,1057,[-4.60956475e+03  3.35372788e+02 -5.90851419e-03 -1.31641694e+07],915,1072.0504349685782
1058,1058,[-4.79199496e+03  3.35372711e+02 -6.35122889e-03 -1.31641694e+07],930,1075.2430010356554
1059,1059,[-4.49229281e+03  3.37374911e+02 -5.34029009e-03 -1.31641694e+07],1069,1074.5491688985435
1060,1060,[-4.10783781e+03  3.37375087e+02 -5.17880580e-03 -1.31641694e+07],200,1074.4835270644312
1061,1061,[-3.98603734e+03  3.37375133e+02 -5.04736420e-03 -1.31641694e+07],369,1074.9085113163333
1062,1062,[-3.92367332e+03  3.38376129e+02 -4.33195750e-03 -1.31641694e+07],922,1074.5015424884787
1063,1063,[-4.65358516e+03  3.36373923e+02 -5.79429424e-03 -1.31641694e+07],641,1074.4081728668514
1064,1064,[-3.97558131e+03  3.37375201e+02 -5.15242941e-03 -1.31641694e+07],203,1074.7332386072148
1065,1065,[-3.92913882e+03  3.38376300e+02 -4.34143093e-03 -1.31641694e+07],498,1074.6840105372496
1066,1066,[-4.13400511e+03  3.37375080e+02 -4.86473123e-03 -1.31641694e+07],1077,1075.4771200495086
1067,1067,[-4.05670215e+03  3.37374881e+02 -5.14785308e-03 -1.31641694e+07],1071,1074.8893057905757
1068,1068,[-3.97228794e+03  3.38376255e+02 -4.54400484e-03 -1.31641694e+07],368,1071.6495529823815
1069,1069,[-4.92792377e+03  3.35372805e+02 -5.94547371e-03 -1.31641694e+07],927,1068.7231632599537
1070,1070,[-4.37243719e+03  3.36373804e+02 -5.15608462e-03 -1.31641694e+07],916,1066.155896372037
1071,1071,[-4.37291942e+03  3.36373837e+02 -5.15952321e-03 -1.31641694e+07],917,1067.7600955410237
1072,1072,[-4.85090124e+03  3.35372821e+02 -6.67994367e-03 -1.31641694e+07],379,1070.5488098011288
1073,1073,[-3.94234019e+03  3.38376001e+02 -4.30730840e-03 -1.31641694e+07],1070,1072.3530710695372
1074,1074,[-4.00238302e+03  3.37375212e+02 -4.93189872e-03 -1.31641694e+07],919,1074.4906565745557
1075,1075,[-3.96119834e+03  3.37374928e+02 -5.11882622e-03 -1.31641694e+07],918,1074.9497167160032
1076,1076,[-3.88886693e+03  3.38375986e+02 -4.46531692e-03 -1.31641694e+07],928,1074.7149708422935
1077,1077,[-3.89377898e+03  3.38375998e+02 -4.35010744e-03 -1.31641694e+07],929,1067.8490757609457
