,0,1,2,3
0,0,[-2.61819678e+03  3.45384211e+02 -3.29914615e-03 -1.31641694e+07],524,1418.3144561022814
1,1,[-3.35616223e+03  3.42380608e+02 -4.22925380e-03 -1.31641694e+07],819,1417.5651229462246
2,2,[-2.29866620e+03  3.47386445e+02 -3.14578277e-03 -1.31641694e+07],679,1416.8768248206716
3,3,[-2.65539637e+03  3.45383954e+02 -3.30885973e-03 -1.31641694e+07],831,1418.736201439752
4,4,[-2.61196383e+03  3.45384023e+02 -3.21831287e-03 -1.31641694e+07],347,1418.491313810747
5,5,[-3.38764338e+03  3.42380580e+02 -4.31214323e-03 -1.31641694e+07],902,1417.3061535168008
6,6,[-2.66839686e+03  3.45384297e+02 -3.39797007e-03 -1.31641694e+07],775,1417.8847994955959
7,7,[-2.86070489e+03  3.44382779e+02 -3.47030150e-03 -1.31641694e+07],439,1418.5538296929928
8,8,[-2.70427227e+03  3.45383820e+02 -3.64250235e-03 -1.31641694e+07],547,1417.470816648032
9,9,[-3.37830251e+03  3.42380816e+02 -4.24585832e-03 -1.31641694e+07],875,1418.9732632960365
10,10,[-1.92661581e+03  3.49388297e+02 -2.59449937e-03 -1.31641694e+07],298,1418.08270666253
11,11,[-2.64231050e+03  3.45383843e+02 -3.43040997e-03 -1.31641694e+07],781,1419.0259513760673
12,12,[-3.21746577e+03  3.42380482e+02 -3.78509943e-03 -1.31641694e+07],501,1413.643758942258
13,13,[-2.65415340e+03  3.45383993e+02 -3.41368581e-03 -1.31641694e+07],417,1418.1899341737478
14,14,[-2.69628071e+03  3.45383830e+02 -3.63225619e-03 -1.31641694e+07],826,1416.6519268307027
15,15,[-2.52975857e+03  3.45383946e+02 -2.96692985e-03 -1.31641694e+07],1250,1418.5394415013325
16,16,[-2.67771540e+03  3.45384110e+02 -3.55359469e-03 -1.31641694e+07],416,1417.5352883213545
17,17,[-2.87015093e+03  3.44382736e+02 -3.67135680e-03 -1.31641694e+07],884,1417.882979343748
18,18,[-2.48228969e+03  3.45383825e+02 -2.97117201e-03 -1.31641694e+07],825,1417.641856194753
19,19,[-2.85170730e+03  3.44382649e+02 -3.50876736e-03 -1.31641694e+07],862,1417.818646632134
20,20,[-2.47978386e+03  3.46384989e+02 -3.49249870e-03 -1.31641694e+07],719,1416.065854774784
21,21,[-2.55357004e+03  3.45383829e+02 -2.97975572e-03 -1.31641694e+07],383,1418.140035283276
22,22,[-2.62021311e+03  3.45384032e+02 -3.15858669e-03 -1.31641694e+07],502,1418.5794356686786
23,23,[-2.74490352e+03  3.45383764e+02 -3.58115837e-03 -1.31641694e+07],946,1417.1617846054069
24,24,[-2.52570917e+03  3.45383877e+02 -2.93129166e-03 -1.31641694e+07],288,1416.9176157367406
25,25,[-2.83889817e+03  3.44382870e+02 -3.44646646e-03 -1.31641694e+07],732,1419.4373295359785
26,26,[-2.84968921e+03  3.44382765e+02 -3.60807384e-03 -1.31641694e+07],1147,1419.3922086053242
27,27,[-2.65795406e+03  3.45383839e+02 -3.29086319e-03 -1.31641694e+07],499,1416.220208904307
28,28,[-2.62956243e+03  3.45383928e+02 -3.19964809e-03 -1.31641694e+07],871,1418.9933484931325
29,29,[-2.67084561e+03  3.45384019e+02 -3.34912816e-03 -1.31641694e+07],876,1419.4104072602759
30,30,[-2.88397702e+03  3.44382785e+02 -3.52374713e-03 -1.31641694e+07],495,1419.3649297458298
31,31,[-2.83881679e+03  3.44382695e+02 -3.44331751e-03 -1.31641694e+07],1037,1418.5788673156749
32,32,[-2.66270929e+03  3.45384220e+02 -3.31105848e-03 -1.31641694e+07],856,1417.2922294525738
33,33,[-2.63579944e+03  3.45383860e+02 -3.37917596e-03 -1.31641694e+07],972,1418.3110823304032
34,34,[-2.60858935e+03  3.45384016e+02 -3.21451648e-03 -1.31641694e+07],1329,1419.0827350928275
35,35,[-2.65829043e+03  3.45384302e+02 -3.36757867e-03 -1.31641694e+07],657,1419.78092296318
36,36,[-2.67957048e+03  3.45383768e+02 -3.42394245e-03 -1.31641694e+07],812,1419.8620995141857
37,37,[-2.70239537e+03  3.45383906e+02 -3.70413583e-03 -1.31641694e+07],966,1418.2423476961335
38,38,[-3.40937351e+03  3.42380685e+02 -4.29446180e-03 -1.31641694e+07],600,1419.292000758755
39,39,[-2.87472217e+03  3.44382672e+02 -3.61801390e-03 -1.31641694e+07],546,1419.2276113710914
40,40,[-2.70748046e+03  3.45383800e+02 -3.78261345e-03 -1.31641694e+07],1334,1416.9001213423785
41,41,[-2.52985100e+03  3.45384019e+02 -2.94401318e-03 -1.31641694e+07],949,1418.0007770525062
42,42,[-2.67004470e+03  3.45383926e+02 -3.42178335e-03 -1.31641694e+07],272,1416.7179806575418
43,43,[-2.69117987e+03  3.45383976e+02 -3.51620640e-03 -1.31641694e+07],872,1417.6462801232005
44,44,[-2.48504492e+03  3.45383872e+02 -2.96068532e-03 -1.31641694e+07],778,1417.6252075955665
45,45,[-2.70692319e+03  3.44382878e+02 -3.19453222e-03 -1.31641694e+07],1332,1416.9425737281938
46,46,[-2.67104538e+03  3.45384031e+02 -3.54334542e-03 -1.31641694e+07],807,1418.4154449475313
47,47,[-2.66234372e+03  3.45384106e+02 -3.48913289e-03 -1.31641694e+07],896,1417.539674543961
48,48,[-2.68284806e+03  3.44382809e+02 -3.25895583e-03 -1.31641694e+07],270,1417.756600629738
49,49,[-2.69410182e+03  3.44382964e+02 -2.95417705e-03 -1.31641694e+07],823,1412.8272433049433
50,50,[-1.92631803e+03  3.49389288e+02 -2.58665915e-03 -1.31641694e+07],1321,1416.8344453523148
51,51,[-2.80883814e+03  3.44382668e+02 -3.19052456e-03 -1.31641694e+07],1015,1417.7889950141723
52,52,[-2.93607951e+03  3.43381572e+02 -3.42680964e-03 -1.31641694e+07],852,1415.7911738956814
53,53,[-2.69598659e+03  3.45383968e+02 -3.63309370e-03 -1.31641694e+07],132,1416.4593464651757
54,54,[-2.68694405e+03  3.45383953e+02 -3.62924219e-03 -1.31641694e+07],790,1417.288009499685
55,55,[-3.14356264e+03  3.42380967e+02 -3.82024885e-03 -1.31641694e+07],793,1417.8806491932542
56,56,[-2.44847871e+03  3.46384893e+02 -3.12388646e-03 -1.31641694e+07],728,1418.9064848025093
57,57,[-2.90378835e+03  3.44382681e+02 -3.59022547e-03 -1.31641694e+07],428,1418.932804093504
58,58,[-3.58560839e+03  3.41379419e+02 -4.36253437e-03 -1.31641694e+07],244,1417.416788004176
59,59,[-2.61920630e+03  3.45384105e+02 -3.19541181e-03 -1.31641694e+07],239,1418.3510853087753
60,60,[-2.68171952e+03  3.45383834e+02 -3.53001118e-03 -1.31641694e+07],457,1417.8948534572176
61,61,[-2.52911770e+03  3.45383890e+02 -2.96104080e-03 -1.31641694e+07],1232,1418.4304162361807
62,62,[-2.60417588e+03  3.45383920e+02 -3.18314614e-03 -1.31641694e+07],676,1419.139467617473
63,63,[-2.50064363e+03  3.46385435e+02 -3.33014484e-03 -1.31641694e+07],864,1416.4192040008695
64,64,[-2.83919301e+03  3.44382894e+02 -3.54591844e-03 -1.31641694e+07],651,1418.9794916062951
65,65,[-2.65030906e+03  3.45384026e+02 -3.22230292e-03 -1.31641694e+07],448,1417.9607761160378
66,66,[-2.67256714e+03  3.45384104e+02 -3.34804937e-03 -1.31641694e+07],1305,1418.360295034972
67,67,[-3.14760869e+03  3.42380463e+02 -3.77711508e-03 -1.31641694e+07],296,1416.062567032273
68,68,[-3.26642747e+03  3.42380475e+02 -3.93773637e-03 -1.31641694e+07],280,1417.1953922716032
69,69,[-2.66962881e+03  3.45384017e+02 -3.32024919e-03 -1.31641694e+07],714,1418.8870948789172
70,70,[-2.62494585e+03  3.45383789e+02 -3.09749229e-03 -1.31641694e+07],388,1418.3634210012206
71,71,[-2.92852729e+03  3.43381592e+02 -3.46450565e-03 -1.31641694e+07],865,1416.2619280620531
72,72,[-2.84794642e+03  3.44382785e+02 -3.58348157e-03 -1.31641694e+07],924,1418.665890267741
73,73,[-2.67718713e+03  3.45383920e+02 -3.35079818e-03 -1.31641694e+07],1276,1418.0557990413126
74,74,[-3.34662818e+03  3.42380466e+02 -4.12338383e-03 -1.31641694e+07],421,1417.9772120526336
75,75,[-2.89656561e+03  3.44382786e+02 -3.65273876e-03 -1.31641694e+07],914,1418.6845101525346
76,76,[-2.66613873e+03  3.45384263e+02 -3.52856028e-03 -1.31641694e+07],1224,1417.3611570694445
77,77,[-3.05521037e+03  3.43381806e+02 -3.72450116e-03 -1.31641694e+07],784,1418.4653046483447
78,78,[-2.82799279e+03  3.44382686e+02 -3.38327317e-03 -1.31641694e+07],954,1418.5790785484492
79,79,[-2.66587242e+03  3.45384178e+02 -3.32503223e-03 -1.31641694e+07],1400,1418.3001131894814
80,80,[-2.83651299e+03  3.44383280e+02 -3.44938684e-03 -1.31641694e+07],1229,1418.0877378990256
81,81,[-2.45199567e+03  3.46385207e+02 -3.06402859e-03 -1.31641694e+07],1070,1416.8931266953246
82,82,[-2.43831162e+03  3.46385631e+02 -3.11942036e-03 -1.31641694e+07],1021,1417.3164647878357
83,83,[-2.84086613e+03  3.44382820e+02 -3.47309480e-03 -1.31641694e+07],948,1418.633290675119
84,84,[-2.85240844e+03  3.44382825e+02 -3.49373223e-03 -1.31641694e+07],217,1418.3060336141964
85,85,[-2.69097448e+03  3.45383846e+02 -3.59735296e-03 -1.31641694e+07],800,1418.0648950784205
86,86,[-2.93926038e+03  3.44382765e+02 -3.98596098e-03 -1.31641694e+07],835,1417.2051493396273
87,87,[-3.35492701e+03  3.42380524e+02 -4.15743171e-03 -1.31641694e+07],490,1419.1574649015179
88,88,[-1.92727143e+03  3.49388483e+02 -2.64905014e-03 -1.31641694e+07],179,1417.0498816777451
89,89,[-2.68600661e+03  3.45383850e+02 -3.72166736e-03 -1.31641694e+07],1265,1417.2955289888937
90,90,[-3.31257587e+03  3.42380580e+02 -4.08023316e-03 -1.31641694e+07],513,1418.4306763102638
91,91,[-3.40475488e+03  3.42380751e+02 -4.51086310e-03 -1.31641694e+07],829,1419.6332523191015
92,92,[-2.68743787e+03  3.45383767e+02 -3.55795926e-03 -1.31641694e+07],622,1418.200388963497
93,93,[-2.67814674e+03  3.45383798e+02 -3.57833189e-03 -1.31641694e+07],863,1419.1055198083309
94,94,[-2.59727929e+03  3.45383782e+02 -3.19221681e-03 -1.31641694e+07],939,1419.540136477389
95,95,[-2.68623591e+03  3.45384066e+02 -3.54690674e-03 -1.31641694e+07],449,1418.203623871751
96,96,[-2.84481265e+03  3.44382807e+02 -3.47857064e-03 -1.31641694e+07],238,1419.2493600922637
97,97,[-2.62970294e+03  3.45384095e+02 -3.16203722e-03 -1.31641694e+07],120,1418.8422362293973
98,98,[-2.88276958e+03  3.44382875e+02 -3.58381402e-03 -1.31641694e+07],287,1418.5701066750983
99,99,[-2.44717090e+03  3.46384921e+02 -3.12503964e-03 -1.31641694e+07],508,1419.4170119881812
100,100,[-2.65466221e+03  3.45383801e+02 -3.43321153e-03 -1.31641694e+07],733,1419.4886945395372
101,101,[-2.85959218e+03  3.44382739e+02 -3.53816772e-03 -1.31641694e+07],726,1419.5109533282832
102,102,[-1.92280035e+03  3.49388352e+02 -2.60271196e-03 -1.31641694e+07],720,1418.6682898269014
103,103,[-2.63204640e+03  3.45383819e+02 -3.36211176e-03 -1.31641694e+07],420,1419.3909276043778
104,104,[-2.63826247e+03  3.45383921e+02 -3.21723439e-03 -1.31641694e+07],555,1417.817252330827
105,105,[-2.45470390e+03  3.46385601e+02 -3.25211965e-03 -1.31641694e+07],772,1417.7046692467277
106,106,[-3.36887751e+03  3.42380826e+02 -4.29113466e-03 -1.31641694e+07],469,1419.4687316070865
107,107,[-2.82710003e+03  3.44382699e+02 -3.39251115e-03 -1.31641694e+07],291,1417.7028363046522
108,108,[-1.93151099e+03  3.49388508e+02 -2.65754255e-03 -1.31641694e+07],597,1417.9678652943285
109,109,[-3.34611883e+03  3.42380583e+02 -4.12015577e-03 -1.31641694e+07],1087,1419.0577252096443
110,110,[-2.85383457e+03  3.44382700e+02 -3.58606783e-03 -1.31641694e+07],975,1419.411365364822
111,111,[-2.71536326e+03  3.45383849e+02 -3.67302993e-03 -1.31641694e+07],454,1417.5641850481693
112,112,[-2.55246178e+03  3.45383921e+02 -3.02598636e-03 -1.31641694e+07],886,1417.9807229523333
113,113,[-2.82566555e+03  3.44382678e+02 -3.37624306e-03 -1.31641694e+07],301,1418.706372072488
114,114,[-2.65117312e+03  3.45383893e+02 -3.43598830e-03 -1.31641694e+07],307,1419.854477001589
115,115,[-2.53704691e+03  3.45384071e+02 -2.97485435e-03 -1.31641694e+07],973,1418.712037436019
116,116,[-3.00588581e+03  3.44382793e+02 -4.33865411e-03 -1.31641694e+07],915,1416.9291597857614
117,117,[-2.85716168e+03  3.44382824e+02 -3.64557361e-03 -1.31641694e+07],476,1419.445177841147
118,118,[-2.61483752e+03  3.45384447e+02 -3.22662790e-03 -1.31641694e+07],451,1419.6613855018295
119,119,[-3.34852211e+03  3.43381834e+02 -4.99082813e-03 -1.31641694e+07],1267,1415.9456660207695
120,120,[-2.60256073e+03  3.45384101e+02 -3.22780579e-03 -1.31641694e+07],821,1420.0947035169113
121,121,[-2.61148941e+03  3.45384071e+02 -3.16625739e-03 -1.31641694e+07],666,1419.147528907591
122,122,[-2.67350728e+03  3.45383790e+02 -3.46029940e-03 -1.31641694e+07],811,1419.8115105010138
123,123,[-2.87225274e+03  3.44382696e+02 -3.58584560e-03 -1.31641694e+07],256,1419.6680359119794
124,124,[-2.66077190e+03  3.45384188e+02 -3.32704255e-03 -1.31641694e+07],804,1418.7961079253848
125,125,[-2.67207731e+03  3.45383873e+02 -3.44216087e-03 -1.31641694e+07],947,1419.529176859337
126,126,[-2.83681919e+03  3.44382752e+02 -3.47133341e-03 -1.31641694e+07],861,1419.2097775094303
127,127,[-2.86184483e+03  3.44382712e+02 -3.55094065e-03 -1.31641694e+07],927,1419.1770912053662
128,128,[-2.74982355e+03  3.45383940e+02 -3.81191972e-03 -1.31641694e+07],717,1416.5269676781159
129,129,[-2.79789045e+03  3.44382787e+02 -3.30465878e-03 -1.31641694e+07],930,1417.932254176316
130,130,[-3.13820817e+03  3.43381712e+02 -3.97160560e-03 -1.31641694e+07],611,1419.6465778533202
131,131,[-2.51000057e+03  3.46384947e+02 -3.39976031e-03 -1.31641694e+07],536,1418.4638659999134
132,132,[-2.60417950e+03  3.45384066e+02 -3.20550139e-03 -1.31641694e+07],692,1420.1884799740274
133,133,[-2.84395649e+03  3.44382700e+02 -3.50591216e-03 -1.31641694e+07],1350,1419.4974908265833
134,134,[-2.67310083e+03  3.45383870e+02 -3.50203681e-03 -1.31641694e+07],729,1419.1242512052029
135,135,[-2.56286427e+03  3.45384036e+02 -3.02626607e-03 -1.31641694e+07],813,1418.2602363984277
136,136,[-2.84758118e+03  3.44382732e+02 -3.50981696e-03 -1.31641694e+07],982,1419.1329656867522
137,137,[-3.02664678e+03  3.44382713e+02 -4.47060262e-03 -1.31641694e+07],324,1414.1112728091098
138,138,[-3.27271022e+03  3.42380683e+02 -4.00792923e-03 -1.31641694e+07],1202,1417.9100264802757
139,139,[-3.27867223e+03  3.42380490e+02 -3.91306919e-03 -1.31641694e+07],335,1417.959287050476
140,140,[-2.66244272e+03  3.45384115e+02 -3.39726712e-03 -1.31641694e+07],620,1417.6869445911645
141,141,[-2.83058564e+03  3.44382667e+02 -3.44353539e-03 -1.31641694e+07],408,1419.2871375851666
142,142,[-2.61069817e+03  3.45383955e+02 -3.12403033e-03 -1.31641694e+07],181,1419.583396562367
143,143,[-2.55242053e+03  3.46385045e+02 -3.50567434e-03 -1.31641694e+07],1324,1417.1573032542872
144,144,[-3.36612203e+03  3.42380643e+02 -4.28370262e-03 -1.31641694e+07],678,1419.2719010939388
145,145,[-2.61563124e+03  3.45384189e+02 -3.18881141e-03 -1.31641694e+07],182,1419.2519596557768
146,146,[-1.91907674e+03  3.49388293e+02 -2.57828052e-03 -1.31641694e+07],925,1419.318740720142
147,147,[-2.63671186e+03  3.45383829e+02 -3.33652795e-03 -1.31641694e+07],362,1419.335454965464
148,148,[-2.81420489e+03  3.44383432e+02 -3.33130764e-03 -1.31641694e+07],332,1418.6376199524718
149,149,[-2.67491058e+03  3.45384137e+02 -3.50423927e-03 -1.31641694e+07],550,1419.468870464624
150,150,[-2.60949403e+03  3.45384410e+02 -3.21318394e-03 -1.31641694e+07],725,1419.5035471344866
151,151,[-2.82291890e+03  3.44382718e+02 -3.39811855e-03 -1.31641694e+07],989,1418.658317361037
152,152,[-2.68084428e+03  3.45383760e+02 -3.49502174e-03 -1.31641694e+07],1304,1419.1999345799534
153,153,[-2.61726049e+03  3.45384191e+02 -3.17538376e-03 -1.31641694e+07],295,1419.7412899916526
154,154,[-2.61376930e+03  3.45383804e+02 -3.16775727e-03 -1.31641694e+07],888,1419.222126702558
155,155,[-2.66307776e+03  3.45384025e+02 -3.23421787e-03 -1.31641694e+07],1349,1418.8479177204194
156,156,[-2.88825902e+03  3.44382850e+02 -3.57029966e-03 -1.31641694e+07],1098,1418.2943651435482
157,157,[-2.81248267e+03  3.44382651e+02 -3.42659167e-03 -1.31641694e+07],894,1417.365472396319
158,158,[-1.92054255e+03  3.49388620e+02 -2.56325159e-03 -1.31641694e+07],650,1419.1602426670156
159,159,[-3.40381642e+03  3.42380759e+02 -4.50275485e-03 -1.31641694e+07],669,1419.2493126971424
160,160,[-2.95324181e+03  3.43381725e+02 -3.46798524e-03 -1.31641694e+07],661,1415.3877709994802
161,161,[-2.67830715e+03  3.45384368e+02 -3.33585266e-03 -1.31641694e+07],1268,1419.2708174550978
162,162,[-2.80499361e+03  3.44382728e+02 -3.19280249e-03 -1.31641694e+07],684,1418.1898008059688
163,163,[-3.29865689e+03  3.42380517e+02 -3.97810884e-03 -1.31641694e+07],701,1417.371677706848
164,164,[-2.82595549e+03  3.44382687e+02 -3.26186922e-03 -1.31641694e+07],1152,1417.7753120532138
165,165,[-1.92076628e+03  3.49388695e+02 -2.57160875e-03 -1.31641694e+07],843,1418.3174020920096
166,166,[-2.31828543e+03  3.46384984e+02 -2.65184026e-03 -1.31641694e+07],263,1417.2417524304462
167,167,[-2.53110860e+03  3.45384149e+02 -3.00592992e-03 -1.31641694e+07],1262,1418.8880340853923
168,168,[-2.44473897e+03  3.46385213e+02 -3.16326386e-03 -1.31641694e+07],300,1418.419753546864
169,169,[-3.03923672e+03  3.43381989e+02 -3.71200377e-03 -1.31641694e+07],1367,1418.9528063367031
170,170,[-2.87831484e+03  3.44383026e+02 -3.56362189e-03 -1.31641694e+07],1025,1418.8541752625129
171,171,[-1.92751759e+03  3.49388827e+02 -2.60800111e-03 -1.31641694e+07],1005,1416.7508741959914
172,172,[-3.04536318e+03  3.43381647e+02 -3.70439609e-03 -1.31641694e+07],958,1419.217655089561
173,173,[-2.87143332e+03  3.44382721e+02 -3.49651563e-03 -1.31641694e+07],446,1419.3385073868421
174,174,[-2.66424756e+03  3.45384427e+02 -3.38396075e-03 -1.31641694e+07],1212,1419.375365400141
175,175,[-3.32903615e+03  3.42380440e+02 -4.22154863e-03 -1.31641694e+07],453,1419.906177619272
176,176,[-2.67725560e+03  3.45383943e+02 -3.40607262e-03 -1.31641694e+07],507,1419.3203528161398
177,177,[-1.93297960e+03  3.49388495e+02 -2.64065601e-03 -1.31641694e+07],999,1417.092905671582
178,178,[-2.83452372e+03  3.44382931e+02 -3.53676893e-03 -1.31641694e+07],889,1419.5395967954485
179,179,[-2.61631508e+03  3.45383826e+02 -3.20531198e-03 -1.31641694e+07],561,1420.1040963041808
180,180,[-1.92300250e+03  3.49388461e+02 -2.61740731e-03 -1.31641694e+07],260,1419.2343772435427
181,181,[-2.85637532e+03  3.44382770e+02 -3.55019651e-03 -1.31641694e+07],610,1419.9951617057422
182,182,[-2.63356325e+03  3.45383761e+02 -3.31318173e-03 -1.31641694e+07],572,1419.9849916223172
183,183,[-1.92524559e+03  3.49388589e+02 -2.58539874e-03 -1.31641694e+07],1188,1418.657275025174
184,184,[-2.82071011e+03  3.44382689e+02 -3.29397121e-03 -1.31641694e+07],334,1418.3302839383475
185,185,[-2.80744274e+03  3.44382796e+02 -3.34266944e-03 -1.31641694e+07],950,1418.8487630069405
186,186,[-2.80091922e+03  3.44382648e+02 -3.31382391e-03 -1.31641694e+07],1016,1418.1804779596257
187,187,[-1.92429853e+03  3.49388254e+02 -2.57229599e-03 -1.31641694e+07],175,1418.5894020516728
188,188,[-2.84151222e+03  3.44382726e+02 -3.53657122e-03 -1.31641694e+07],903,1419.495604438643
189,189,[-2.59837407e+03  3.45383871e+02 -3.13451648e-03 -1.31641694e+07],1097,1419.4487398635413
190,190,[-2.63793830e+03  3.45384326e+02 -3.20354305e-03 -1.31641694e+07],1018,1418.8289366117103
191,191,[-2.84579607e+03  3.44382963e+02 -3.33913337e-03 -1.31641694e+07],824,1419.1369667623094
192,192,[-2.60376485e+03  3.45384189e+02 -3.14161568e-03 -1.31641694e+07],612,1419.2924169863554
193,193,[-2.88379101e+03  3.44382837e+02 -3.56714245e-03 -1.31641694e+07],741,1419.0736211150358
194,194,[-2.61905156e+03  3.45384112e+02 -3.28502401e-03 -1.31641694e+07],768,1419.0246752111047
195,195,[-2.59277971e+03  3.45383985e+02 -3.11073670e-03 -1.31641694e+07],1308,1419.138463473817
196,196,[-2.65861411e+03  3.45383798e+02 -3.36357908e-03 -1.31641694e+07],225,1419.1613584994454
197,197,[-2.84048846e+03  3.44382656e+02 -3.51817492e-03 -1.31641694e+07],961,1419.860537254306
198,198,[-2.61264122e+03  3.45383762e+02 -3.17356473e-03 -1.31641694e+07],1408,1419.6750695730861
199,199,[-2.69423720e+03  3.45384073e+02 -3.69592891e-03 -1.31641694e+07],478,1418.013758513758
200,200,[-2.85653414e+03  3.44382685e+02 -3.58767375e-03 -1.31641694e+07],215,1419.777818307918
201,201,[-2.82350407e+03  3.44382703e+02 -3.51077228e-03 -1.31641694e+07],952,1419.633130829089
202,202,[-2.65831061e+03  3.45384169e+02 -3.56667844e-03 -1.31641694e+07],531,1418.5849158088256
203,203,[-2.82318414e+03  3.44383000e+02 -3.44479958e-03 -1.31641694e+07],567,1418.4602281020289
204,204,[-2.59438441e+03  3.45383943e+02 -3.13665743e-03 -1.31641694e+07],688,1419.2407209272872
205,205,[-2.69336782e+03  3.45383943e+02 -3.64479420e-03 -1.31641694e+07],404,1418.231758976234
206,206,[-2.82091031e+03  3.44382724e+02 -3.47555812e-03 -1.31641694e+07],348,1419.311720452746
207,207,[-2.80372776e+03  3.44382666e+02 -3.31320748e-03 -1.31641694e+07],985,1418.7164394258948
208,208,[-2.90741931e+03  3.44383186e+02 -4.11363529e-03 -1.31641694e+07],306,1416.504215101231
209,209,[-3.14944721e+03  3.42380454e+02 -3.85157594e-03 -1.31641694e+07],613,1416.7934076946062
210,210,[-2.62359881e+03  3.45384073e+02 -3.25583872e-03 -1.31641694e+07],321,1419.5235919463987
211,211,[-2.65689885e+03  3.45384040e+02 -3.51154578e-03 -1.31641694e+07],873,1419.5997692689104
212,212,[-2.81568557e+03  3.44383421e+02 -3.42602767e-03 -1.31641694e+07],407,1419.5087579137912
213,213,[-2.66942687e+03  3.45383877e+02 -3.50590584e-03 -1.31641694e+07],535,1418.9912377510575
214,214,[-2.64186187e+03  3.45383806e+02 -3.50269485e-03 -1.31641694e+07],859,1419.7341247723193
215,215,[-2.81082157e+03  3.44382788e+02 -3.40135312e-03 -1.31641694e+07],432,1419.885117671453
216,216,[-2.67169130e+03  3.45383763e+02 -3.51447764e-03 -1.31641694e+07],336,1419.6332651833634
217,217,[-2.59826953e+03  3.45383824e+02 -3.17949979e-03 -1.31641694e+07],1077,1420.1117097618835
218,218,[-3.25698354e+03  3.42380610e+02 -4.02128819e-03 -1.31641694e+07],592,1417.9844155786989
219,219,[-2.62700608e+03  3.45383805e+02 -3.26123463e-03 -1.31641694e+07],1100,1419.5461589006093
220,220,[-2.76608817e+03  3.45383920e+02 -3.71863057e-03 -1.31641694e+07],36,1416.6025120449165
221,221,[-3.25681141e+03  3.42380746e+02 -3.97395155e-03 -1.31641694e+07],197,1418.4020728304276
222,222,[-2.64208418e+03  3.45383790e+02 -3.30072018e-03 -1.31641694e+07],689,1419.1983263335183
223,223,[-2.52923954e+03  3.46384884e+02 -3.48350543e-03 -1.31641694e+07],983,1416.755340300316
224,224,[-2.85004149e+03  3.44382747e+02 -3.50172493e-03 -1.31641694e+07],878,1419.6487196481112
225,225,[-2.62173190e+03  3.45383958e+02 -3.19103473e-03 -1.31641694e+07],264,1419.8881077518945
226,226,[-1.92209644e+03  3.49388315e+02 -2.56855608e-03 -1.31641694e+07],114,1418.3050763313645
227,227,[-2.59923781e+03  3.45384624e+02 -3.04650584e-03 -1.31641694e+07],243,1419.287065390034
228,228,[-2.89646678e+03  3.44382656e+02 -3.58785260e-03 -1.31641694e+07],455,1418.9824096498176
229,229,[-2.80878163e+03  3.44383193e+02 -3.26383300e-03 -1.31641694e+07],940,1419.387223700389
230,230,[-2.49653854e+03  3.45383998e+02 -2.94312364e-03 -1.31641694e+07],518,1416.981564374426
231,231,[-1.91793292e+03  3.49388214e+02 -2.53811680e-03 -1.31641694e+07],1221,1418.8259956613358
232,232,[-2.43791813e+03  3.46384963e+02 -2.97329780e-03 -1.31641694e+07],854,1419.6432874449922
233,233,[-3.14994582e+03  3.42380649e+02 -3.83542243e-03 -1.31641694e+07],575,1417.5053993696201
234,234,[-3.06086494e+03  3.43381948e+02 -3.73597182e-03 -1.31641694e+07],510,1418.844234069436
235,235,[-2.66524983e+03  3.45383997e+02 -3.27588288e-03 -1.31641694e+07],247,1419.1561482746704
236,236,[-3.53235872e+03  3.41379495e+02 -4.39468339e-03 -1.31641694e+07],1253,1419.0169078070398
237,237,[-2.65024164e+03  3.45383899e+02 -3.48981517e-03 -1.31641694e+07],320,1419.4184453351518
238,238,[-2.61410806e+03  3.45384031e+02 -3.31388389e-03 -1.31641694e+07],373,1420.0948032105189
239,239,[-2.81142949e+03  3.44382986e+02 -3.41542344e-03 -1.31641694e+07],1244,1420.156623839957
240,240,[-1.92325165e+03  3.49388731e+02 -2.60879049e-03 -1.31641694e+07],936,1419.8284644767673
241,241,[-3.07703534e+03  3.43381576e+02 -3.72739375e-03 -1.31641694e+07],240,1419.7275730319836
242,242,[-3.31667709e+03  3.42380484e+02 -4.08018682e-03 -1.31641694e+07],964,1418.7128800805788
243,243,[-2.66471715e+03  3.45384173e+02 -3.28795494e-03 -1.31641694e+07],487,1419.8473957081371
244,244,[-3.36350553e+03  3.42380689e+02 -4.46514447e-03 -1.31641694e+07],1384,1420.1617106093897
245,245,[-3.32382991e+03  3.42380441e+02 -4.11490381e-03 -1.31641694e+07],1336,1419.4045716321793
246,246,[-2.49666098e+03  3.46385420e+02 -3.32934475e-03 -1.31641694e+07],815,1419.3175030652676
247,247,[-2.59087641e+03  3.45384098e+02 -3.22427403e-03 -1.31641694e+07],803,1419.8376371461677
248,248,[-2.60500424e+03  3.45384325e+02 -3.11837295e-03 -1.31641694e+07],1194,1419.038639854988
249,249,[-1.92490322e+03  3.49388359e+02 -2.61790807e-03 -1.31641694e+07],1223,1419.1883730609
250,250,[-2.64800418e+03  3.45383966e+02 -3.48036089e-03 -1.31641694e+07],345,1419.5897156110855
251,251,[-2.85031571e+03  3.44383011e+02 -3.57849602e-03 -1.31641694e+07],660,1419.7964290355822
252,252,[-1.92900573e+03  3.49388357e+02 -2.64989217e-03 -1.31641694e+07],122,1418.114092051024
253,253,[-2.81038142e+03  3.44382834e+02 -3.26773328e-03 -1.31641694e+07],1342,1418.7262120111263
254,254,[-2.80323979e+03  3.44382697e+02 -3.29338444e-03 -1.31641694e+07],333,1419.4642155995557
255,255,[-2.91545316e+03  3.44382999e+02 -3.56867633e-03 -1.31641694e+07],951,1419.2391581495813
256,256,[-2.88511555e+03  3.44382948e+02 -3.52665943e-03 -1.31641694e+07],522,1420.0377048422672
257,257,[-3.02194819e+03  3.43381578e+02 -3.52284154e-03 -1.31641694e+07],437,1418.9120379485744
258,258,[-2.65260744e+03  3.45383923e+02 -3.48738485e-03 -1.31641694e+07],1071,1419.1585222474796
259,259,[-2.65879491e+03  3.45383836e+02 -3.50574125e-03 -1.31641694e+07],658,1419.4440752581702
260,260,[-2.79701669e+03  3.44383042e+02 -3.38805007e-03 -1.31641694e+07],503,1419.9165808498483
261,261,[-2.65531475e+03  3.45383901e+02 -3.40310608e-03 -1.31641694e+07],339,1419.6122531402636
262,262,[-2.68361026e+03  3.45383774e+02 -3.34717422e-03 -1.31641694e+07],251,1419.2209827766046
263,263,[-2.80759992e+03  3.44382874e+02 -3.40569864e-03 -1.31641694e+07],745,1419.9426873893929
264,264,[-2.83294607e+03  3.44382916e+02 -3.47308886e-03 -1.31641694e+07],937,1419.8554908384172
265,265,[-2.99606980e+03  3.44382668e+02 -4.47071218e-03 -1.31641694e+07],969,1416.8015958017415
266,266,[-3.06184155e+03  3.43381561e+02 -3.68805555e-03 -1.31641694e+07],1394,1418.9883084596538
267,267,[-2.78749889e+03  3.44382661e+02 -3.30307597e-03 -1.31641694e+07],1084,1418.9963244049168
268,268,[-2.68781781e+03  3.45384472e+02 -3.43324082e-03 -1.31641694e+07],282,1418.4832936456035
269,269,[-3.15084755e+03  3.42380900e+02 -3.89243470e-03 -1.31641694e+07],618,1416.997136713032
270,270,[-3.09036280e+03  3.43381669e+02 -3.89029934e-03 -1.31641694e+07],988,1420.2044008553214
271,271,[-2.48510517e+03  3.46384982e+02 -3.33634057e-03 -1.31641694e+07],444,1419.1345917688093
272,272,[-2.66784905e+03  3.45383795e+02 -3.28522092e-03 -1.31641694e+07],853,1420.2382908607847
273,273,[-3.28501014e+03  3.42380491e+02 -3.83890045e-03 -1.31641694e+07],286,1418.6767230493551
274,274,[-2.86054512e+03  3.44382969e+02 -3.54104494e-03 -1.31641694e+07],968,1419.7492093684318
275,275,[-2.67147087e+03  3.45383817e+02 -3.60407779e-03 -1.31641694e+07],549,1418.9276959133708
276,276,[-2.51224698e+03  3.45383790e+02 -2.96969561e-03 -1.31641694e+07],415,1418.2870155490239
277,277,[-2.86824402e+03  3.44382724e+02 -3.51327218e-03 -1.31641694e+07],545,1419.7788627945304
278,278,[-3.33934934e+03  3.43381590e+02 -4.79774641e-03 -1.31641694e+07],458,1416.8834966450916
279,279,[-2.79161122e+03  3.44383104e+02 -3.46536765e-03 -1.31641694e+07],599,1418.694564834592
280,280,[-2.60739694e+03  3.45383985e+02 -3.21453738e-03 -1.31641694e+07],35,1420.140965054895
281,281,[-1.92436394e+03  3.49388286e+02 -2.58536668e-03 -1.31641694e+07],277,1419.2822661808873
282,282,[-2.80983822e+03  3.44383129e+02 -3.22438085e-03 -1.31641694e+07],1168,1419.7902348738212
283,283,[-2.33459921e+03  3.46385050e+02 -2.65519137e-03 -1.31641694e+07],200,1417.5357113922528
284,284,[-2.65551267e+03  3.45383941e+02 -3.37892907e-03 -1.31641694e+07],1374,1419.3792227037602
285,285,[-2.78767456e+03  3.44382792e+02 -3.26927064e-03 -1.31641694e+07],1166,1419.4985389638398
286,286,[-2.59664341e+03  3.45383817e+02 -3.11989308e-03 -1.31641694e+07],601,1419.7866145308606
287,287,[-2.66247130e+03  3.45383949e+02 -3.25185472e-03 -1.31641694e+07],498,1420.092452797326
288,288,[-2.81165638e+03  3.44382796e+02 -3.45957298e-03 -1.31641694e+07],840,1420.310859517576
289,289,[-2.77906447e+03  3.44383334e+02 -3.33872776e-03 -1.31641694e+07],791,1419.476017331378
290,290,[-2.87215560e+03  3.44383084e+02 -3.50150827e-03 -1.31641694e+07],814,1418.970582622272
291,291,[-2.90145582e+03  3.44382788e+02 -3.58995172e-03 -1.31641694e+07],1008,1420.0643200112036
292,292,[-3.33524932e+03  3.42380455e+02 -4.00489000e-03 -1.31641694e+07],882,1419.5979956012595
293,293,[-2.83574608e+03  3.44382666e+02 -3.57852808e-03 -1.31641694e+07],1245,1419.7098708879112
294,294,[-2.72858711e+03  3.45383807e+02 -3.48852164e-03 -1.31641694e+07],346,1417.8627385263694
295,295,[-3.29668521e+03  3.42380725e+02 -4.09894177e-03 -1.31641694e+07],674,1419.9662977452122
296,296,[-2.64239071e+03  3.45383790e+02 -3.35791593e-03 -1.31641694e+07],578,1420.1421276302221
297,297,[-2.66591790e+03  3.45383901e+02 -3.56623481e-03 -1.31641694e+07],1019,1419.034348314121
298,298,[-2.59904017e+03  3.45383901e+02 -3.18390637e-03 -1.31641694e+07],1179,1420.3752136308708
299,299,[-2.46769278e+03  3.46385296e+02 -3.12016190e-03 -1.31641694e+07],274,1419.2528358184377
300,300,[-2.66474284e+03  3.45383793e+02 -3.31515828e-03 -1.31641694e+07],1149,1419.9414915038103
301,301,[-2.64708299e+03  3.45384298e+02 -3.19405977e-03 -1.31641694e+07],153,1420.0544404159348
302,302,[-3.26619183e+03  3.42380781e+02 -3.86507471e-03 -1.31641694e+07],1335,1419.1790716502462
303,303,[-2.87461874e+03  3.44382698e+02 -3.46597782e-03 -1.31641694e+07],667,1419.5408098164016
304,304,[-2.65293163e+03  3.45383812e+02 -3.35082018e-03 -1.31641694e+07],1076,1419.6121139221225
305,305,[-3.02284919e+03  3.43381798e+02 -3.54971814e-03 -1.31641694e+07],1002,1419.3105186867122
306,306,[-2.42868007e+03  3.46385491e+02 -2.95845850e-03 -1.31641694e+07],214,1419.8744967897937
307,307,[-2.43492523e+03  3.46385048e+02 -3.03426403e-03 -1.31641694e+07],430,1420.051980653368
308,308,[-2.81019675e+03  3.44382681e+02 -3.27039125e-03 -1.31641694e+07],241,1419.70497544406
309,309,[-2.54639956e+03  3.45384336e+02 -2.87772697e-03 -1.31641694e+07],629,1418.7615517113784
310,310,[-2.43719114e+03  3.46385326e+02 -3.08957412e-03 -1.31641694e+07],1239,1419.571007068891
311,311,[-2.67231825e+03  3.45383962e+02 -3.64028578e-03 -1.31641694e+07],1387,1417.8311390460765
312,312,[-3.26107259e+03  3.42380673e+02 -4.00255923e-03 -1.31641694e+07],1283,1419.2926561243123
313,313,[-2.44110120e+03  3.46384901e+02 -3.06039250e-03 -1.31641694e+07],834,1419.484184239877
314,314,[-3.27526638e+03  3.42380500e+02 -3.84390773e-03 -1.31641694e+07],943,1418.5335775991039
315,315,[-3.28649623e+03  3.42380504e+02 -4.09442344e-03 -1.31641694e+07],1200,1419.4036185595792
316,316,[-2.54173676e+03  3.46384886e+02 -3.43621518e-03 -1.31641694e+07],598,1417.19781137747
317,317,[-2.67047163e+03  3.45384167e+02 -3.42231773e-03 -1.31641694e+07],1017,1418.927733287486
318,318,[-3.17324660e+03  3.42380459e+02 -3.74724325e-03 -1.31641694e+07],881,1417.9700911707494
319,319,[-2.74285403e+03  3.45383838e+02 -3.64363884e-03 -1.31641694e+07],293,1417.6676401124178
320,320,[-2.60348921e+03  3.45383792e+02 -3.14114346e-03 -1.31641694e+07],1259,1419.8340183687865
321,321,[-2.81845206e+03  3.44382792e+02 -3.35115489e-03 -1.31641694e+07],941,1419.8710974669534
322,322,[-1.93092590e+03  3.49388873e+02 -2.65020086e-03 -1.31641694e+07],308,1417.9561921323873
323,323,[-2.31835275e+03  3.46385315e+02 -2.64740645e-03 -1.31641694e+07],1191,1418.2464162185665
324,324,[-2.59237184e+03  3.45384256e+02 -3.15783079e-03 -1.31641694e+07],944,1420.0052400309098
325,325,[-1.92661226e+03  3.49388479e+02 -2.59278773e-03 -1.31641694e+07],963,1418.4070094273843
326,326,[-2.79552411e+03  3.44382826e+02 -3.18646760e-03 -1.31641694e+07],532,1419.60648125632
327,327,[-2.64693543e+03  3.45383829e+02 -3.38009466e-03 -1.31641694e+07],405,1419.6382699352453
328,328,[-1.92452797e+03  3.49388213e+02 -2.57781538e-03 -1.31641694e+07],1247,1419.353403411778
329,329,[-2.78806697e+03  3.44382711e+02 -3.22354702e-03 -1.31641694e+07],424,1419.6582376978365
330,330,[-2.83486177e+03  3.44382787e+02 -3.34413949e-03 -1.31641694e+07],603,1419.2632130374434
331,331,[-3.08036175e+03  3.43381622e+02 -3.92690952e-03 -1.31641694e+07],1330,1418.8748657492401
332,332,[-2.58731502e+03  3.45384330e+02 -3.12102345e-03 -1.31641694e+07],565,1419.970677826363
333,333,[-2.64505182e+03  3.45384544e+02 -3.36412891e-03 -1.31641694e+07],1306,1419.8093469565597
334,334,[-2.63829279e+03  3.45383778e+02 -3.44353401e-03 -1.31641694e+07],1216,1419.9073455400007
335,335,[-2.58714400e+03  3.45384336e+02 -3.12229956e-03 -1.31641694e+07],606,1419.998366293266
336,336,[-2.90276664e+03  3.44382711e+02 -3.77810483e-03 -1.31641694e+07],1007,1419.863514779277
337,337,[-2.51446138e+03  3.45383966e+02 -2.94563255e-03 -1.31641694e+07],1177,1417.6893017684436
338,338,[-2.61099427e+03  3.45383918e+02 -3.16818368e-03 -1.31641694e+07],1013,1419.4039489927177
339,339,[-2.86286444e+03  3.44382881e+02 -3.50826256e-03 -1.31641694e+07],976,1419.7972862082097
340,340,[-2.65932695e+03  3.45383783e+02 -3.48722798e-03 -1.31641694e+07],1081,1419.4891331504386
341,341,[-3.39974135e+03  3.42380558e+02 -4.19739029e-03 -1.31641694e+07],1119,1419.4723785378812
342,342,[-1.92271406e+03  3.49388700e+02 -2.57936278e-03 -1.31641694e+07],198,1418.7253288022516
343,343,[-2.43494702e+03  3.46384948e+02 -3.08725467e-03 -1.31641694e+07],558,1419.6158937028385
344,344,[-3.39146000e+03  3.42380465e+02 -4.17073856e-03 -1.31641694e+07],830,1419.4069727211984
345,345,[-1.92267388e+03  3.49388346e+02 -2.58438732e-03 -1.31641694e+07],787,1419.8129221493969
346,346,[-2.60955520e+03  3.45383818e+02 -3.15145228e-03 -1.31641694e+07],1258,1419.7598212033556
347,347,[-2.81926439e+03  3.44383179e+02 -3.50896962e-03 -1.31641694e+07],123,1420.401334277099
348,348,[-1.92150284e+03  3.49388213e+02 -2.56271693e-03 -1.31641694e+07],1341,1419.8806629833653
349,349,[-2.66354124e+03  3.45383761e+02 -3.40413833e-03 -1.31641694e+07],1319,1419.3314432844852
350,350,[-3.17150335e+03  3.42380780e+02 -3.82733181e-03 -1.31641694e+07],500,1418.330888168233
351,351,[-2.64763468e+03  3.45384190e+02 -3.31837710e-03 -1.31641694e+07],1337,1418.7250579022816
352,352,[-2.51261473e+03  3.46385104e+02 -3.32535096e-03 -1.31641694e+07],118,1417.8630496866442
353,353,[-3.29632966e+03  3.42380492e+02 -3.89012297e-03 -1.31641694e+07],736,1419.1676308642386
354,354,[-2.60010740e+03  3.45383920e+02 -3.30393747e-03 -1.31641694e+07],635,1419.2270468867457
355,355,[-2.72912389e+03  3.45384305e+02 -3.71085507e-03 -1.31641694e+07],329,1416.754711552413
356,356,[-2.64685077e+03  3.45384419e+02 -3.33167376e-03 -1.31641694e+07],868,1419.5603834490148
357,357,[-2.57603968e+03  3.45383763e+02 -3.04598661e-03 -1.31641694e+07],1261,1418.788913103904
358,358,[-2.74209007e+03  3.45384023e+02 -3.70568655e-03 -1.31641694e+07],1379,1417.25613873959
359,359,[-3.40097740e+03  3.42380720e+02 -4.52892949e-03 -1.31641694e+07],224,1419.547673282216
360,360,[-3.24806951e+03  3.42380490e+02 -4.02140692e-03 -1.31641694e+07],1038,1417.0512735755465
361,361,[-2.50273261e+03  3.46384888e+02 -3.41275351e-03 -1.31641694e+07],900,1418.4123796669098
362,362,[-2.87821204e+03  3.44382989e+02 -3.60555239e-03 -1.31641694e+07],456,1419.9795656045515
363,363,[-2.79717163e+03  3.44383010e+02 -3.20134904e-03 -1.31641694e+07],130,1419.468354680864
364,364,[-2.76694873e+03  3.45383819e+02 -3.69609379e-03 -1.31641694e+07],962,1417.5358049447836
365,365,[-2.65307439e+03  3.45383865e+02 -3.35237859e-03 -1.31641694e+07],521,1419.2108990027707
366,366,[-2.95995358e+03  3.43381608e+02 -3.36069072e-03 -1.31641694e+07],564,1416.28177923243
367,367,[-2.71378147e+03  3.45383847e+02 -3.62303017e-03 -1.31641694e+07],529,1417.1384646414087
368,368,[-2.85443828e+03  3.44382771e+02 -3.53562251e-03 -1.31641694e+07],379,1419.5749093157701
369,369,[-3.26101632e+03  3.42380433e+02 -4.13575500e-03 -1.31641694e+07],232,1419.457719244624
370,370,[-2.69345221e+03  3.45383771e+02 -3.62313330e-03 -1.31641694e+07],776,1417.8563576578138
371,371,[-1.92657349e+03  3.49388432e+02 -2.61674274e-03 -1.31641694e+07],519,1417.852783286668
372,372,[-2.92662062e+03  3.43381553e+02 -3.10672471e-03 -1.31641694e+07],1298,1413.2222178207678
373,373,[-2.66537115e+03  3.45383942e+02 -3.35729115e-03 -1.31641694e+07],327,1419.8338658160505
374,374,[-2.73032500e+03  3.45384068e+02 -3.64064342e-03 -1.31641694e+07],808,1417.4958768280599
375,375,[-3.28958481e+03  3.42380431e+02 -3.86670818e-03 -1.31641694e+07],727,1418.2473890476545
376,376,[-2.59170998e+03  3.45384051e+02 -3.11095106e-03 -1.31641694e+07],1287,1418.1530357189843
377,377,[-2.51693248e+03  3.46385263e+02 -3.34135976e-03 -1.31641694e+07],216,1415.6700960009669
378,378,[-2.50264691e+03  3.45383838e+02 -2.86218409e-03 -1.31641694e+07],91,1418.4969572233683
379,379,[-2.64244553e+03  3.45383829e+02 -3.20745088e-03 -1.31641694e+07],201,1419.6441895597848
380,380,[-2.83671208e+03  3.44382798e+02 -3.48213046e-03 -1.31641694e+07],739,1417.4018801123796
381,381,[-1.99692807e+03  3.48387337e+02 -2.37731357e-03 -1.31641694e+07],1138,1416.589182739082
382,382,[-2.66568194e+03  3.45383898e+02 -3.55570350e-03 -1.31641694e+07],697,1418.8446231712355
383,383,[-2.58796211e+03  3.45383918e+02 -3.10596991e-03 -1.31641694e+07],832,1420.3279732648655
384,384,[-2.78486426e+03  3.44382731e+02 -3.33699919e-03 -1.31641694e+07],1063,1416.597209824347
385,385,[-2.71532135e+03  3.45383976e+02 -3.60675882e-03 -1.31641694e+07],694,1418.4917289271102
386,386,[-2.88317499e+03  3.44382907e+02 -3.61685311e-03 -1.31641694e+07],343,1419.314346150015
387,387,[-3.31695851e+03  3.42380535e+02 -3.87672710e-03 -1.31641694e+07],624,1418.5977955137525
388,388,[-2.46484770e+03  3.46385011e+02 -3.15707037e-03 -1.31641694e+07],261,1420.1387643492526
389,389,[-3.29583738e+03  3.42380666e+02 -3.99765273e-03 -1.31641694e+07],304,1417.5229262817375
390,390,[-2.81259062e+03  3.44382661e+02 -3.29042180e-03 -1.31641694e+07],1348,1418.673483537404
391,391,[-2.79233914e+03  3.44383217e+02 -3.51356679e-03 -1.31641694e+07],326,1417.339629868691
392,392,[-2.81800961e+03  3.44382709e+02 -3.27950512e-03 -1.31641694e+07],211,1417.6671434262746
393,393,[-3.08468536e+03  3.43381878e+02 -3.74264868e-03 -1.31641694e+07],525,1419.0152593682674
394,394,[-1.91870995e+03  3.49388594e+02 -2.54864509e-03 -1.31641694e+07],292,1418.4780740635322
395,395,[-2.65342342e+03  3.45383878e+02 -3.18033247e-03 -1.31641694e+07],1056,1416.9414431840505
396,396,[-3.37385915e+03  3.42380698e+02 -3.98191589e-03 -1.31641694e+07],1353,1417.9177332019387
397,397,[-2.89479996e+03  3.44382775e+02 -3.49052242e-03 -1.31641694e+07],1106,1417.615938713062
398,398,[-3.31707117e+03  3.42380576e+02 -3.88818762e-03 -1.31641694e+07],842,1417.1085627939872
399,399,[-2.56790596e+03  3.45383886e+02 -2.99892634e-03 -1.31641694e+07],953,1417.3437985046744
400,400,[-2.99433681e+03  3.44382717e+02 -4.33782119e-03 -1.31641694e+07],250,1414.9707915147158
401,401,[-3.17663158e+03  3.43381725e+02 -3.72610058e-03 -1.31641694e+07],837,1417.4933766249999
402,402,[-2.57492287e+03  3.45383822e+02 -3.13749507e-03 -1.31641694e+07],945,1419.1113570189525
403,403,[-2.68058347e+03  3.45384106e+02 -3.37402614e-03 -1.31641694e+07],850,1418.7215948330497
404,404,[-3.08800342e+03  3.43381799e+02 -3.84461816e-03 -1.31641694e+07],1314,1419.8828690041287
405,405,[-2.60248578e+03  3.45384575e+02 -3.10796825e-03 -1.31641694e+07],1199,1419.7007976439081
406,406,[-2.73213805e+03  3.45383792e+02 -3.60114412e-03 -1.31641694e+07],724,1419.0229240995786
407,407,[-2.85373678e+03  3.44382771e+02 -3.52575877e-03 -1.31641694e+07],442,1419.8687886138816
408,408,[-2.58233755e+03  3.45383986e+02 -3.04431892e-03 -1.31641694e+07],779,1419.996331695368
409,409,[-2.71780627e+03  3.45384145e+02 -3.51911603e-03 -1.31641694e+07],142,1419.4327165090654
410,410,[-2.44861975e+03  3.46385105e+02 -3.13776021e-03 -1.31641694e+07],538,1418.5439907990697
411,411,[-3.28835694e+03  3.42380436e+02 -3.85622411e-03 -1.31641694e+07],1120,1419.1592027584695
412,412,[-1.93080458e+03  3.49389050e+02 -2.62007102e-03 -1.31641694e+07],368,1417.4691184529975
413,413,[-3.27025939e+03  3.42380770e+02 -3.85494033e-03 -1.31641694e+07],1093,1418.846237516076
414,414,[-3.56301514e+03  3.41379339e+02 -4.39598742e-03 -1.31641694e+07],901,1418.1326550972929
415,415,[-2.43492269e+03  3.46385088e+02 -3.06457558e-03 -1.31641694e+07],310,1419.7826532310235
416,416,[-2.58470142e+03  3.45384282e+02 -3.09881888e-03 -1.31641694e+07],780,1420.3498815550076
417,417,[-2.60113500e+03  3.45384035e+02 -3.20926841e-03 -1.31641694e+07],1411,1420.3670419332086
418,418,[-2.49818280e+03  3.46384969e+02 -3.38077801e-03 -1.31641694e+07],530,1418.6347562509254
419,419,[-2.65538424e+03  3.45383847e+02 -3.40084857e-03 -1.31641694e+07],516,1419.5367321232952
420,420,[-2.78858615e+03  3.44382876e+02 -3.24508851e-03 -1.31641694e+07],671,1420.0740860822455
421,421,[-2.84184349e+03  3.44382797e+02 -3.37200040e-03 -1.31641694e+07],356,1420.1365776958569
422,422,[-2.71502914e+03  3.45383815e+02 -3.53220327e-03 -1.31641694e+07],1042,1418.7593829693467
423,423,[-2.79498885e+03  3.44382959e+02 -3.23244759e-03 -1.31641694e+07],833,1419.5398548699663
424,424,[-2.80658561e+03  3.44382663e+02 -3.22765321e-03 -1.31641694e+07],743,1419.6995164573189
425,425,[-2.53202104e+03  3.46385420e+02 -3.40264160e-03 -1.31641694e+07],805,1417.6367275716143
426,426,[-2.78948361e+03  3.44382685e+02 -3.23982435e-03 -1.31641694e+07],718,1419.546528558289
427,427,[-2.71369753e+03  3.44382892e+02 -3.03305980e-03 -1.31641694e+07],541,1416.6681955129711
428,428,[-2.86860450e+03  3.44382758e+02 -3.71526935e-03 -1.31641694e+07],359,1420.16483698831
429,429,[-3.36691650e+03  3.42380548e+02 -4.37775742e-03 -1.31641694e+07],426,1418.972002637487
430,430,[-2.81249659e+03  3.44382872e+02 -3.25396732e-03 -1.31641694e+07],219,1419.7333342166423
431,431,[-2.67208396e+03  3.45384081e+02 -3.38709906e-03 -1.31641694e+07],928,1419.1821500685205
432,432,[-2.61807609e+03  3.45384275e+02 -3.18613809e-03 -1.31641694e+07],303,1419.8660574789517
433,433,[-3.61559646e+03  3.41379351e+02 -4.33136126e-03 -1.31641694e+07],94,1418.7896114619946
434,434,[-2.74213145e+03  3.45383908e+02 -3.68529947e-03 -1.31641694e+07],423,1416.6525525010152
435,435,[-2.79133094e+03  3.44383151e+02 -3.21654771e-03 -1.31641694e+07],178,1419.3052434044532
436,436,[-2.85075194e+03  3.44382729e+02 -3.50194647e-03 -1.31641694e+07],1066,1419.4806648600513
437,437,[-2.62844500e+03  3.45383971e+02 -3.27748571e-03 -1.31641694e+07],419,1419.8035382181263
438,438,[-3.28397982e+03  3.42380454e+02 -3.84287719e-03 -1.31641694e+07],1092,1419.2587443892785
439,439,[-2.63316974e+03  3.45384281e+02 -3.21459485e-03 -1.31641694e+07],125,1420.3789245052035
440,440,[-2.62871366e+03  3.45383912e+02 -3.43450940e-03 -1.31641694e+07],1290,1419.08094103096
441,441,[-2.97269612e+03  3.43381701e+02 -3.39577270e-03 -1.31641694e+07],210,1417.8205161457636
442,442,[-2.69002572e+03  3.45384345e+02 -3.47352408e-03 -1.31641694e+07],737,1419.5844417810054
443,443,[-2.52293520e+03  3.45384143e+02 -2.94168651e-03 -1.31641694e+07],517,1418.1119519756828
444,444,[-2.81475428e+03  3.44382652e+02 -3.27794165e-03 -1.31641694e+07],1148,1419.7884357214195
445,445,[-2.73812335e+03  3.45383989e+02 -3.67288005e-03 -1.31641694e+07],1060,1417.6723310738118
446,446,[-3.31613959e+03  3.42380875e+02 -4.02883599e-03 -1.31641694e+07],806,1419.9318954943856
447,447,[-3.30142091e+03  3.42380958e+02 -3.86891401e-03 -1.31641694e+07],493,1418.939072332352
448,448,[-2.65207810e+03  3.45383998e+02 -3.33599959e-03 -1.31641694e+07],1085,1420.145602788012
449,449,[-2.81350263e+03  3.44383000e+02 -3.30634225e-03 -1.31641694e+07],1370,1420.0954191186095
450,450,[-3.08314498e+03  3.43381619e+02 -3.64096538e-03 -1.31641694e+07],847,1419.4322055270777
451,451,[-2.66354163e+03  3.45384044e+02 -3.36217831e-03 -1.31641694e+07],101,1420.049337332151
452,452,[-2.43267802e+03  3.46385041e+02 -3.01616982e-03 -1.31641694e+07],212,1419.078219000944
453,453,[-3.06372045e+03  3.43381541e+02 -3.64692294e-03 -1.31641694e+07],773,1419.929784914898
454,454,[-2.66446282e+03  3.45384328e+02 -3.37571531e-03 -1.31641694e+07],991,1420.0563678972678
455,455,[-2.64274369e+03  3.45383868e+02 -3.25824614e-03 -1.31641694e+07],919,1419.8473470748143
456,456,[-2.80534964e+03  3.44382716e+02 -3.23356185e-03 -1.31641694e+07],150,1419.6466404812486
457,457,[-2.64693967e+03  3.45383812e+02 -3.29907457e-03 -1.31641694e+07],1035,1420.153506508008
458,458,[-2.63638236e+03  3.45383983e+02 -3.35857378e-03 -1.31641694e+07],285,1419.7816037141465
459,459,[-3.28878047e+03  3.42380473e+02 -3.86279835e-03 -1.31641694e+07],923,1418.3066805480962
460,460,[-2.64269823e+03  3.45384081e+02 -3.32975883e-03 -1.31641694e+07],133,1419.1419766631527
461,461,[-2.71999276e+03  3.44382866e+02 -3.12181930e-03 -1.31641694e+07],1376,1415.8917109449985
462,462,[-3.02559612e+03  3.43382048e+02 -3.72878012e-03 -1.31641694e+07],188,1419.450628366966
463,463,[-2.73954291e+03  3.45383762e+02 -3.64674845e-03 -1.31641694e+07],740,1417.611918133555
464,464,[-2.32610931e+03  3.46385556e+02 -2.74716443e-03 -1.31641694e+07],340,1417.3931857284679
465,465,[-2.84850321e+03  3.44383191e+02 -3.33484618e-03 -1.31641694e+07],908,1419.3112881617615
466,466,[-2.74427899e+03  3.45384046e+02 -3.73796831e-03 -1.31641694e+07],100,1416.8477949934875
467,467,[-3.26768571e+03  3.42380566e+02 -3.83665706e-03 -1.31641694e+07],682,1419.2307670641642
468,468,[-2.73084538e+03  3.45384208e+02 -3.60039992e-03 -1.31641694e+07],1126,1418.4654467499695
469,469,[-2.84561269e+03  3.44382752e+02 -3.52757229e-03 -1.31641694e+07],691,1420.065961494284
470,470,[-2.81121899e+03  3.44382693e+02 -3.21171548e-03 -1.31641694e+07],585,1418.567823112687
471,471,[-2.51739200e+03  3.46385069e+02 -3.40844593e-03 -1.31641694e+07],313,1417.3898897668673
472,472,[-2.50093226e+03  3.45383962e+02 -2.86947598e-03 -1.31641694e+07],436,1418.014587575962
473,473,[-3.07605135e+03  3.43382034e+02 -3.58260406e-03 -1.31641694e+07],1328,1418.8393270802655
474,474,[-2.67935618e+03  3.45383796e+02 -3.41493101e-03 -1.31641694e+07],569,1419.23832189561
475,475,[-3.26770825e+03  3.42380614e+02 -3.83454383e-03 -1.31641694e+07],663,1418.8657709258214
476,476,[-2.81070820e+03  3.44382974e+02 -3.50663195e-03 -1.31641694e+07],534,1420.0507544909208
477,477,[-2.69660649e+03  3.45384287e+02 -3.49337370e-03 -1.31641694e+07],1061,1419.4514014959257
478,478,[-2.64594367e+03  3.45383894e+02 -3.27458172e-03 -1.31641694e+07],289,1419.887147920262
479,479,[-2.82169419e+03  3.44382847e+02 -3.23693855e-03 -1.31641694e+07],770,1419.2933477749373
480,480,[-2.65724566e+03  3.45383805e+02 -3.28703727e-03 -1.31641694e+07],1361,1418.7751650036653
481,481,[-2.95793913e+03  3.43381788e+02 -3.41520766e-03 -1.31641694e+07],341,1416.967299323495
482,482,[-2.79858385e+03  3.44382837e+02 -3.33711244e-03 -1.31641694e+07],1383,1418.4017304333145
483,483,[-2.64820852e+03  3.45383847e+02 -3.29968548e-03 -1.31641694e+07],820,1418.7787149734704
484,484,[-3.17862850e+03  3.42380925e+02 -3.80736670e-03 -1.31641694e+07],149,1418.1595920505545
485,485,[-2.61811080e+03  3.45383879e+02 -3.13180610e-03 -1.31641694e+07],106,1419.1947566694962
486,486,[-2.67071017e+03  3.45384202e+02 -3.38939648e-03 -1.31641694e+07],363,1417.762203751756
487,487,[-2.76955496e+03  3.44382794e+02 -3.31283288e-03 -1.31641694e+07],554,1419.8246804316111
488,488,[-2.68144090e+03  3.45383829e+02 -3.47335890e-03 -1.31641694e+07],254,1419.0707204111445
489,489,[-2.67934495e+03  3.44383122e+02 -3.00128651e-03 -1.31641694e+07],681,1414.625740101311
490,490,[-2.61674801e+03  3.45383994e+02 -3.23057753e-03 -1.31641694e+07],1219,1420.1102065444131
491,491,[-2.74017964e+03  3.45383788e+02 -3.65924971e-03 -1.31641694e+07],705,1417.514579956464
492,492,[-3.53607827e+03  3.41379377e+02 -4.63110706e-03 -1.31641694e+07],369,1419.4334753864016
493,493,[-2.62252604e+03  3.45383970e+02 -3.38502943e-03 -1.31641694e+07],1095,1419.5162946792564
494,494,[-3.01182206e+03  3.44383093e+02 -4.25258748e-03 -1.31641694e+07],477,1415.8069852062918
495,495,[-3.39058319e+03  3.42380449e+02 -4.15825256e-03 -1.31641694e+07],462,1420.2618283246513
496,496,[-3.57949919e+03  3.41379871e+02 -4.37007385e-03 -1.31641694e+07],1144,1419.0813552485376
497,497,[-2.70568861e+03  3.45384021e+02 -3.50186256e-03 -1.31641694e+07],189,1418.8123538436118
498,498,[-2.79372611e+03  3.44382678e+02 -3.22017399e-03 -1.31641694e+07],117,1419.7693409072024
499,499,[-2.81943373e+03  3.44383117e+02 -3.48273800e-03 -1.31641694e+07],259,1420.2774830707967
500,500,[-2.47380759e+03  3.46385031e+02 -3.19641854e-03 -1.31641694e+07],559,1419.6640891092063
501,501,[-2.60621479e+03  3.45384479e+02 -3.09387536e-03 -1.31641694e+07],980,1420.3693202612235
502,502,[-2.84020941e+03  3.44382754e+02 -3.52622069e-03 -1.31641694e+07],25,1420.3164824646174
503,503,[-2.83570283e+03  3.44382743e+02 -3.34833982e-03 -1.31641694e+07],512,1419.797651865977
504,504,[-2.70967697e+03  3.45384001e+02 -3.49468037e-03 -1.31641694e+07],713,1418.8062337159945
505,505,[-2.43955960e+03  3.46384899e+02 -3.20237811e-03 -1.31641694e+07],1009,1418.7836060585423
506,506,[-2.61434030e+03  3.45383796e+02 -3.09618433e-03 -1.31641694e+07],492,1419.2019441465181
507,507,[-2.66857044e+03  3.45383768e+02 -3.32240534e-03 -1.31641694e+07],1331,1419.9211845036398
508,508,[-2.62464562e+03  3.45383818e+02 -3.20165264e-03 -1.31641694e+07],409,1420.0871470358513
509,509,[-2.98166849e+03  3.43382010e+02 -3.46479579e-03 -1.31641694e+07],450,1417.4194564405998
510,510,[-2.89723010e+03  3.44382719e+02 -3.39054232e-03 -1.31641694e+07],1064,1419.8376810985746
511,511,[-2.84942542e+03  3.44382692e+02 -3.48663549e-03 -1.31641694e+07],1078,1418.9268167211437
512,512,[-2.80241384e+03  3.44382873e+02 -3.26123705e-03 -1.31641694e+07],757,1419.4369125433536
513,513,[-2.65342937e+03  3.45384146e+02 -3.34241123e-03 -1.31641694e+07],649,1420.1014655943602
514,514,[-2.53085904e+03  3.46385155e+02 -3.40804074e-03 -1.31641694e+07],1006,1417.2880226683124
515,515,[-2.33493785e+03  3.46385276e+02 -2.69583286e-03 -1.31641694e+07],855,1417.4426327181993
516,516,[-2.82305911e+03  3.44382959e+02 -3.31171331e-03 -1.31641694e+07],237,1419.5647077061851
517,517,[-2.66263561e+03  3.45383868e+02 -3.36828514e-03 -1.31641694e+07],617,1419.52235673719
518,518,[-2.61493347e+03  3.45383886e+02 -3.13296659e-03 -1.31641694e+07],747,1419.8440013756087
519,519,[-3.38391853e+03  3.42380574e+02 -4.37564341e-03 -1.31641694e+07],99,1419.642136031851
520,520,[-2.49907133e+03  3.46385018e+02 -3.40276322e-03 -1.31641694e+07],670,1418.1590298114072
521,521,[-2.63520781e+03  3.45383821e+02 -3.25772693e-03 -1.31641694e+07],1323,1419.6461133252506
522,522,[-2.62120289e+03  3.45383986e+02 -3.23890806e-03 -1.31641694e+07],1373,1419.8040913079403
523,523,[-2.49468918e+03  3.46385000e+02 -3.37594998e-03 -1.31641694e+07],110,1419.0432813837808
524,524,[-2.61431729e+03  3.45384032e+02 -3.17815874e-03 -1.31641694e+07],29,1420.454282049757
525,525,[-3.34148834e+03  3.42380490e+02 -4.01273274e-03 -1.31641694e+07],774,1419.598697552648
526,526,[-2.84721246e+03  3.44382733e+02 -3.34031526e-03 -1.31641694e+07],899,1419.306794286691
527,527,[-2.49015474e+03  3.46385193e+02 -3.25970053e-03 -1.31641694e+07],911,1418.1330360591048
528,528,[-2.96326474e+03  3.43381635e+02 -3.44321456e-03 -1.31641694e+07],344,1417.7252629941165
529,529,[-2.83198368e+03  3.44382655e+02 -3.29658163e-03 -1.31641694e+07],977,1419.6443677220652
530,530,[-2.46714865e+03  3.46385265e+02 -3.13880023e-03 -1.31641694e+07],245,1419.5658229053336
531,531,[-2.69058203e+03  3.45384377e+02 -3.48427913e-03 -1.31641694e+07],338,1419.8845186683084
532,532,[-3.35455619e+03  3.42380621e+02 -4.05856193e-03 -1.31641694e+07],1226,1419.7011451265705
533,533,[-2.65475888e+03  3.45383826e+02 -3.04392418e-03 -1.31641694e+07],315,1419.0524257534364
534,534,[-2.72414002e+03  3.45383810e+02 -3.54724410e-03 -1.31641694e+07],537,1419.4778298327715
535,535,[-2.81466451e+03  3.44382650e+02 -3.26331803e-03 -1.31641694e+07],1155,1419.8685391105403
536,536,[-2.82767441e+03  3.44382807e+02 -3.29232514e-03 -1.31641694e+07],1069,1420.0161674579829
537,537,[-2.70739703e+03  3.45383909e+02 -3.57002713e-03 -1.31641694e+07],26,1419.398442690008
538,538,[-3.35501755e+03  3.42380575e+02 -4.36322759e-03 -1.31641694e+07],103,1419.582496339641
539,539,[-2.69766016e+03  3.44382782e+02 -3.02694469e-03 -1.31641694e+07],1010,1415.3114689100362
540,540,[-2.67579288e+03  3.45383864e+02 -3.45459741e-03 -1.31641694e+07],801,1419.3368256784743
541,541,[-2.80095639e+03  3.44383080e+02 -3.26391521e-03 -1.31641694e+07],229,1419.54869829915
542,542,[-2.34558599e+03  3.46384997e+02 -2.69878388e-03 -1.31641694e+07],698,1418.0106240500243
543,543,[-2.75999174e+03  3.45384025e+02 -3.73436821e-03 -1.31641694e+07],668,1416.1184285878485
544,544,[-3.28910717e+03  3.42380454e+02 -3.85997885e-03 -1.31641694e+07],866,1419.3094654377865
545,545,[-2.64209369e+03  3.45384153e+02 -3.25047803e-03 -1.31641694e+07],284,1419.7819244291284
546,546,[-2.60936267e+03  3.45384064e+02 -3.16926349e-03 -1.31641694e+07],1080,1420.2408011720543
547,547,[-3.35106701e+03  3.42380556e+02 -4.33885893e-03 -1.31641694e+07],174,1420.3788016305189
548,548,[-2.73482163e+03  3.45383773e+02 -3.66597339e-03 -1.31641694e+07],735,1417.0309210495996
549,549,[-3.06361074e+03  3.43381545e+02 -3.69376748e-03 -1.31641694e+07],1208,1419.785479984817
550,550,[-2.81251656e+03  3.44382947e+02 -3.31471441e-03 -1.31641694e+07],1313,1419.970583394803
551,551,[-2.65369312e+03  3.45384478e+02 -3.43105296e-03 -1.31641694e+07],974,1419.1198973259761
552,552,[-2.98590285e+03  3.43381586e+02 -3.41912854e-03 -1.31641694e+07],30,1416.8929956762092
553,553,[-3.34447446e+03  3.42380650e+02 -3.90113091e-03 -1.31641694e+07],1345,1418.8516160929544
554,554,[-2.69948947e+03  3.45384067e+02 -3.54827217e-03 -1.31641694e+07],782,1419.4648469842998
555,555,[-3.12900186e+03  3.43381576e+02 -3.92587730e-03 -1.31641694e+07],1257,1420.0733612667534
556,556,[-3.36391870e+03  3.42380426e+02 -3.93940276e-03 -1.31641694e+07],827,1418.530691620977
557,557,[-2.47661603e+03  3.46385178e+02 -3.15038731e-03 -1.31641694e+07],328,1419.2911372035371
558,558,[-3.06118968e+03  3.43382152e+02 -3.58190968e-03 -1.31641694e+07],1169,1419.6745701637947
559,559,[-2.85941785e+03  3.44382909e+02 -3.44287835e-03 -1.31641694e+07],712,1419.441880719675
560,560,[-2.50212568e+03  3.46384878e+02 -3.25029082e-03 -1.31641694e+07],1182,1417.8006996860895
561,561,[-2.64161821e+03  3.45384630e+02 -3.27600706e-03 -1.31641694e+07],173,1419.9173972997892
562,562,[-3.60830470e+03  3.41379494e+02 -4.39369659e-03 -1.31641694e+07],540,1419.1491930258637
563,563,[-2.51296465e+03  3.46385003e+02 -3.31766814e-03 -1.31641694e+07],147,1417.7182397529118
564,564,[-2.83060927e+03  3.44383056e+02 -3.33152676e-03 -1.31641694e+07],1091,1419.6459638743725
565,565,[-2.79696685e+03  3.44382727e+02 -3.24004105e-03 -1.31641694e+07],1413,1419.690370121039
566,566,[-2.50089154e+03  3.46384900e+02 -3.31560472e-03 -1.31641694e+07],1132,1418.054054535251
567,567,[-2.83409885e+03  3.44382667e+02 -3.37360417e-03 -1.31641694e+07],1282,1419.8844609402388
568,568,[-2.52473214e+03  3.45384000e+02 -2.88264623e-03 -1.31641694e+07],349,1418.411886474772
569,569,[-2.69342864e+03  3.45383966e+02 -3.53895622e-03 -1.31641694e+07],1233,1419.4795184964617
570,570,[-2.69440622e+03  3.45383990e+02 -3.51968428e-03 -1.31641694e+07],849,1418.9567594443783
571,571,[-3.30673582e+03  3.42380637e+02 -3.83248132e-03 -1.31641694e+07],176,1419.0943286000054
572,572,[-2.89693226e+03  3.44382724e+02 -3.58660655e-03 -1.31641694e+07],810,1419.9129186225152
573,573,[-2.69837597e+03  3.45384052e+02 -3.59066944e-03 -1.31641694e+07],146,1418.3478820749438
574,574,[-2.71234924e+03  3.44382950e+02 -3.07349712e-03 -1.31641694e+07],1094,1416.8380015565326
575,575,[-2.67926985e+03  3.45383783e+02 -3.38512650e-03 -1.31641694e+07],246,1419.8387155103107
576,576,[-2.63018369e+03  3.45383776e+02 -3.33282525e-03 -1.31641694e+07],1312,1418.6354021919544
577,577,[-2.69772136e+03  3.44383002e+02 -3.06977934e-03 -1.31641694e+07],891,1416.3474014571264
578,578,[-2.46880271e+03  3.46384877e+02 -3.17611608e-03 -1.31641694e+07],1123,1419.7546391320047
579,579,[-2.71118462e+03  3.45383928e+02 -3.52734093e-03 -1.31641694e+07],731,1418.914455037386
580,580,[-2.68744327e+03  3.44382913e+02 -3.03919785e-03 -1.31641694e+07],386,1416.2942751897237
581,581,[-3.05970764e+03  3.43381560e+02 -3.57174958e-03 -1.31641694e+07],1121,1418.2382596058621
582,582,[-2.52539985e+03  3.46385049e+02 -3.34150028e-03 -1.31641694e+07],206,1417.4371042116486
583,583,[-2.96663819e+03  3.43381584e+02 -3.43944068e-03 -1.31641694e+07],1301,1417.1049329122084
584,584,[-2.69129346e+03  3.45383868e+02 -3.45115150e-03 -1.31641694e+07],465,1419.2524855845325
585,585,[-2.67619852e+03  3.45383895e+02 -3.45910592e-03 -1.31641694e+07],644,1419.484773325358
586,586,[-2.96453552e+03  3.43381753e+02 -3.40121881e-03 -1.31641694e+07],305,1417.790525909443
587,587,[-2.82977463e+03  3.44382716e+02 -3.24786411e-03 -1.31641694e+07],544,1418.2464687668057
588,588,[-2.63728208e+03  3.45384078e+02 -3.18091712e-03 -1.31641694e+07],1115,1419.2830536003623
589,589,[-2.70063801e+03  3.44382744e+02 -2.99504407e-03 -1.31641694e+07],526,1414.432833995475
590,590,[-2.68616905e+03  3.45383934e+02 -3.47315139e-03 -1.31641694e+07],435,1418.8732076101676
591,591,[-2.00579452e+03  3.48387627e+02 -2.38090626e-03 -1.31641694e+07],604,1416.0104642512085
592,592,[-2.60526700e+03  3.45383788e+02 -3.26087240e-03 -1.31641694e+07],1274,1419.8624239639273
593,593,[-2.42022936e+03  3.46385024e+02 -3.03674664e-03 -1.31641694e+07],795,1419.1924282926195
594,594,[-2.53584501e+03  3.45384221e+02 -2.90611252e-03 -1.31641694e+07],647,1419.0626370235748
595,595,[-2.73628927e+03  3.45384248e+02 -3.70031108e-03 -1.31641694e+07],683,1418.5689576745772
596,596,[-2.63493769e+03  3.45383871e+02 -3.35640399e-03 -1.31641694e+07],1209,1418.891111756409
597,597,[-2.79104711e+03  3.44383148e+02 -3.27303461e-03 -1.31641694e+07],798,1420.0628183176545
598,598,[-2.70058486e+03  3.45383923e+02 -3.49614082e-03 -1.31641694e+07],1215,1419.7198512028135
599,599,[-2.83285756e+03  3.44383111e+02 -3.45466279e-03 -1.31641694e+07],934,1419.7811382571556
600,600,[-2.59814268e+03  3.45383930e+02 -3.07957145e-03 -1.31641694e+07],479,1420.2438432392182
601,601,[-2.46086580e+03  3.46384991e+02 -3.12979123e-03 -1.31641694e+07],312,1419.7704921863203
602,602,[-2.52681893e+03  3.46385189e+02 -3.39612083e-03 -1.31641694e+07],192,1417.0427305870382
603,603,[-3.00487299e+03  3.43381761e+02 -3.58148239e-03 -1.31641694e+07],38,1419.6955976837173
604,604,[-3.37640541e+03  3.42380680e+02 -4.03879353e-03 -1.31641694e+07],1311,1419.3045343877802
605,605,[-2.46348243e+03  3.46385078e+02 -3.11854837e-03 -1.31641694e+07],557,1418.77295182727
606,606,[-3.32853171e+03  3.42380529e+02 -4.00375874e-03 -1.31641694e+07],695,1419.684912335735
607,607,[-3.06517051e+03  3.43381872e+02 -3.59486396e-03 -1.31641694e+07],141,1418.4102327496723
608,608,[-2.69598724e+03  3.45383845e+02 -3.61848515e-03 -1.31641694e+07],227,1418.4973243307131
609,609,[-2.96957246e+03  3.43381801e+02 -3.52303245e-03 -1.31641694e+07],1246,1418.04723219168
610,610,[-3.14782109e+03  3.43381551e+02 -3.81098098e-03 -1.31641694e+07],1203,1419.9161166032445
611,611,[-2.67143344e+03  3.45383914e+02 -3.44254515e-03 -1.31641694e+07],588,1420.0224972907506
612,612,[-2.80350436e+03  3.44383029e+02 -3.29389106e-03 -1.31641694e+07],281,1419.893043922609
613,613,[-2.66402816e+03  3.45383812e+02 -3.25386058e-03 -1.31641694e+07],895,1419.8728023462681
614,614,[-2.52260587e+03  3.46384950e+02 -3.36826665e-03 -1.31641694e+07],144,1418.4679177449852
615,615,[-2.32909005e+03  3.46385087e+02 -2.67217202e-03 -1.31641694e+07],161,1418.3280392286936
616,616,[-3.07479113e+03  3.43381605e+02 -3.59496851e-03 -1.31641694e+07],1058,1418.8920546357501
617,617,[-2.90641302e+03  3.44383177e+02 -3.64083768e-03 -1.31641694e+07],330,1419.4182378194462
618,618,[-3.32219352e+03  3.42380584e+02 -3.99188095e-03 -1.31641694e+07],438,1419.7899446684805
619,619,[-2.51005914e+03  3.46385340e+02 -3.37423620e-03 -1.31641694e+07],1211,1418.134082154276
620,620,[-2.45821685e+03  3.46385036e+02 -3.11247753e-03 -1.31641694e+07],640,1419.9982326891775
621,621,[-2.54252945e+03  3.45383923e+02 -2.90507819e-03 -1.31641694e+07],1397,1418.9947249992154
622,622,[-2.46232185e+03  3.46384936e+02 -3.11069441e-03 -1.31641694e+07],299,1420.1009316333495
623,623,[-2.50678509e+03  3.46384904e+02 -3.37510756e-03 -1.31641694e+07],584,1417.5426530519615
624,624,[-2.56948975e+03  3.45384264e+02 -3.17162387e-03 -1.31641694e+07],145,1419.6135278155782
625,625,[-2.50740534e+03  3.46385004e+02 -3.28586102e-03 -1.31641694e+07],96,1419.2030569434273
626,626,[-2.76542732e+03  3.44382928e+02 -3.22125574e-03 -1.31641694e+07],159,1418.0351144835522
627,627,[-2.77962633e+03  3.44382721e+02 -3.15160637e-03 -1.31641694e+07],1234,1418.7074250221842
628,628,[-3.02026232e+03  3.44382733e+02 -4.29721018e-03 -1.31641694e+07],1294,1415.2067327798563
629,629,[-2.75214005e+03  3.44382706e+02 -3.21167640e-03 -1.31641694e+07],1285,1419.7272973211407
630,630,[-2.85389317e+03  3.44382758e+02 -3.40651394e-03 -1.31641694e+07],204,1418.6633187341251
631,631,[-2.69013456e+03  3.45383928e+02 -3.58615005e-03 -1.31641694e+07],255,1418.212831562477
632,632,[-3.55990112e+03  3.41379329e+02 -4.37206741e-03 -1.31641694e+07],474,1419.0996049123078
633,633,[-2.46746612e+03  3.46385015e+02 -3.20674362e-03 -1.31641694e+07],746,1418.8917083674553
634,634,[-2.49632502e+03  3.46385611e+02 -3.33268812e-03 -1.31641694e+07],180,1417.2173551807252
635,635,[-2.74894067e+03  3.44383181e+02 -3.20444205e-03 -1.31641694e+07],652,1419.6590138814186
636,636,[-2.88263787e+03  3.44382807e+02 -3.50168498e-03 -1.31641694e+07],467,1417.297737811031
637,637,[-2.70396814e+03  3.45384052e+02 -3.56650316e-03 -1.31641694e+07],39,1418.425567287651
638,638,[-3.18633356e+03  3.42380683e+02 -3.77431001e-03 -1.31641694e+07],354,1418.3856734848246
639,639,[-2.94347945e+03  3.44382813e+02 -3.70288593e-03 -1.31641694e+07],710,1418.6898649994196
640,640,[-3.04377523e+03  3.43381892e+02 -3.65190923e-03 -1.31641694e+07],1354,1419.2558775799725
641,641,[-3.25762782e+03  3.42380509e+02 -4.02928948e-03 -1.31641694e+07],154,1418.7544793444306
642,642,[-2.76035660e+03  3.45383801e+02 -3.54126124e-03 -1.31641694e+07],262,1417.984587257464
643,643,[-2.32771459e+03  3.46385091e+02 -2.68600158e-03 -1.31641694e+07],1286,1419.0653205015349
644,644,[-2.63464636e+03  3.45383924e+02 -3.18798287e-03 -1.31641694e+07],1040,1419.3109776875258
645,645,[-2.50516832e+03  3.46385385e+02 -3.32008587e-03 -1.31641694e+07],172,1417.9985609020584
646,646,[-2.71133272e+03  3.44383015e+02 -3.09193122e-03 -1.31641694e+07],723,1417.6470489169621
647,647,[-3.06612893e+03  3.43381657e+02 -3.79237108e-03 -1.31641694e+07],365,1419.3005509785771
648,648,[-2.53944285e+03  3.46384926e+02 -3.39200095e-03 -1.31641694e+07],126,1417.0589727815532
649,649,[-3.25148903e+03  3.42380595e+02 -3.87182653e-03 -1.31641694e+07],1317,1419.4211568099536
650,650,[-2.64623861e+03  3.45384021e+02 -3.07880080e-03 -1.31641694e+07],1103,1419.9599962312932
651,651,[-2.65103995e+03  3.45383941e+02 -3.38157248e-03 -1.31641694e+07],744,1420.145983632646
652,652,[-2.59323746e+03  3.45384120e+02 -2.96830489e-03 -1.31641694e+07],869,1419.2326822866444
653,653,[-2.51341680e+03  3.46385018e+02 -3.32544582e-03 -1.31641694e+07],625,1417.9039709183455
654,654,[-2.33285317e+03  3.46385420e+02 -2.64260564e-03 -1.31641694e+07],506,1418.4531035753478
655,655,[-2.66038553e+03  3.45384268e+02 -3.37843462e-03 -1.31641694e+07],152,1418.7920251761252
656,656,[-3.31805055e+03  3.43381566e+02 -4.61888163e-03 -1.31641694e+07],1369,1417.4322296877265
657,657,[-2.79369692e+03  3.44382688e+02 -3.31061654e-03 -1.31641694e+07],1275,1420.2469032115487
658,658,[-3.34641017e+03  3.42380696e+02 -4.01233982e-03 -1.31641694e+07],222,1419.799515261922
659,659,[-2.74037006e+03  3.45383782e+02 -3.75138411e-03 -1.31641694e+07],918,1415.9113506242873
660,660,[-2.80067850e+03  3.44382890e+02 -3.35212136e-03 -1.31641694e+07],1074,1419.8125268603878
661,661,[-2.81808206e+03  3.44382649e+02 -3.31980781e-03 -1.31641694e+07],485,1419.9570005178814
662,662,[-2.51108473e+03  3.46384928e+02 -3.34484751e-03 -1.31641694e+07],593,1418.6886862348006
663,663,[-2.79345386e+03  3.44382656e+02 -3.21451548e-03 -1.31641694e+07],249,1419.47867850924
664,664,[-2.76863407e+03  3.44383024e+02 -3.15585514e-03 -1.31641694e+07],1325,1418.2293963150273
665,665,[-2.50588398e+03  3.46384916e+02 -3.32315655e-03 -1.31641694e+07],1280,1416.9963090806557
666,666,[-2.63997411e+03  3.45383817e+02 -3.27521506e-03 -1.31641694e+07],431,1420.0434266808802
667,667,[-2.81233850e+03  3.44382792e+02 -3.23183704e-03 -1.31641694e+07],1414,1419.7404006550885
668,668,[-2.90619028e+03  3.44382658e+02 -3.67887558e-03 -1.31641694e+07],302,1419.3850067956043
669,669,[-2.61501257e+03  3.45383787e+02 -3.17669009e-03 -1.31641694e+07],1003,1419.958438039949
670,670,[-2.56799965e+03  3.45384042e+02 -2.98472574e-03 -1.31641694e+07],845,1419.4162885444034
671,671,[-2.86321696e+03  3.44382777e+02 -3.43660983e-03 -1.31641694e+07],127,1419.5619171630537
672,672,[-2.53015061e+03  3.46384888e+02 -3.40522563e-03 -1.31641694e+07],1068,1417.0139180152014
673,673,[-2.50409161e+03  3.45384094e+02 -2.83131896e-03 -1.31641694e+07],353,1415.8192359104303
674,674,[-2.81570780e+03  3.44382934e+02 -3.28147061e-03 -1.31641694e+07],763,1419.7570904735985
675,675,[-2.72738508e+03  3.45383995e+02 -3.71961049e-03 -1.31641694e+07],196,1417.516568865247
676,676,[-2.63506475e+03  3.45383811e+02 -3.20087251e-03 -1.31641694e+07],158,1420.152169526367
677,677,[-2.98068417e+03  3.43381622e+02 -3.55050310e-03 -1.31641694e+07],411,1418.9062153918744
678,678,[-2.47460736e+03  3.46385138e+02 -3.16921879e-03 -1.31641694e+07],258,1419.987221397791
679,679,[-3.37368938e+03  3.42380554e+02 -4.18544781e-03 -1.31641694e+07],87,1420.4278164404423
680,680,[-2.52856793e+03  3.45384532e+02 -2.94596114e-03 -1.31641694e+07],235,1418.7270872266422
681,681,[-2.50741567e+03  3.46384982e+02 -3.28675573e-03 -1.31641694e+07],885,1419.463601704154
682,682,[-2.68054587e+03  3.45384365e+02 -3.46119195e-03 -1.31641694e+07],1122,1419.48849568178
683,683,[-3.29801193e+03  3.42380446e+02 -3.90264219e-03 -1.31641694e+07],960,1419.3004115290507
684,684,[-2.45324406e+03  3.46384880e+02 -3.14315548e-03 -1.31641694e+07],897,1419.9547283145077
685,685,[-2.48633002e+03  3.46385472e+02 -3.30643901e-03 -1.31641694e+07],562,1418.077860690106
686,686,[-2.69885014e+03  3.44382855e+02 -3.03407444e-03 -1.31641694e+07],890,1416.3240243900386
687,687,[-2.51291554e+03  3.46385367e+02 -3.35908861e-03 -1.31641694e+07],121,1417.5122601113485
688,688,[-2.62349362e+03  3.45383856e+02 -3.25744607e-03 -1.31641694e+07],460,1419.8840108417041
689,689,[-3.06698101e+03  3.43381548e+02 -3.80969213e-03 -1.31641694e+07],860,1419.8578659816158
690,690,[-2.72284791e+03  3.45383988e+02 -3.62175566e-03 -1.31641694e+07],62,1418.627714201779
691,691,[-2.83201008e+03  3.44383042e+02 -3.43964747e-03 -1.31641694e+07],195,1419.4851028711894
692,692,[-2.80268055e+03  3.44382849e+02 -3.32853927e-03 -1.31641694e+07],191,1420.0146721362646
693,693,[-2.52481961e+03  3.46385659e+02 -3.33494567e-03 -1.31641694e+07],271,1417.6345142823754
694,694,[-2.80936629e+03  3.44382995e+02 -3.30382508e-03 -1.31641694e+07],136,1419.6208002087794
695,695,[-3.30546891e+03  3.42380966e+02 -3.90969194e-03 -1.31641694e+07],828,1419.2900973868307
696,696,[-2.48888632e+03  3.46385233e+02 -3.27565452e-03 -1.31641694e+07],134,1416.7995752703325
697,697,[-2.78895818e+03  3.44382759e+02 -3.26323871e-03 -1.31641694e+07],1358,1419.6240247469148
698,698,[-2.79281384e+03  3.44382779e+02 -3.24700981e-03 -1.31641694e+07],959,1419.3868213242365
699,699,[-2.53128979e+03  3.46384919e+02 -3.45062039e-03 -1.31641694e+07],551,1415.2330763807088
700,700,[-2.94005024e+03  3.43381726e+02 -3.44005194e-03 -1.31641694e+07],956,1417.6247649246036
701,701,[-2.62434689e+03  3.45383933e+02 -3.27093967e-03 -1.31641694e+07],851,1419.953532996938
702,702,[-2.48279309e+03  3.46385367e+02 -3.25559026e-03 -1.31641694e+07],898,1417.47038932832
703,703,[-2.95424459e+03  3.43381627e+02 -3.46633587e-03 -1.31641694e+07],922,1416.9583797706175
704,704,[-2.75864833e+03  3.44382897e+02 -3.36525743e-03 -1.31641694e+07],1412,1417.9578086386107
705,705,[-2.49100786e+03  3.46384907e+02 -3.23754249e-03 -1.31641694e+07],1251,1419.4620297501576
706,706,[-3.31933390e+03  3.42380639e+02 -3.89868387e-03 -1.31641694e+07],402,1418.7127383670675
707,707,[-2.99265932e+03  3.43381578e+02 -3.42752187e-03 -1.31641694e+07],1365,1416.8661939533076
708,708,[-2.69024804e+03  3.45384073e+02 -3.45307275e-03 -1.31641694e+07],1170,1418.3888727291505
709,709,[-2.97566830e+03  3.43381604e+02 -3.40675713e-03 -1.31641694e+07],1128,1418.197677752104
710,710,[-2.66419179e+03  3.45383800e+02 -3.41824185e-03 -1.31641694e+07],93,1419.2228423548186
711,711,[-2.96614704e+03  3.43381692e+02 -3.43361418e-03 -1.31641694e+07],769,1418.0366841680527
712,712,[-2.85933287e+03  3.44382691e+02 -3.48931572e-03 -1.31641694e+07],1118,1419.3494538428815
713,713,[-2.67486535e+03  3.45383783e+02 -3.48347899e-03 -1.31641694e+07],1360,1419.4354892149397
714,714,[-2.81149189e+03  3.44382908e+02 -3.42361295e-03 -1.31641694e+07],1272,1420.1392576062299
715,715,[-2.70299883e+03  3.45384080e+02 -3.72627501e-03 -1.31641694e+07],797,1418.3338627051223
716,716,[-2.69359487e+03  3.45383838e+02 -3.56314500e-03 -1.31641694e+07],1248,1418.371841751306
717,717,[-3.30793605e+03  3.42380667e+02 -4.31111428e-03 -1.31641694e+07],632,1420.0231800200352
718,718,[-2.45217705e+03  3.46385536e+02 -3.09843067e-03 -1.31641694e+07],1227,1419.5513903419783
719,719,[-2.62997813e+03  3.45383911e+02 -3.20990557e-03 -1.31641694e+07],1014,1420.3324576132848
720,720,[-2.59321915e+03  3.45384245e+02 -3.02899596e-03 -1.31641694e+07],858,1420.0748913848315
721,721,[-2.73440935e+03  3.45383863e+02 -3.54633104e-03 -1.31641694e+07],571,1418.5026070481247
722,722,[-2.80413825e+03  3.44382691e+02 -3.31002547e-03 -1.31641694e+07],1270,1418.5869119544325
723,723,[-3.33611159e+03  3.42380437e+02 -3.97972556e-03 -1.31641694e+07],1346,1419.213968951847
724,724,[-2.46414166e+03  3.46385001e+02 -3.15620782e-03 -1.31641694e+07],1357,1419.5846260821065
725,725,[-2.67815816e+03  3.45384038e+02 -3.45606401e-03 -1.31641694e+07],848,1419.9688541165706
726,726,[-3.13105499e+03  3.43381540e+02 -3.72919833e-03 -1.31641694e+07],1012,1420.0750141732415
727,727,[-2.46742426e+03  3.46385013e+02 -3.17600308e-03 -1.31641694e+07],34,1419.636295424388
728,728,[-3.14923673e+03  3.43381773e+02 -3.68145280e-03 -1.31641694e+07],496,1420.1726943338156
729,729,[-2.61489309e+03  3.45384162e+02 -3.20676842e-03 -1.31641694e+07],765,1420.0143313256674
730,730,[-2.49073900e+03  3.46385373e+02 -3.35768806e-03 -1.31641694e+07],440,1418.4821675074077
731,731,[-2.44026209e+03  3.46385349e+02 -3.15126707e-03 -1.31641694e+07],452,1419.3147371281627
732,732,[-3.38809843e+03  3.42380478e+02 -4.23668125e-03 -1.31641694e+07],193,1420.2993137806718
733,733,[-2.59483092e+03  3.45383943e+02 -3.04409597e-03 -1.31641694e+07],921,1420.0823270639048
734,734,[-2.51249876e+03  3.46384916e+02 -3.29961196e-03 -1.31641694e+07],488,1418.1114192732175
735,735,[-2.68817328e+03  3.45383771e+02 -3.49455665e-03 -1.31641694e+07],643,1419.3696997414531
736,736,[-3.41552997e+03  3.42380640e+02 -4.19294796e-03 -1.31641694e+07],1377,1419.6612939550953
737,737,[-2.87339744e+03  3.44383304e+02 -3.44004389e-03 -1.31641694e+07],594,1419.5235371409346
738,738,[-2.72590296e+03  3.45384247e+02 -3.59850979e-03 -1.31641694e+07],1295,1418.708711374169
739,739,[-2.79988287e+03  3.44382714e+02 -3.29816231e-03 -1.31641694e+07],109,1419.629260091066
740,740,[-2.87925728e+03  3.44382766e+02 -3.45662543e-03 -1.31641694e+07],533,1419.489471327565
741,741,[-2.45652933e+03  3.46384899e+02 -3.10386550e-03 -1.31641694e+07],1173,1419.892638509692
742,742,[-2.45604609e+03  3.46385336e+02 -3.19288967e-03 -1.31641694e+07],523,1418.6570750057726
743,743,[-2.77156396e+03  3.44382705e+02 -3.19672568e-03 -1.31641694e+07],880,1419.553296648865
744,744,[-2.48118450e+03  3.46385306e+02 -3.19176586e-03 -1.31641694e+07],970,1419.203958803569
745,745,[-2.80561496e+03  3.44382895e+02 -3.28684634e-03 -1.31641694e+07],1073,1419.7963829300575
746,746,[-2.49398971e+03  3.46384893e+02 -3.25649078e-03 -1.31641694e+07],248,1419.2365552093047
747,747,[-2.64763261e+03  3.45383913e+02 -3.33938197e-03 -1.31641694e+07],1053,1419.4177220623287
748,748,[-2.33125365e+03  3.46385042e+02 -2.62118687e-03 -1.31641694e+07],1264,1417.79251325694
749,749,[-2.49734026e+03  3.46385052e+02 -3.24254558e-03 -1.31641694e+07],297,1418.5735401466995
750,750,[-2.74552385e+03  3.45383834e+02 -3.71569528e-03 -1.31641694e+07],11,1416.1747899458458
751,751,[-3.25501009e+03  3.42380510e+02 -3.92920772e-03 -1.31641694e+07],194,1418.7585641536518
752,752,[-2.49982885e+03  3.46385271e+02 -3.36124361e-03 -1.31641694e+07],1129,1417.8200215051245
753,753,[-2.71524346e+03  3.45384045e+02 -3.57347610e-03 -1.31641694e+07],1351,1417.879987259411
754,754,[-3.26592201e+03  3.42380454e+02 -3.88215153e-03 -1.31641694e+07],406,1418.6562789983323
755,755,[-2.47291389e+03  3.46384993e+02 -3.21628113e-03 -1.31641694e+07],236,1416.9209789585323
756,756,[-2.64474640e+03  3.45383822e+02 -3.26772338e-03 -1.31641694e+07],393,1418.8451855858598
757,757,[-2.87541863e+03  3.44382941e+02 -3.51256875e-03 -1.31641694e+07],1307,1419.4266812613819
758,758,[-2.69149283e+03  3.45384433e+02 -3.50064549e-03 -1.31641694e+07],1416,1418.3429613015146
759,759,[-2.96838502e+03  3.43381925e+02 -3.54850535e-03 -1.31641694e+07],1326,1416.7487940943925
760,760,[-2.70659631e+03  3.45384022e+02 -3.57568424e-03 -1.31641694e+07],1176,1417.6813774310585
761,761,[-2.02478048e+03  3.48387543e+02 -2.45450246e-03 -1.31641694e+07],771,1416.5068767470152
762,762,[-2.68030699e+03  3.45383800e+02 -3.57797545e-03 -1.31641694e+07],909,1417.699984119208
763,763,[-2.60460580e+03  3.45383884e+02 -3.18331717e-03 -1.31641694e+07],267,1419.1644258922709
764,764,[-2.72067126e+03  3.44383228e+02 -3.10113587e-03 -1.31641694e+07],621,1417.940894953131
765,765,[-2.80249867e+03  3.44383382e+02 -3.45410226e-03 -1.31641694e+07],1133,1419.0809461390306
766,766,[-2.52337022e+03  3.46385169e+02 -3.38823541e-03 -1.31641694e+07],28,1416.3709150027476
767,767,[-2.16174686e+03  3.47386182e+02 -2.50874835e-03 -1.31641694e+07],213,1418.6049874335338
768,768,[-2.80730407e+03  3.44383014e+02 -3.40121005e-03 -1.31641694e+07],967,1419.8922584218233
769,769,[-2.70145889e+03  3.45383845e+02 -3.52241137e-03 -1.31641694e+07],266,1419.1043643550756
770,770,[-2.66570101e+03  3.45383857e+02 -3.44981567e-03 -1.31641694e+07],1032,1419.4745815910444
771,771,[-3.28540241e+03  3.42380634e+02 -3.90486697e-03 -1.31641694e+07],1422,1419.003394100499
772,772,[-2.64328036e+03  3.45384022e+02 -3.37837414e-03 -1.31641694e+07],228,1420.0704666735355
773,773,[-2.48461482e+03  3.46385162e+02 -3.23550930e-03 -1.31641694e+07],1189,1419.5079993324744
774,774,[-2.67477394e+03  3.45384092e+02 -3.45536435e-03 -1.31641694e+07],64,1419.4077427394132
775,775,[-2.85427990e+03  3.44383014e+02 -3.49821175e-03 -1.31641694e+07],1079,1420.391636958157
776,776,[-2.64892174e+03  3.45383889e+02 -3.29243563e-03 -1.31641694e+07],9,1419.6431027194938
777,777,[-2.10703140e+03  3.48388061e+02 -2.79926387e-03 -1.31641694e+07],429,1417.94398212694
778,778,[-2.58802029e+03  3.45384015e+02 -3.03067226e-03 -1.31641694e+07],877,1420.2299482679996
779,779,[-3.34832974e+03  3.42380476e+02 -3.99073153e-03 -1.31641694e+07],290,1419.5834583947603
780,780,[-2.50049611e+03  3.46384991e+02 -3.29243598e-03 -1.31641694e+07],1113,1419.569761445597
781,781,[-2.62135710e+03  3.45383846e+02 -3.13153551e-03 -1.31641694e+07],570,1420.3697856962137
782,782,[-2.57655616e+03  3.45383763e+02 -2.95445605e-03 -1.31641694e+07],1045,1419.3637463735668
783,783,[-2.72724534e+03  3.45383958e+02 -3.67671095e-03 -1.31641694e+07],169,1416.7476190221844
784,784,[-2.62037660e+03  3.45383782e+02 -3.13886126e-03 -1.31641694e+07],1260,1420.1322069656733
785,785,[-3.47220347e+03  3.42380695e+02 -4.07896456e-03 -1.31641694e+07],1395,1418.8447063727688
786,786,[-2.73767961e+03  3.45383876e+02 -3.64790103e-03 -1.31641694e+07],931,1417.1401799938435
787,787,[-2.78885648e+03  3.44382787e+02 -3.22438708e-03 -1.31641694e+07],1238,1419.6731963950951
788,788,[-2.34997941e+03  3.46385626e+02 -2.78571117e-03 -1.31641694e+07],1288,1418.162264536091
789,789,[-2.74606247e+03  3.45384075e+02 -3.67649461e-03 -1.31641694e+07],447,1417.272919206086
790,790,[-2.63204067e+03  3.45384116e+02 -3.22221325e-03 -1.31641694e+07],1159,1420.185400000145
791,791,[-2.58994455e+03  3.45384363e+02 -2.99063656e-03 -1.31641694e+07],1291,1419.7653186079049
792,792,[-2.51930876e+03  3.46384978e+02 -3.34473081e-03 -1.31641694e+07],57,1416.7699807493589
793,793,[-2.63028859e+03  3.45384194e+02 -3.20952792e-03 -1.31641694e+07],1184,1420.182889843165
794,794,[-2.73232493e+03  3.44382702e+02 -3.09820209e-03 -1.31641694e+07],1277,1417.398199567687
795,795,[-2.49844927e+03  3.46385153e+02 -3.31233791e-03 -1.31641694e+07],317,1419.3031118861238
796,796,[-3.32515100e+03  3.42381012e+02 -4.02500736e-03 -1.31641694e+07],275,1418.6666410989112
797,797,[-3.29884468e+03  3.42380723e+02 -3.84635852e-03 -1.31641694e+07],511,1419.101133103972
798,798,[-2.67115456e+03  3.45384095e+02 -3.34792436e-03 -1.31641694e+07],579,1419.2995978394829
799,799,[-2.97671474e+03  3.44383038e+02 -4.11786833e-03 -1.31641694e+07],257,1418.024472848414
800,800,[-3.45259649e+03  3.42380521e+02 -4.08737943e-03 -1.31641694e+07],990,1420.1108790696358
801,801,[-3.77838758e+03  3.41379610e+02 -4.66015572e-03 -1.31641694e+07],56,1419.3885505815695
802,802,[-2.72146888e+03  3.45383876e+02 -3.57274909e-03 -1.31641694e+07],677,1418.5015088180496
803,803,[-2.80791589e+03  3.44382939e+02 -3.27956194e-03 -1.31641694e+07],1067,1419.8154785224824
804,804,[-2.85955555e+03  3.44383085e+02 -3.48847735e-03 -1.31641694e+07],1026,1420.025968393289
805,805,[-2.65699478e+03  3.45383962e+02 -3.36828679e-03 -1.31641694e+07],616,1419.5532897611176
806,806,[-2.75827355e+03  3.44382883e+02 -3.16023712e-03 -1.31641694e+07],633,1419.51694530063
807,807,[-2.64016971e+03  3.45383855e+02 -3.30516047e-03 -1.31641694e+07],596,1420.208644567465
808,808,[-2.66959067e+03  3.45384081e+02 -3.42319805e-03 -1.31641694e+07],167,1419.6369966514933
809,809,[-2.50590892e+03  3.45383899e+02 -2.79154788e-03 -1.31641694e+07],69,1415.863623732479
810,810,[-2.48124567e+03  3.46385587e+02 -3.23581995e-03 -1.31641694e+07],1322,1419.3202903790548
811,811,[-2.80690214e+03  3.44382788e+02 -3.30361249e-03 -1.31641694e+07],1343,1420.0426059952513
812,812,[-2.59861435e+03  3.45384039e+02 -3.22219733e-03 -1.31641694e+07],1300,1420.2467148420405
813,813,[-2.68537145e+03  3.45384605e+02 -3.42240559e-03 -1.31641694e+07],331,1420.0112299362042
814,814,[-2.58800375e+03  3.45383774e+02 -3.00910853e-03 -1.31641694e+07],590,1419.765077734566
815,815,[-3.45998730e+03  3.42380464e+02 -4.15977123e-03 -1.31641694e+07],1201,1419.818115948183
816,816,[-2.72435579e+03  3.45383774e+02 -3.64325444e-03 -1.31641694e+07],475,1416.367241576129
817,817,[-2.97655819e+03  3.43381540e+02 -3.46824277e-03 -1.31641694e+07],1292,1418.1095353558433
818,818,[-2.48844736e+03  3.46384904e+02 -3.22366044e-03 -1.31641694e+07],907,1418.170094474398
819,819,[-2.62168175e+03  3.45383852e+02 -3.15450967e-03 -1.31641694e+07],916,1420.446183851946
820,820,[-2.58752661e+03  3.45384069e+02 -3.01384011e-03 -1.31641694e+07],170,1419.470196064306
821,821,[-2.65211947e+03  3.45384068e+02 -3.34088486e-03 -1.31641694e+07],553,1420.0465889808609
822,822,[-2.98938448e+03  3.43381659e+02 -3.53331682e-03 -1.31641694e+07],1284,1418.2067817669983
823,823,[-2.42687710e+03  3.46385059e+02 -3.08070767e-03 -1.31641694e+07],185,1420.195143563025
824,824,[-2.45754241e+03  3.46384903e+02 -3.12866687e-03 -1.31641694e+07],155,1419.8942939302449
825,825,[-2.61052356e+03  3.45384008e+02 -3.16089012e-03 -1.31641694e+07],413,1420.3445197185133
826,826,[-2.85038935e+03  3.44382899e+02 -3.55086805e-03 -1.31641694e+07],756,1420.3659201162643
827,827,[-2.50481434e+03  3.46385157e+02 -3.32475593e-03 -1.31641694e+07],785,1419.3554322594543
828,828,[-2.58589848e+03  3.45383986e+02 -3.02336992e-03 -1.31641694e+07],382,1419.1259622515854
829,829,[-3.12623007e+03  3.43381790e+02 -3.70141651e-03 -1.31641694e+07],1405,1420.1014457470476
830,830,[-2.68450424e+03  3.45383871e+02 -3.40608660e-03 -1.31641694e+07],234,1419.6741617040743
831,831,[-2.64706633e+03  3.45384082e+02 -3.32596972e-03 -1.31641694e+07],97,1420.4072730161229
832,832,[-3.35242882e+03  3.42380737e+02 -4.02260691e-03 -1.31641694e+07],1271,1419.6239249912999
833,833,[-3.08552828e+03  3.43381721e+02 -3.72727680e-03 -1.31641694e+07],473,1419.5554642481782
834,834,[-2.67657525e+03  3.45384124e+02 -3.39323587e-03 -1.31641694e+07],190,1419.7239714132659
835,835,[-2.46426557e+03  3.46385045e+02 -3.17901435e-03 -1.31641694e+07],1206,1420.1104261474509
836,836,[-2.77438288e+03  3.44382717e+02 -3.13582564e-03 -1.31641694e+07],231,1417.8283564191545
837,837,[-2.46284888e+03  3.46385179e+02 -3.18545211e-03 -1.31641694e+07],1266,1419.5883531210989
838,838,[-2.58055313e+03  3.45384235e+02 -2.99339498e-03 -1.31641694e+07],497,1418.6046384641422
839,839,[-2.16436206e+03  3.47386391e+02 -2.47559266e-03 -1.31641694e+07],504,1418.0035646658844
840,840,[-2.67098608e+03  3.45383845e+02 -3.46418803e-03 -1.31641694e+07],1050,1419.7656930382773
841,841,[-2.53689157e+03  3.45383996e+02 -2.95679909e-03 -1.31641694e+07],124,1418.3268814249302
842,842,[-3.34675000e+03  3.42380830e+02 -3.97618592e-03 -1.31641694e+07],655,1419.591150065903
843,843,[-2.89375993e+03  3.44382821e+02 -3.70158216e-03 -1.31641694e+07],433,1419.9504779500755
844,844,[-3.34912207e+03  3.42380511e+02 -3.98585499e-03 -1.31641694e+07],357,1418.3251014401958
845,845,[-2.59430312e+03  3.45384028e+02 -3.00969976e-03 -1.31641694e+07],1230,1419.178431627087
846,846,[-3.34621662e+03  3.42380894e+02 -3.99781670e-03 -1.31641694e+07],1415,1418.5804909299459
847,847,[-2.46310531e+03  3.46384891e+02 -3.09531064e-03 -1.31641694e+07],505,1419.5110887468177
848,848,[-3.28411574e+03  3.42380508e+02 -3.91560687e-03 -1.31641694e+07],1320,1419.085623214372
849,849,[-2.59682751e+03  3.45383890e+02 -3.01946171e-03 -1.31641694e+07],483,1419.3206551051485
850,850,[-2.86918376e+03  3.44382777e+02 -3.65175968e-03 -1.31641694e+07],480,1419.5865986954097
851,851,[-2.52781188e+03  3.45384418e+02 -2.90747023e-03 -1.31641694e+07],1401,1419.1155376160345
852,852,[-2.64359252e+03  3.45383929e+02 -3.32268095e-03 -1.31641694e+07],605,1420.1889398061933
853,853,[-2.68569833e+03  3.45383930e+02 -3.48053460e-03 -1.31641694e+07],1116,1419.7882187826765
854,854,[-3.75838898e+03  3.41379368e+02 -4.68082291e-03 -1.31641694e+07],309,1419.840059454999
855,855,[-2.47647769e+03  3.46384879e+02 -3.21619558e-03 -1.31641694e+07],1338,1419.4197700552518
856,856,[-2.85423306e+03  3.44382883e+02 -3.57467138e-03 -1.31641694e+07],1125,1420.2575554680745
857,857,[-2.98533045e+03  3.43381583e+02 -3.54018645e-03 -1.31641694e+07],422,1418.6061955188773
858,858,[-2.50039334e+03  3.46384979e+02 -3.26082138e-03 -1.31641694e+07],751,1419.0951017247576
859,859,[-3.13321176e+03  3.43381550e+02 -3.67729663e-03 -1.31641694e+07],641,1419.8664039917537
860,860,[-2.62859120e+03  3.45383785e+02 -3.11890912e-03 -1.31641694e+07],933,1419.141922103546
861,861,[-2.87604580e+03  3.44382722e+02 -3.62285371e-03 -1.31641694e+07],1418,1420.024443646688
862,862,[-2.62308801e+03  3.45383848e+02 -3.13861017e-03 -1.31641694e+07],1222,1420.3364442383856
863,863,[-3.12381319e+03  3.43381537e+02 -3.71000689e-03 -1.31641694e+07],3,1420.099387901086
864,864,[-2.89606113e+03  3.44383151e+02 -3.63513546e-03 -1.31641694e+07],1083,1420.1477161068594
865,865,[-2.88603052e+03  3.44383196e+02 -3.57226757e-03 -1.31641694e+07],680,1420.1381303707185
866,866,[-2.58476137e+03  3.45384368e+02 -3.00567716e-03 -1.31641694e+07],253,1419.381552472795
867,867,[-2.72711200e+03  3.45383946e+02 -3.65965774e-03 -1.31641694e+07],342,1417.89649761317
868,868,[-3.42024152e+03  3.42380462e+02 -4.19422184e-03 -1.31641694e+07],1293,1419.6560013724836
869,869,[-2.63370913e+03  3.45383819e+02 -3.21732532e-03 -1.31641694e+07],351,1419.2032368198527
870,870,[-2.73680836e+03  3.45384230e+02 -3.67738678e-03 -1.31641694e+07],403,1417.3503660983795
871,871,[-3.11832319e+03  3.43381557e+02 -3.70499959e-03 -1.31641694e+07],207,1420.2753956269548
872,872,[-2.64743041e+03  3.45383785e+02 -3.33888533e-03 -1.31641694e+07],892,1420.232202326815
873,873,[-2.68271729e+03  3.45384011e+02 -3.46513381e-03 -1.31641694e+07],242,1419.8710133819868
874,874,[-2.50590500e+03  3.46384925e+02 -3.39912651e-03 -1.31641694e+07],706,1417.1692720763738
875,875,[-2.64566533e+03  3.45383894e+02 -3.28677015e-03 -1.31641694e+07],115,1420.3785940735145
876,876,[-2.61680132e+03  3.45383882e+02 -3.22154083e-03 -1.31641694e+07],1214,1420.2680218407418
877,877,[-2.67262920e+03  3.45384289e+02 -3.62238048e-03 -1.31641694e+07],1218,1418.9709600567994
878,878,[-2.66401798e+03  3.45384241e+02 -3.50117136e-03 -1.31641694e+07],738,1419.8557086869043
879,879,[-2.46040188e+03  3.46385374e+02 -3.21170395e-03 -1.31641694e+07],627,1418.6570128849742
880,880,[-2.68785518e+03  3.45383878e+02 -3.68418202e-03 -1.31641694e+07],1302,1419.0428043989516
881,881,[-3.37434464e+03  3.42380855e+02 -4.03593633e-03 -1.31641694e+07],113,1419.7161157511603
882,882,[-2.86994603e+03  3.44382914e+02 -3.48792833e-03 -1.31641694e+07],1101,1419.760685358959
883,883,[-2.72448120e+03  3.45383779e+02 -3.61058192e-03 -1.31641694e+07],1279,1418.641360529072
884,884,[-2.63962927e+03  3.45383846e+02 -3.32521586e-03 -1.31641694e+07],279,1420.3474577427094
885,885,[-2.78247262e+03  3.44382840e+02 -3.17268050e-03 -1.31641694e+07],996,1419.1559815915864
886,886,[-2.69935272e+03  3.45383901e+02 -3.48999947e-03 -1.31641694e+07],639,1420.0553750719462
887,887,[-2.75890741e+03  3.44382716e+02 -3.17530234e-03 -1.31641694e+07],1011,1418.4339586416525
888,888,[-2.86668129e+03  3.44382696e+02 -3.46630994e-03 -1.31641694e+07],662,1419.9642470772058
889,889,[-2.66638348e+03  3.45383825e+02 -3.38685361e-03 -1.31641694e+07],1197,1419.918486887431
890,890,[-3.03414747e+03  3.43381755e+02 -3.55714401e-03 -1.31641694e+07],955,1419.147902534162
891,891,[-2.60703321e+03  3.45383932e+02 -3.03266168e-03 -1.31641694e+07],75,1419.3150171419109
892,892,[-2.73048303e+03  3.45384273e+02 -3.63418230e-03 -1.31641694e+07],1355,1418.7132448907212
893,893,[-3.30320809e+03  3.42380509e+02 -3.88514089e-03 -1.31641694e+07],273,1418.6089240648666
894,894,[-2.83050257e+03  3.44382688e+02 -3.35044088e-03 -1.31641694e+07],390,1419.9624840974723
895,895,[-2.70849755e+03  3.45384184e+02 -3.55430992e-03 -1.31641694e+07],1047,1419.279030720458
896,896,[-2.58985560e+03  3.45383991e+02 -3.02818503e-03 -1.31641694e+07],102,1420.2082331427675
897,897,[-3.33253978e+03  3.42380431e+02 -3.92741988e-03 -1.31641694e+07],796,1419.1528688171009
898,898,[-2.49900239e+03  3.46384903e+02 -3.30159062e-03 -1.31641694e+07],72,1419.1153615949343
899,899,[-2.58424834e+03  3.45383896e+02 -3.02193112e-03 -1.31641694e+07],630,1419.4074573875914
900,900,[-2.59413530e+03  3.45384173e+02 -3.00267363e-03 -1.31641694e+07],904,1419.6472502653862
901,901,[-2.09097321e+03  3.48387207e+02 -2.73198492e-03 -1.31641694e+07],1421,1419.5724930047395
902,902,[-2.83221535e+03  3.44382910e+02 -3.45183431e-03 -1.31641694e+07],151,1420.3949541399486
903,903,[-3.33005028e+03  3.42380453e+02 -4.03430730e-03 -1.31641694e+07],183,1419.8989779035794
904,904,[-2.09577870e+03  3.48387897e+02 -2.77421595e-03 -1.31641694e+07],742,1418.6628940733845
905,905,[-2.47890931e+03  3.46384993e+02 -3.29616476e-03 -1.31641694e+07],879,1418.278167273967
906,906,[-2.97720067e+03  3.43381548e+02 -3.56358063e-03 -1.31641694e+07],754,1418.483929952964
907,907,[-2.09327793e+03  3.48387372e+02 -2.73628328e-03 -1.31641694e+07],1136,1418.8587762660218
908,908,[-2.58601287e+03  3.45384270e+02 -3.03862578e-03 -1.31641694e+07],1241,1419.48874703686
909,909,[-3.32112298e+03  3.42380446e+02 -3.92921120e-03 -1.31641694e+07],1049,1419.0016977898476
910,910,[-2.71212806e+03  3.45383878e+02 -3.62630918e-03 -1.31641694e+07],1235,1418.0705425331373
911,911,[-3.02683295e+03  3.43381906e+02 -3.63738836e-03 -1.31641694e+07],883,1419.4072202894854
912,912,[-2.17968855e+03  3.47386442e+02 -2.59008075e-03 -1.31641694e+07],148,1417.8683525231663
913,913,[-2.71094220e+03  3.45383887e+02 -3.64526202e-03 -1.31641694e+07],1362,1416.8019694771183
914,914,[-2.57997399e+03  3.45383817e+02 -3.03861786e-03 -1.31641694e+07],576,1420.1364347551187
915,915,[-2.85676012e+03  3.44382764e+02 -3.45179403e-03 -1.31641694e+07],418,1420.051372772146
916,916,[-2.67994960e+03  3.45383856e+02 -3.48278761e-03 -1.31641694e+07],83,1418.854754942713
917,917,[-2.03353036e+03  3.48387235e+02 -2.44911784e-03 -1.31641694e+07],1406,1416.7359859249052
918,918,[-2.64588621e+03  3.45383857e+02 -3.30459531e-03 -1.31641694e+07],690,1419.1980632001842
919,919,[-2.86520077e+03  3.44383480e+02 -3.57093011e-03 -1.31641694e+07],1180,1419.504428634325
920,920,[-1.91875530e+03  3.49388772e+02 -2.52412276e-03 -1.31641694e+07],1162,1417.3232515252535
921,921,[-2.45877120e+03  3.46385028e+02 -3.10690595e-03 -1.31641694e+07],1096,1419.0717889856037
922,922,[-3.28501010e+03  3.42380594e+02 -3.86962441e-03 -1.31641694e+07],1217,1419.1124742618026
923,923,[-2.45958813e+03  3.46385067e+02 -3.10387021e-03 -1.31641694e+07],893,1419.498244890713
924,924,[-2.64659896e+03  3.45383968e+02 -3.37806883e-03 -1.31641694e+07],857,1420.1378774664986
925,925,[-2.57272376e+03  3.45383904e+02 -3.08132355e-03 -1.31641694e+07],767,1419.9845780238556
926,926,[-2.73311560e+03  3.45383773e+02 -3.64230113e-03 -1.31641694e+07],838,1418.2874462061682
927,927,[-2.63688432e+03  3.45383785e+02 -3.24730569e-03 -1.31641694e+07],1382,1420.0233469147904
928,928,[-2.80841845e+03  3.44382986e+02 -3.39652643e-03 -1.31641694e+07],387,1419.5454402816158
929,929,[-2.46933292e+03  3.46385860e+02 -3.22700569e-03 -1.31641694e+07],1090,1418.450994990637
930,930,[-2.58524661e+03  3.45383863e+02 -3.04374658e-03 -1.31641694e+07],187,1420.0228507795753
931,931,[-2.79305186e+03  3.44382708e+02 -3.37260270e-03 -1.31641694e+07],722,1418.947511273893
932,932,[-2.71331753e+03  3.45383853e+02 -3.61849667e-03 -1.31641694e+07],1347,1418.1015025250354
933,933,[-3.29298664e+03  3.42380948e+02 -4.15970368e-03 -1.31641694e+07],202,1418.7438347348068
934,934,[-2.83405863e+03  3.44382871e+02 -3.58009499e-03 -1.31641694e+07],1220,1419.2941273822855
935,935,[-2.67840105e+03  3.45384010e+02 -3.51178718e-03 -1.31641694e+07],1388,1418.0237033660621
936,936,[-3.05668521e+03  3.43381670e+02 -3.65759494e-03 -1.31641694e+07],1243,1419.8294077182804
937,937,[-2.64454250e+03  3.45384056e+02 -3.42915609e-03 -1.31641694e+07],846,1419.7942945665184
938,938,[-2.49420280e+03  3.46385080e+02 -3.21099339e-03 -1.31641694e+07],22,1418.0864462885002
939,939,[-2.65444854e+03  3.45384634e+02 -3.34716583e-03 -1.31641694e+07],78,1420.0982201162108
940,940,[-2.63777584e+03  3.45384112e+02 -3.23390534e-03 -1.31641694e+07],31,1419.8448281592307
941,941,[-2.60249455e+03  3.45383784e+02 -3.07850114e-03 -1.31641694e+07],749,1419.7072671273957
942,942,[-2.71853122e+03  3.45384144e+02 -3.65560097e-03 -1.31641694e+07],98,1418.4286547807405
943,943,[-2.85804101e+03  3.44382656e+02 -3.44391331e-03 -1.31641694e+07],595,1419.7237632338424
944,944,[-2.63000111e+03  3.45383845e+02 -3.25967922e-03 -1.31641694e+07],1205,1419.7045788553887
945,945,[-2.64702448e+03  3.45383994e+02 -3.19595497e-03 -1.31641694e+07],470,1419.588150301007
946,946,[-2.85361942e+03  3.44382676e+02 -3.48991478e-03 -1.31641694e+07],1237,1420.3113791516475
947,947,[-2.90542152e+03  3.44382776e+02 -3.41739293e-03 -1.31641694e+07],1420,1420.025211460293
948,948,[-2.64941565e+03  3.45383957e+02 -3.34241221e-03 -1.31641694e+07],1380,1420.1123903623363
949,949,[-2.67333650e+03  3.45383766e+02 -3.41596054e-03 -1.31641694e+07],1193,1420.239162874814
950,950,[-2.58860752e+03  3.45384087e+02 -3.01035586e-03 -1.31641694e+07],7,1419.9070904383145
951,951,[-2.59738227e+03  3.45383816e+02 -3.03874114e-03 -1.31641694e+07],1396,1419.805307437804
952,952,[-2.69644153e+03  3.45383977e+02 -3.51164541e-03 -1.31641694e+07],1289,1419.8850956573615
953,953,[-3.33184888e+03  3.42380529e+02 -4.01271739e-03 -1.31641694e+07],1213,1419.5897766270614
954,954,[-2.63861035e+03  3.45383903e+02 -3.29347460e-03 -1.31641694e+07],1278,1420.1266811313226
955,955,[-2.68954192e+03  3.45383848e+02 -3.56260007e-03 -1.31641694e+07],410,1418.6858019527856
956,956,[-2.08649462e+03  3.48387671e+02 -2.69275016e-03 -1.31641694e+07],15,1419.1157571519573
957,957,[-2.98768644e+03  3.43381594e+02 -3.49561491e-03 -1.31641694e+07],1296,1418.3461591903827
958,958,[-2.90177870e+03  3.44382834e+02 -3.61603539e-03 -1.31641694e+07],314,1419.9336466644272
959,959,[-2.47961096e+03  3.46384902e+02 -3.26914865e-03 -1.31641694e+07],556,1419.1216597147572
960,960,[-2.57276803e+03  3.45383789e+02 -2.95325305e-03 -1.31641694e+07],1181,1419.1545045242176
961,961,[-2.87607816e+03  3.44382718e+02 -3.46089621e-03 -1.31641694e+07],1263,1419.887583906647
962,962,[-2.47720524e+03  3.46385497e+02 -3.22806142e-03 -1.31641694e+07],1409,1419.6464907008324
963,963,[-3.12051462e+03  3.43381752e+02 -3.70937935e-03 -1.31641694e+07],1316,1419.703305181892
964,964,[-2.84586144e+03  3.44383068e+02 -3.41435935e-03 -1.31641694e+07],1185,1419.825195560034
965,965,[-2.10361519e+03  3.48387148e+02 -2.79870778e-03 -1.31641694e+07],1340,1417.6432824442234
966,966,[-2.63163859e+03  3.45384024e+02 -3.10342826e-03 -1.31641694e+07],721,1420.2462652038841
967,967,[-2.87591340e+03  3.44382776e+02 -3.57134428e-03 -1.31641694e+07],802,1418.9909161395642
968,968,[-2.09199835e+03  3.48387154e+02 -2.72287575e-03 -1.31641694e+07],608,1419.7856997359286
969,969,[-2.63360787e+03  3.45383873e+02 -3.24313347e-03 -1.31641694e+07],378,1419.7931494886177
970,970,[-2.60002746e+03  3.45384235e+02 -2.98141367e-03 -1.31641694e+07],1371,1419.0410631003112
971,971,[-2.72725812e+03  3.45384434e+02 -3.63861512e-03 -1.31641694e+07],1143,1418.4523951444557
972,972,[-2.84409989e+03  3.44383002e+02 -3.46264398e-03 -1.31641694e+07],1029,1420.2475919546036
973,973,[-2.82385267e+03  3.44383177e+02 -3.48234856e-03 -1.31641694e+07],385,1420.0514621009572
974,974,[-2.07107069e+03  3.48387583e+02 -2.65577029e-03 -1.31641694e+07],4,1419.3674505229867
975,975,[-2.65498759e+03  3.45383799e+02 -3.38932173e-03 -1.31641694e+07],1364,1420.056628722036
976,976,[-3.33373023e+03  3.42380630e+02 -3.98328815e-03 -1.31641694e+07],906,1419.6794583605113
977,977,[-2.65807114e+03  3.45383768e+02 -3.26134926e-03 -1.31641694e+07],268,1419.4068790528675
978,978,[-2.46648637e+03  3.46385073e+02 -3.21787830e-03 -1.31641694e+07],730,1417.7270340229484
979,979,[-2.03029834e+03  3.48388610e+02 -2.46965371e-03 -1.31641694e+07],394,1417.2492881464384
980,980,[-2.88414966e+03  3.44382834e+02 -3.61677500e-03 -1.31641694e+07],1164,1419.4416363364967
981,981,[-2.72807122e+03  3.45383805e+02 -4.02887762e-03 -1.31641694e+07],614,1414.6149654170317
982,982,[-2.79329152e+03  3.44382665e+02 -3.29686609e-03 -1.31641694e+07],468,1420.0100144472651
983,983,[-2.63185088e+03  3.45383821e+02 -3.31320534e-03 -1.31641694e+07],77,1419.8573387200142
984,984,[-2.07875085e+03  3.48387230e+02 -2.70641437e-03 -1.31641694e+07],131,1418.290478006383
985,985,[-3.02220066e+03  3.43382069e+02 -3.62808484e-03 -1.31641694e+07],1315,1419.8747343923033
986,986,[-3.04212086e+03  3.43381640e+02 -3.54787201e-03 -1.31641694e+07],1054,1418.4441998047
987,987,[-2.70572432e+03  3.45383869e+02 -3.63267312e-03 -1.31641694e+07],203,1416.1044199999237
988,988,[-3.29527313e+03  3.42380674e+02 -3.93774731e-03 -1.31641694e+07],1393,1419.7887027044917
989,989,[-2.85280562e+03  3.44382730e+02 -3.47837980e-03 -1.31641694e+07],654,1419.9677511010611
990,990,[-2.68722555e+03  3.45384161e+02 -3.47666731e-03 -1.31641694e+07],971,1418.9093961617982
991,991,[-3.00989410e+03  3.43382083e+02 -3.55519479e-03 -1.31641694e+07],929,1419.5053920634102
992,992,[-2.45303030e+03  3.46384902e+02 -3.07020459e-03 -1.31641694e+07],986,1418.1667600244234
993,993,[-2.69076379e+03  3.45384096e+02 -3.54153419e-03 -1.31641694e+07],887,1418.2427839600234
994,994,[-2.50965569e+03  3.45383789e+02 -2.75981513e-03 -1.31641694e+07],90,1414.4491264386422
995,995,[-2.47902386e+03  3.46385508e+02 -3.30756944e-03 -1.31641694e+07],61,1417.8997462392647
996,996,[-2.58151565e+03  3.45384352e+02 -3.04540084e-03 -1.31641694e+07],1160,1418.6899738980387
997,997,[-2.95910598e+03  3.43381770e+02 -3.65775066e-03 -1.31641694e+07],942,1418.111928933548
998,998,[-2.99651182e+03  3.44382685e+02 -4.20756140e-03 -1.31641694e+07],637,1414.4951088201872
999,999,[-2.59866294e+03  3.45383936e+02 -3.19570097e-03 -1.31641694e+07],1309,1419.919006461073
1000,1000,[-3.03114992e+03  3.43381928e+02 -3.74965965e-03 -1.31641694e+07],168,1418.0436539878347
1001,1001,[-2.71162501e+03  3.45383821e+02 -3.57898030e-03 -1.31641694e+07],46,1417.7799763494884
1002,1002,[-2.79313575e+03  3.44382803e+02 -3.29167373e-03 -1.31641694e+07],361,1419.7354155582634
1003,1003,[-2.58573534e+03  3.45384025e+02 -3.16101880e-03 -1.31641694e+07],568,1419.1785051252812
1004,1004,[-2.71024904e+03  3.45383774e+02 -3.66230584e-03 -1.31641694e+07],607,1416.5634877466207
1005,1005,[-2.58497292e+03  3.45384149e+02 -3.04320223e-03 -1.31641694e+07],1225,1419.9346441950609
1006,1006,[-2.85010254e+03  3.44382649e+02 -3.47424236e-03 -1.31641694e+07],325,1419.4199042681375
1007,1007,[-2.65532150e+03  3.45384398e+02 -3.40962953e-03 -1.31641694e+07],1107,1419.6821409437737
1008,1008,[-2.83179042e+03  3.44383034e+02 -3.47272657e-03 -1.31641694e+07],221,1419.7634952604055
1009,1009,[-2.85299556e+03  3.44382910e+02 -3.49065308e-03 -1.31641694e+07],482,1419.4335587636656
1010,1010,[-2.66752599e+03  3.45384143e+02 -3.49407272e-03 -1.31641694e+07],1192,1419.3902087300462
1011,1011,[-2.09660194e+03  3.48387245e+02 -2.75135069e-03 -1.31641694e+07],1086,1418.6894180970535
1012,1012,[-2.97647438e+03  3.43381789e+02 -3.55335593e-03 -1.31641694e+07],1375,1419.0836660447856
1013,1013,[-2.88459841e+03  3.44383209e+02 -3.42979423e-03 -1.31641694e+07],708,1419.6810376358526
1014,1014,[-2.69974944e+03  3.45384054e+02 -3.58382489e-03 -1.31641694e+07],638,1419.097022747908
1015,1015,[-2.62077547e+03  3.45383927e+02 -3.25256607e-03 -1.31641694e+07],1381,1420.1917877681085
1016,1016,[-2.85048175e+03  3.44382820e+02 -3.46309089e-03 -1.31641694e+07],1059,1419.9067868524812
1017,1017,[-2.08473798e+03  3.48388149e+02 -2.68128501e-03 -1.31641694e+07],716,1419.7165651543996
1018,1018,[-2.68205401e+03  3.45383900e+02 -3.47720743e-03 -1.31641694e+07],70,1419.895970171906
1019,1019,[-2.81185095e+03  3.44382651e+02 -3.29060534e-03 -1.31641694e+07],66,1419.7540840260265
1020,1020,[-2.70941953e+03  3.45383883e+02 -3.63567157e-03 -1.31641694e+07],1088,1417.8660761133092
1021,1021,[-2.64983092e+03  3.45384203e+02 -3.41018762e-03 -1.31641694e+07],1252,1420.118078495321
1022,1022,[-2.03536999e+03  3.48387470e+02 -2.47670228e-03 -1.31641694e+07],59,1417.3170068587929
1023,1023,[-2.09784509e+03  3.48387250e+02 -2.75689166e-03 -1.31641694e+07],573,1417.2516164588073
1024,1024,[-2.73210929e+03  3.45383788e+02 -3.72265222e-03 -1.31641694e+07],957,1416.459561518934
1025,1025,[-2.78854118e+03  3.44383005e+02 -3.31001142e-03 -1.31641694e+07],758,1419.940603998116
1026,1026,[-2.64722606e+03  3.45383928e+02 -3.27949847e-03 -1.31641694e+07],1150,1418.8951036578717
1027,1027,[-2.08384072e+03  3.48387111e+02 -2.68767173e-03 -1.31641694e+07],1255,1418.0016409044717
1028,1028,[-2.51282603e+03  3.45384547e+02 -2.87714515e-03 -1.31641694e+07],715,1415.9472309293358
1029,1029,[-2.85332799e+03  3.44382912e+02 -3.42820844e-03 -1.31641694e+07],1165,1418.4928041505225
1030,1030,[-2.97786813e+03  3.44382777e+02 -4.23847476e-03 -1.31641694e+07],1172,1416.2176643759046
1031,1031,[-2.51605905e+03  3.45384033e+02 -2.86396777e-03 -1.31641694e+07],350,1416.7501900731008
1032,1032,[-2.89367513e+03  3.44382786e+02 -3.59570588e-03 -1.31641694e+07],184,1418.983173682218
1033,1033,[-2.71258919e+03  3.45384085e+02 -3.70334910e-03 -1.31641694e+07],1043,1417.2470263672478
1034,1034,[-2.98217891e+03  3.43381687e+02 -3.51734210e-03 -1.31641694e+07],615,1416.9989914097707
1035,1035,[-2.85329939e+03  3.44383098e+02 -3.48744527e-03 -1.31641694e+07],841,1419.4997300933849
1036,1036,[-2.98752764e+03  3.44382777e+02 -4.45175189e-03 -1.31641694e+07],844,1414.5671744890933
1037,1037,[-3.35856915e+03  3.42380800e+02 -4.18195176e-03 -1.31641694e+07],165,1420.259630929816
1038,1038,[-2.65831591e+03  3.45384123e+02 -3.37819106e-03 -1.31641694e+07],1339,1419.6477671490793
1039,1039,[-2.49742690e+03  3.46385809e+02 -3.50185940e-03 -1.31641694e+07],0,1416.5305241010644
1040,1040,[-3.31311191e+03  3.42380621e+02 -4.24494086e-03 -1.31641694e+07],1163,1419.2186254381925
1041,1041,[-2.68905161e+03  3.45384022e+02 -3.71403703e-03 -1.31641694e+07],33,1417.3796008697066
1042,1042,[-2.61161992e+03  3.45383817e+02 -3.19581083e-03 -1.31641694e+07],459,1419.5565655369842
1043,1043,[-2.98106448e+03  3.43381768e+02 -3.50470211e-03 -1.31641694e+07],84,1418.3284613751232
1044,1044,[-2.10326089e+03  3.48387183e+02 -2.81101650e-03 -1.31641694e+07],226,1417.831262539569
1045,1045,[-2.62378977e+03  3.45383792e+02 -3.31679429e-03 -1.31641694e+07],1368,1418.9536814635187
1046,1046,[-2.33074271e+03  3.46384998e+02 -2.64291848e-03 -1.31641694e+07],79,1416.5554581125318
1047,1047,[-2.45302929e+03  3.46384990e+02 -3.15641729e-03 -1.31641694e+07],156,1418.6695899946894
1048,1048,[-2.50548294e+03  3.45384251e+02 -2.77896871e-03 -1.31641694e+07],984,1416.0981343363583
1049,1049,[-2.47449257e+03  3.46384904e+02 -3.24707101e-03 -1.31641694e+07],926,1418.6456098884519
1050,1050,[-2.63388865e+03  3.45383815e+02 -3.42294584e-03 -1.31641694e+07],276,1418.8045419343152
1051,1051,[-2.74375042e+03  3.44382687e+02 -3.25023137e-03 -1.31641694e+07],1327,1415.8329833590142
1052,1052,[-2.91124164e+03  3.44382739e+02 -4.41250959e-03 -1.31641694e+07],1117,1414.142569979553
1053,1053,[-2.63906311e+03  3.45383856e+02 -3.35841071e-03 -1.31641694e+07],905,1419.0384991615176
1054,1054,[-2.98545965e+03  3.43381879e+02 -3.57706764e-03 -1.31641694e+07],135,1418.4630442568173
1055,1055,[-2.96055066e+03  3.44382788e+02 -4.04865173e-03 -1.31641694e+07],375,1416.471588887954
1056,1056,[-2.62534766e+03  3.45384039e+02 -3.28829064e-03 -1.31641694e+07],587,1419.5975457190932
1057,1057,[-2.76836580e+03  3.44382771e+02 -3.21042826e-03 -1.31641694e+07],323,1417.7668431910315
1058,1058,[-2.86402889e+03  3.44382786e+02 -3.62183569e-03 -1.31641694e+07],1378,1419.267608866868
1059,1059,[-2.45805551e+03  3.46385122e+02 -3.23389239e-03 -1.31641694e+07],993,1418.3724202909527
1060,1060,[-3.30687742e+03  3.42380794e+02 -4.06413781e-03 -1.31641694e+07],37,1419.518028392158
1061,1061,[-2.81289096e+03  3.44382715e+02 -3.32323043e-03 -1.31641694e+07],1303,1419.4765454554422
1062,1062,[-2.71540832e+03  3.45384125e+02 -3.74159321e-03 -1.31641694e+07],581,1416.910388616037
1063,1063,[-2.62362283e+03  3.45383915e+02 -3.29351579e-03 -1.31641694e+07],205,1419.6224300789224
1064,1064,[-2.57999690e+03  3.45383906e+02 -3.04418597e-03 -1.31641694e+07],664,1419.427691497533
1065,1065,[-2.10172254e+03  3.48387387e+02 -2.75690506e-03 -1.31641694e+07],1273,1416.449453710263
1066,1066,[-2.63561450e+03  3.45383826e+02 -3.41186150e-03 -1.31641694e+07],1105,1419.5393214757632
1067,1067,[-3.03958360e+03  3.43382048e+02 -3.59807014e-03 -1.31641694e+07],1310,1418.9050299483026
1068,1068,[-2.64002527e+03  3.45384046e+02 -3.27167090e-03 -1.31641694e+07],631,1419.1717472348969
1069,1069,[-2.09091007e+03  3.48387210e+02 -2.74413025e-03 -1.31641694e+07],822,1419.3926848592696
1070,1070,[-2.84659139e+03  3.44383052e+02 -3.48032051e-03 -1.31641694e+07],95,1420.1190440548746
1071,1071,[-2.88275908e+03  3.44382694e+02 -3.56020673e-03 -1.31641694e+07],92,1419.8004762814476
1072,1072,[-2.10267298e+03  3.48387173e+02 -2.77630866e-03 -1.31641694e+07],1254,1417.899211919382
1073,1073,[-2.34410072e+03  3.46384996e+02 -2.75172218e-03 -1.31641694e+07],709,1419.0392315480167
1074,1074,[-2.59820800e+03  3.45383897e+02 -2.98980587e-03 -1.31641694e+07],1419,1419.1956243482462
1075,1075,[-2.69499032e+03  3.45383851e+02 -3.60196846e-03 -1.31641694e+07],1410,1418.0498260789159
1076,1076,[-2.62302882e+03  3.45383869e+02 -3.24766742e-03 -1.31641694e+07],13,1419.7393166391923
1077,1077,[-2.83977237e+03  3.44382825e+02 -3.60668695e-03 -1.31641694e+07],162,1419.8626419110751
1078,1078,[-2.08862328e+03  3.48387300e+02 -2.70511193e-03 -1.31641694e+07],186,1419.4269152152829
1079,1079,[-2.81920383e+03  3.44382695e+02 -3.44851910e-03 -1.31641694e+07],1281,1418.9782666109681
1080,1080,[-2.84138812e+03  3.44382712e+02 -3.73195051e-03 -1.31641694e+07],818,1419.377669354908
1081,1081,[-3.35815725e+03  3.42380641e+02 -4.14740354e-03 -1.31641694e+07],992,1419.6793237946617
1082,1082,[-2.70762204e+03  3.45383814e+02 -3.74758780e-03 -1.31641694e+07],788,1416.6599365731038
1083,1083,[-2.68865604e+03  3.45383789e+02 -3.56366870e-03 -1.31641694e+07],484,1418.7354094712698
1084,1084,[-3.73675892e+03  3.41379458e+02 -4.68684473e-03 -1.31641694e+07],520,1419.7906925156594
1085,1085,[-2.87946177e+03  3.44382918e+02 -3.58825807e-03 -1.31641694e+07],376,1419.5154082660752
1086,1086,[-2.09294827e+03  3.48387104e+02 -2.76906460e-03 -1.31641694e+07],21,1418.3990140077412
1087,1087,[-2.80908023e+03  3.44382916e+02 -3.27822229e-03 -1.31641694e+07],1228,1420.0606842670954
1088,1088,[-3.02694022e+03  3.43381546e+02 -3.54473992e-03 -1.31641694e+07],619,1418.3569336537082
1089,1089,[-2.71507327e+03  3.45383893e+02 -3.66196259e-03 -1.31641694e+07],527,1417.3004763435777
1090,1090,[-2.64483221e+03  3.45384057e+02 -3.29973171e-03 -1.31641694e+07],414,1418.5907476914533
1091,1091,[-2.64087357e+03  3.45383849e+02 -3.43393636e-03 -1.31641694e+07],1385,1419.333707734274
1092,1092,[-2.09053031e+03  3.48387538e+02 -2.71488258e-03 -1.31641694e+07],1156,1419.530777855814
1093,1093,[-2.84084993e+03  3.44382732e+02 -3.55437813e-03 -1.31641694e+07],1256,1419.5727030065468
1094,1094,[-3.03576428e+03  3.43381934e+02 -3.61866213e-03 -1.31641694e+07],1249,1419.3176278740884
1095,1095,[-2.42835481e+03  3.46384918e+02 -2.97246154e-03 -1.31641694e+07],252,1419.4526689010806
1096,1096,[-2.08411971e+03  3.48387110e+02 -2.71626600e-03 -1.31641694e+07],443,1418.6243271256778
1097,1097,[-2.79967637e+03  3.44382804e+02 -3.33343188e-03 -1.31641694e+07],997,1419.8980994746928
1098,1098,[-2.65490488e+03  3.45384043e+02 -3.34937288e-03 -1.31641694e+07],734,1419.9625367318688
1099,1099,[-2.71632790e+03  3.45383915e+02 -3.75627661e-03 -1.31641694e+07],1236,1417.4370440853781
1100,1100,[-3.09158731e+03  3.43381588e+02 -3.69167230e-03 -1.31641694e+07],817,1419.8622400972597
1101,1101,[-3.00639952e+03  3.43381772e+02 -3.54767941e-03 -1.31641694e+07],932,1418.702856461783
1102,1102,[-2.71956999e+03  3.45383900e+02 -3.68739030e-03 -1.31641694e+07],80,1417.6569909733785
1103,1103,[-2.46993996e+03  3.46385489e+02 -3.25706843e-03 -1.31641694e+07],938,1419.2067770242452
1104,1104,[-2.55090375e+03  3.45384075e+02 -2.90091283e-03 -1.31641694e+07],10,1417.7553136440122
1105,1105,[-2.70129945e+03  3.45383847e+02 -3.49836805e-03 -1.31641694e+07],1141,1418.22014468773
1106,1106,[-2.58084112e+03  3.45383919e+02 -3.04479221e-03 -1.31641694e+07],685,1419.5925485687678
1107,1107,[-2.82012797e+03  3.44382967e+02 -3.63434136e-03 -1.31641694e+07],910,1418.4057900631076
1108,1108,[-2.69996541e+03  3.45384236e+02 -3.69048790e-03 -1.31641694e+07],85,1415.902953487832
1109,1109,[-2.60272224e+03  3.45383763e+02 -3.40316839e-03 -1.31641694e+07],73,1417.6876978368925
1110,1110,[-2.78784276e+03  3.44382686e+02 -3.61010457e-03 -1.31641694e+07],566,1417.8286605802184
1111,1111,[-2.70599271e+03  3.45383843e+02 -3.65616431e-03 -1.31641694e+07],1075,1416.696393648887
1112,1112,[-2.32399940e+03  3.46385030e+02 -2.66323395e-03 -1.31641694e+07],609,1416.0780405141682
1113,1113,[-2.62062906e+03  3.45384322e+02 -3.34865990e-03 -1.31641694e+07],1000,1418.9585535755107
1114,1114,[-2.70506627e+03  3.45384286e+02 -3.70107567e-03 -1.31641694e+07],711,1417.1028393152405
1115,1115,[-2.79265890e+03  3.44382816e+02 -3.29141615e-03 -1.31641694e+07],626,1419.308700372021
1116,1116,[-2.63748509e+03  3.45383827e+02 -3.42022146e-03 -1.31641694e+07],799,1418.7717838690783
1117,1117,[-2.67710622e+03  3.45383799e+02 -3.51592448e-03 -1.31641694e+07],935,1418.2794561970368
1118,1118,[-2.81078138e+03  3.44382830e+02 -3.36160722e-03 -1.31641694e+07],472,1419.1043022038366
1119,1119,[-2.81340971e+03  3.44383090e+02 -3.30392254e-03 -1.31641694e+07],1356,1419.6752278551317
1120,1120,[-2.69508065e+03  3.45384066e+02 -3.44919225e-03 -1.31641694e+07],199,1419.5794192002882
1121,1121,[-2.66307266e+03  3.45383972e+02 -3.44898773e-03 -1.31641694e+07],542,1419.312345175071
1122,1122,[-2.58472650e+03  3.45383788e+02 -3.03106016e-03 -1.31641694e+07],1124,1419.1550425235068
1123,1123,[-2.87372568e+03  3.44382998e+02 -3.69281348e-03 -1.31641694e+07],839,1419.3148617689585
1124,1124,[-2.09441843e+03  3.48387229e+02 -2.71993348e-03 -1.31641694e+07],1027,1418.0061669811535
1125,1125,[-2.33616573e+03  3.46385179e+02 -2.72527263e-03 -1.31641694e+07],1386,1418.7598901629685
1126,1126,[-2.85728463e+03  3.44383146e+02 -3.44436388e-03 -1.31641694e+07],41,1419.4880641718912
1127,1127,[-2.72227893e+03  3.45383944e+02 -3.78238892e-03 -1.31641694e+07],645,1416.3582609952048
1128,1128,[-3.32007610e+03  3.42381164e+02 -4.12065877e-03 -1.31641694e+07],1366,1419.1065670218297
1129,1129,[-3.02924441e+03  3.43381607e+02 -3.56927533e-03 -1.31641694e+07],1134,1419.0246654563468
1130,1130,[-2.71947727e+03  3.45383842e+02 -3.72473363e-03 -1.31641694e+07],642,1416.4101670883804
1131,1131,[-2.70126120e+03  3.45383848e+02 -3.66099299e-03 -1.31641694e+07],218,1416.7336914608215
1132,1132,[-2.59281243e+03  3.45383943e+02 -3.20945935e-03 -1.31641694e+07],112,1419.332846934143
1133,1133,[-2.08282161e+03  3.48387401e+02 -2.71719220e-03 -1.31641694e+07],74,1418.9935086038959
1134,1134,[-2.70972752e+03  3.45384373e+02 -3.57158543e-03 -1.31641694e+07],318,1417.9866171005574
1135,1135,[-2.51316824e+03  3.45383793e+02 -2.82847675e-03 -1.31641694e+07],108,1416.0703449454538
1136,1136,[-2.60981544e+03  3.45383872e+02 -3.08373891e-03 -1.31641694e+07],65,1418.6554960453616
1137,1137,[-2.65047944e+03  3.45383863e+02 -3.59444232e-03 -1.31641694e+07],139,1415.6641540341
1138,1138,[-2.78916101e+03  3.44382670e+02 -3.32724977e-03 -1.31641694e+07],704,1419.6259475965599
1139,1139,[-2.54846590e+03  3.45383835e+02 -2.91587759e-03 -1.31641694e+07],322,1417.5311448556208
1140,1140,[-2.72409441e+03  3.45384044e+02 -3.61575849e-03 -1.31641694e+07],777,1417.2045179962543
1141,1141,[-2.68081340e+03  3.45384012e+02 -3.59478144e-03 -1.31641694e+07],764,1418.0795884366923
1142,1142,[-2.54178530e+03  3.45383883e+02 -2.93510702e-03 -1.31641694e+07],129,1417.5657929403733
1143,1143,[-2.09022242e+03  3.48387866e+02 -2.71338744e-03 -1.31641694e+07],1392,1418.4933059707832
1144,1144,[-2.62654061e+03  3.45384139e+02 -3.28586372e-03 -1.31641694e+07],396,1419.4503067087314
1145,1145,[-3.27046283e+03  3.42380605e+02 -3.79016396e-03 -1.31641694e+07],138,1417.0833110077494
1146,1146,[-2.10419592e+03  3.48387780e+02 -2.79101456e-03 -1.31641694e+07],653,1417.5268929840588
1147,1147,[-3.35635096e+03  3.42380684e+02 -4.25001293e-03 -1.31641694e+07],995,1420.2905734539456
1148,1148,[-2.06896213e+03  3.48387435e+02 -2.61078769e-03 -1.31641694e+07],1072,1419.5217266624124
1149,1149,[-2.64840212e+03  3.45384221e+02 -3.35897971e-03 -1.31641694e+07],867,1419.7466366321944
1150,1150,[-2.96362540e+03  3.43381658e+02 -3.50583339e-03 -1.31641694e+07],60,1418.3415815646758
1151,1151,[-2.09317388e+03  3.48387255e+02 -2.76029686e-03 -1.31641694e+07],6,1417.4989290836334
1152,1152,[-2.63276173e+03  3.45383862e+02 -3.25330706e-03 -1.31641694e+07],17,1419.9527077651828
1153,1153,[-2.32951327e+03  3.46385029e+02 -2.63617736e-03 -1.31641694e+07],55,1417.2507056746326
1154,1154,[-2.71206357e+03  3.45384064e+02 -3.61021344e-03 -1.31641694e+07],753,1417.460821306455
1155,1155,[-3.28999824e+03  3.42380462e+02 -4.01995300e-03 -1.31641694e+07],912,1419.3937704652355
1156,1156,[-2.34780744e+03  3.46384969e+02 -2.85815961e-03 -1.31641694e+07],1020,1418.1270485797386
1157,1157,[-2.71639647e+03  3.45383949e+02 -3.81402900e-03 -1.31641694e+07],352,1415.3216720154917
1158,1158,[-2.75286907e+03  3.44382653e+02 -3.22890179e-03 -1.31641694e+07],294,1417.3619268686994
1159,1159,[-2.62083866e+03  3.45383782e+02 -3.37699117e-03 -1.31641694e+07],370,1418.9375918802577
1160,1160,[-2.68846156e+03  3.45383937e+02 -3.59249643e-03 -1.31641694e+07],371,1418.4303154938718
1161,1161,[-2.80512769e+03  3.44383264e+02 -3.40933865e-03 -1.31641694e+07],1044,1417.747461544558
1162,1162,[-2.76677102e+03  3.44383183e+02 -3.24995801e-03 -1.31641694e+07],311,1418.6256680968677
1163,1163,[-2.89758898e+03  3.44382801e+02 -4.01388253e-03 -1.31641694e+07],1110,1418.3133038378546
1164,1164,[-2.65211452e+03  3.45383861e+02 -3.43083758e-03 -1.31641694e+07],836,1418.4755268449512
1165,1165,[-2.16840851e+03  3.47386864e+02 -2.53538561e-03 -1.31641694e+07],1174,1418.3325369667946
1166,1166,[-2.84698826e+03  3.44382812e+02 -3.46285549e-03 -1.31641694e+07],441,1419.7774365010373
1167,1167,[-2.72393823e+03  3.45383878e+02 -3.82918472e-03 -1.31641694e+07],752,1416.3946731562285
1168,1168,[-3.10169455e+03  3.43381540e+02 -3.68686883e-03 -1.31641694e+07],19,1419.7779641216357
1169,1169,[-3.04604406e+03  3.43381608e+02 -3.70578481e-03 -1.31641694e+07],104,1419.3499911056074
1170,1170,[-2.86660671e+03  3.44382804e+02 -3.67095305e-03 -1.31641694e+07],560,1419.1075596633275
1171,1171,[-2.70195028e+03  3.45384195e+02 -3.63072079e-03 -1.31641694e+07],1240,1417.3190337514893
1172,1172,[-2.96284044e+03  3.43381647e+02 -3.57547727e-03 -1.31641694e+07],748,1418.3323644760312
1173,1173,[-2.82565507e+03  3.44383175e+02 -3.66866886e-03 -1.31641694e+07],586,1419.048593201251
1174,1174,[-2.68624363e+03  3.45383979e+02 -3.68885636e-03 -1.31641694e+07],51,1417.8237976924395
1175,1175,[-2.67297950e+03  3.45384099e+02 -3.63660430e-03 -1.31641694e+07],1231,1417.7807848502052
1176,1176,[-2.99000393e+03  3.43381656e+02 -3.57934441e-03 -1.31641694e+07],1175,1419.0095003639278
1177,1177,[-2.88124427e+03  3.44382755e+02 -3.38444727e-03 -1.31641694e+07],1001,1419.681377669614
1178,1178,[-2.09229915e+03  3.48387258e+02 -2.73385702e-03 -1.31641694e+07],164,1416.9863345253743
1179,1179,[-2.81922869e+03  3.44382815e+02 -3.44678206e-03 -1.31641694e+07],1057,1419.7525114464884
1180,1180,[-2.64374211e+03  3.45384314e+02 -3.53608200e-03 -1.31641694e+07],486,1418.626555942586
1181,1181,[-2.08615164e+03  3.48387184e+02 -2.71833015e-03 -1.31641694e+07],48,1418.5271839588238
1182,1182,[-2.58537910e+03  3.45383922e+02 -3.03490821e-03 -1.31641694e+07],1104,1419.3484273024933
1183,1183,[-2.03282828e+03  3.48387601e+02 -2.47463975e-03 -1.31641694e+07],1161,1416.9735576006908
1184,1184,[-2.09362206e+03  3.48387116e+02 -2.73335490e-03 -1.31641694e+07],978,1418.932281840974
1185,1185,[-2.68538417e+03  3.45383850e+02 -3.51809977e-03 -1.31641694e+07],528,1418.5042569521534
1186,1186,[-2.54538048e+03  3.45383998e+02 -2.91918980e-03 -1.31641694e+07],563,1417.5504066308247
1187,1187,[-3.00976814e+03  3.44382774e+02 -4.25422940e-03 -1.31641694e+07],105,1413.7365930061967
1188,1188,[-2.83283998e+03  3.44383095e+02 -3.43392160e-03 -1.31641694e+07],107,1419.9096565862478
1189,1189,[-3.32954688e+03  3.42380708e+02 -4.06933920e-03 -1.31641694e+07],762,1418.9807302920544
1190,1190,[-2.73115182e+03  3.45384123e+02 -3.60933432e-03 -1.31641694e+07],337,1416.4219405226486
1191,1191,[-3.03525678e+03  3.43381745e+02 -3.63428007e-03 -1.31641694e+07],1109,1419.7047291727783
1192,1192,[-2.09132031e+03  3.48387214e+02 -2.70906019e-03 -1.31641694e+07],140,1418.4014615158137
1193,1193,[-2.63068580e+03  3.45383970e+02 -3.42785203e-03 -1.31641694e+07],760,1418.5543509937127
1194,1194,[-2.82667108e+03  3.44382835e+02 -3.54075629e-03 -1.31641694e+07],445,1419.8151862668824
1195,1195,[-2.94687228e+03  3.44383062e+02 -4.25679823e-03 -1.31641694e+07],319,1414.8062720020453
1196,1196,[-2.75296533e+03  3.44382741e+02 -3.25176738e-03 -1.31641694e+07],392,1417.4112504501832
1197,1197,[-2.83825136e+03  3.44382694e+02 -3.73946935e-03 -1.31641694e+07],1102,1418.6877780788657
1198,1198,[-2.71467143e+03  3.45383967e+02 -3.63679435e-03 -1.31641694e+07],1204,1416.4202031989948
1199,1199,[-2.85140817e+03  3.44382750e+02 -3.69871385e-03 -1.31641694e+07],646,1419.585298880173
1200,1200,[-2.59213271e+03  3.45383843e+02 -3.04103332e-03 -1.31641694e+07],43,1419.7230000258257
1201,1201,[-2.69559451e+03  3.45384482e+02 -3.48823723e-03 -1.31641694e+07],965,1418.8665638025814
1202,1202,[-2.64197227e+03  3.45383868e+02 -3.33978761e-03 -1.31641694e+07],18,1420.0011623752594
1203,1203,[-2.85466431e+03  3.44382831e+02 -3.49924352e-03 -1.31641694e+07],425,1419.283962002647
1204,1204,[-2.09417586e+03  3.48387151e+02 -2.72936357e-03 -1.31641694e+07],693,1417.6537975602882
1205,1205,[-3.27412782e+03  3.42380464e+02 -4.17371561e-03 -1.31641694e+07],44,1418.568921119096
1206,1206,[-3.36823092e+03  3.42380616e+02 -4.35653713e-03 -1.31641694e+07],700,1418.8259964076276
1207,1207,[-2.94212062e+03  3.44382682e+02 -4.28041858e-03 -1.31641694e+07],397,1416.4793042266715
1208,1208,[-2.59996473e+03  3.45383848e+02 -3.19142635e-03 -1.31641694e+07],463,1419.3692423183898
1209,1209,[-3.06117591e+03  3.43381622e+02 -3.67152705e-03 -1.31641694e+07],1269,1419.3001844609973
1210,1210,[-2.09887763e+03  3.48388102e+02 -2.74767518e-03 -1.31641694e+07],1142,1417.3137580692865
1211,1211,[-2.86053240e+03  3.44382686e+02 -3.70860208e-03 -1.31641694e+07],1,1419.2586442146803
1212,1212,[-2.84790519e+03  3.44382975e+02 -3.50551949e-03 -1.31641694e+07],111,1419.930077161796
1213,1213,[-2.65421495e+03  3.45384065e+02 -3.55724020e-03 -1.31641694e+07],1186,1418.5475967424195
1214,1214,[-2.69956078e+03  3.45383824e+02 -3.54171045e-03 -1.31641694e+07],623,1418.7117961052713
1215,1215,[-2.65091109e+03  3.45384043e+02 -3.35088759e-03 -1.31641694e+07],47,1419.2991264714785
1216,1216,[-2.86394919e+03  3.44382743e+02 -3.53828104e-03 -1.31641694e+07],364,1419.6868631657287
1217,1217,[-2.69238909e+03  3.45384423e+02 -3.53705849e-03 -1.31641694e+07],283,1418.6195313840076
1218,1218,[-2.07962637e+03  3.48387242e+02 -2.68625870e-03 -1.31641694e+07],16,1418.7104035433238
1219,1219,[-3.09481667e+03  3.43381633e+02 -3.72348084e-03 -1.31641694e+07],1139,1419.4631579129018
1220,1220,[-2.08655780e+03  3.48387723e+02 -2.71014982e-03 -1.31641694e+07],1146,1418.584866523442
1221,1221,[-2.57701756e+03  3.45383935e+02 -3.07699514e-03 -1.31641694e+07],389,1419.8417233196726
1222,1222,[-2.87301621e+03  3.44382759e+02 -3.53163332e-03 -1.31641694e+07],675,1418.7382689686117
1223,1223,[-2.08317643e+03  3.48387568e+02 -2.71173864e-03 -1.31641694e+07],491,1419.8147171738785
1224,1224,[-2.87141907e+03  3.44382694e+02 -3.39885895e-03 -1.31641694e+07],687,1420.1346035031224
1225,1225,[-2.09169955e+03  3.48387925e+02 -2.75734385e-03 -1.31641694e+07],233,1418.4071186710137
1226,1226,[-2.59512881e+03  3.45383933e+02 -3.06572947e-03 -1.31641694e+07],1151,1419.4037171515326
1227,1227,[-2.60725303e+03  3.45383889e+02 -3.04597130e-03 -1.31641694e+07],374,1419.0994417756237
1228,1228,[-2.09408579e+03  3.48387425e+02 -2.76411167e-03 -1.31641694e+07],401,1418.1381199383984
1229,1229,[-2.82613874e+03  3.44382814e+02 -3.48185241e-03 -1.31641694e+07],8,1420.1247462122124
1230,1230,[-2.88345453e+03  3.44382881e+02 -3.74735703e-03 -1.31641694e+07],702,1418.7883820709726
1231,1231,[-2.70302344e+03  3.45383792e+02 -3.59992564e-03 -1.31641694e+07],412,1417.7855349597953
1232,1232,[-2.80487439e+03  3.44382675e+02 -3.31442829e-03 -1.31641694e+07],1299,1420.1524904519983
1233,1233,[-2.84577183e+03  3.44383049e+02 -3.47133809e-03 -1.31641694e+07],1154,1419.3284774227507
