,0,1,2,3
0,0,[-7.65002515e+03  3.25361808e+02 -6.22769263e-03 -1.31641694e+07],448,707.7653991215587
1,1,[-8.82204540e+03  3.25361615e+02 -8.68804936e-03 -1.31641694e+07],300,745.983624012145
2,2,[-8.99631862e+03  3.24360523e+02 -1.00675490e-02 -1.31641694e+07],242,745.8207091845592
3,3,[-5.30880950e+03  3.29365966e+02 -4.02873596e-03 -1.31641694e+07],547,744.9660266747142
4,4,[-7.71135273e+03  3.25361629e+02 -6.54881827e-03 -1.31641694e+07],454,745.113068826991
5,5,[-5.22840330e+03  3.28364956e+02 -4.29060440e-03 -1.31641694e+07],493,741.943578069179
6,6,[-5.09496944e+03  3.28365042e+02 -4.46501096e-03 -1.31641694e+07],630,739.8410981805519
7,7,[-8.06484054e+03  3.25361530e+02 -6.63109082e-03 -1.31641694e+07],598,735.1234368650574
8,8,[-7.50644257e+03  3.25361574e+02 -6.69831510e-03 -1.31641694e+07],223,743.9155279583008
9,9,[-8.54868293e+03  3.25361534e+02 -8.30568272e-03 -1.31641694e+07],626,746.2958364554739
10,10,[-8.01499687e+03  3.25361519e+02 -9.14107403e-03 -1.31641694e+07],576,745.563303845114
11,11,[-7.40320633e+03  3.25361536e+02 -6.56539498e-03 -1.31641694e+07],316,745.6903558004706
12,12,[-9.62360239e+03  3.23359293e+02 -9.36425769e-03 -1.31641694e+07],325,744.9052348157192
13,13,[-8.41047137e+03  3.25361515e+02 -7.17359250e-03 -1.31641694e+07],323,747.095029982697
14,14,[-8.27521944e+03  3.25361630e+02 -8.22617040e-03 -1.31641694e+07],351,746.6747660675197
15,15,[-7.32148263e+03  3.25361570e+02 -6.86870575e-03 -1.31641694e+07],722,743.3778466421458
16,16,[-5.61393953e+03  3.28365172e+02 -4.34568495e-03 -1.31641694e+07],639,745.6784172944474
17,17,[-7.68694135e+03  3.25361616e+02 -7.04320489e-03 -1.31641694e+07],260,745.979024391351
18,18,[-8.38933732e+03  3.25361548e+02 -8.41137026e-03 -1.31641694e+07],570,747.6595260106668
19,19,[-7.89775803e+03  3.25361531e+02 -6.42703598e-03 -1.31641694e+07],515,747.0177627395268
20,20,[-9.16351182e+03  3.24360453e+02 -9.25778569e-03 -1.31641694e+07],324,746.3584560518598
21,21,[-8.68248028e+03  3.24360423e+02 -8.84771823e-03 -1.31641694e+07],522,744.7093014058523
22,22,[-7.14907022e+03  3.26362659e+02 -5.96350943e-03 -1.31641694e+07],395,745.0990210467769
23,23,[-7.91833821e+03  3.25361565e+02 -7.29591733e-03 -1.31641694e+07],531,739.2008379117561
24,24,[-7.82612913e+03  3.25361548e+02 -6.59317933e-03 -1.31641694e+07],276,735.7089067080266
25,25,[-8.64427620e+03  3.25361574e+02 -7.79234402e-03 -1.31641694e+07],445,746.6038336251323
26,26,[-8.61465984e+03  3.25361608e+02 -8.00868540e-03 -1.31641694e+07],500,746.4852294566745
27,27,[-7.54659331e+03  3.25361552e+02 -7.28191024e-03 -1.31641694e+07],406,745.3474268780967
28,28,[-7.15646330e+03  3.25361541e+02 -7.03825328e-03 -1.31641694e+07],646,744.915039322316
29,29,[-7.07286697e+03  3.25361548e+02 -6.94454459e-03 -1.31641694e+07],372,739.588442059156
30,30,[-7.66660214e+03  3.25361530e+02 -6.79142651e-03 -1.31641694e+07],396,746.6231322735921
31,31,[-8.85280580e+03  3.24360550e+02 -7.75919523e-03 -1.31641694e+07],271,746.7169575310471
32,32,[-9.27364186e+03  3.24360481e+02 -9.46427056e-03 -1.31641694e+07],617,746.895872296985
33,33,[-4.71338210e+03  3.28364871e+02 -3.97128577e-03 -1.31641694e+07],579,746.9348949837157
34,34,[-7.91440105e+03  3.25361519e+02 -6.63021344e-03 -1.31641694e+07],440,745.282264211049
35,35,[-9.24850240e+03  3.24360481e+02 -9.61180590e-03 -1.31641694e+07],624,733.9394917914839
36,36,[-9.05522444e+03  3.25361573e+02 -8.37442762e-03 -1.31641694e+07],389,734.6201459118474
37,37,[-6.06349536e+03  3.27363846e+02 -4.13972538e-03 -1.31641694e+07],560,738.9393896831114
38,38,[-5.36375284e+03  3.28364987e+02 -4.24064067e-03 -1.31641694e+07],516,738.3428011430201
39,39,[-6.30255314e+03  3.27363818e+02 -5.80722258e-03 -1.31641694e+07],637,739.9441155706522
40,40,[-9.04702978e+03  3.25361679e+02 -8.31996563e-03 -1.31641694e+07],465,745.1364919420772
41,41,[-5.14102486e+03  3.28364885e+02 -3.95718868e-03 -1.31641694e+07],148,746.8381396708555
42,42,[-4.81356558e+03  3.28364987e+02 -4.01525230e-03 -1.31641694e+07],401,744.8673413948795
43,43,[-7.37758479e+03  3.25361553e+02 -7.42415784e-03 -1.31641694e+07],505,745.0110812109988
44,44,[-6.25107002e+03  3.26362650e+02 -4.88918401e-03 -1.31641694e+07],241,746.3760042358251
45,45,[-5.00613594e+03  3.28365026e+02 -3.86850855e-03 -1.31641694e+07],526,747.7354563998168
46,46,[-7.88156450e+03  3.25361534e+02 -6.06479612e-03 -1.31641694e+07],254,746.0824916294785
47,47,[-8.81902737e+03  3.25361597e+02 -8.80345913e-03 -1.31641694e+07],492,745.4154156929942
48,48,[-5.33017491e+03  3.28364868e+02 -4.82308194e-03 -1.31641694e+07],638,742.3242654140871
49,49,[-5.04450270e+03  3.30367292e+02 -4.35384065e-03 -1.31641694e+07],434,736.6770773308388
50,50,[-8.76748201e+03  3.25361737e+02 -7.87804102e-03 -1.31641694e+07],460,746.3381765608473
51,51,[-5.49334547e+03  3.29365995e+02 -3.89331097e-03 -1.31641694e+07],394,745.4413471134865
52,52,[-5.57505229e+03  3.27363783e+02 -4.38431365e-03 -1.31641694e+07],319,747.1816757397072
53,53,[-8.09237833e+03  3.24360476e+02 -8.48178740e-03 -1.31641694e+07],397,746.1821859565107
54,54,[-4.66405083e+03  3.29366156e+02 -4.40981091e-03 -1.31641694e+07],565,742.5588327874597
55,55,[-1.00809023e+04  3.23359300e+02 -9.27952539e-03 -1.31641694e+07],536,736.2505361442744
56,56,[-5.52763380e+03  3.27363774e+02 -4.41146433e-03 -1.31641694e+07],561,742.9598213890293
57,57,[-7.47176563e+03  3.25361630e+02 -6.68978154e-03 -1.31641694e+07],537,747.2143897945208
58,58,[-8.98323442e+03  3.24360417e+02 -7.92295641e-03 -1.31641694e+07],307,746.2434227890129
59,59,[-6.04306368e+03  3.27363938e+02 -5.19097331e-03 -1.31641694e+07],367,743.6254346972363
60,60,[-5.08267592e+03  3.28365285e+02 -4.28680333e-03 -1.31641694e+07],641,734.5975570187911
61,61,[-5.43488157e+03  3.28364921e+02 -4.53474431e-03 -1.31641694e+07],740,733.1327154664327
62,62,[-8.90518988e+03  3.25361524e+02 -8.12816395e-03 -1.31641694e+07],258,739.2869291301118
63,63,[-8.53489443e+03  3.25361679e+02 -7.60339503e-03 -1.31641694e+07],154,746.3778866808121
64,64,[-7.86976105e+03  3.24360425e+02 -8.29510044e-03 -1.31641694e+07],499,741.6545786994946
65,65,[-7.95814851e+03  3.25361690e+02 -8.25226367e-03 -1.31641694e+07],447,733.7405835459555
66,66,[-5.56327403e+03  3.28364955e+02 -4.18477243e-03 -1.31641694e+07],524,731.9703063583345
67,67,[-8.75103430e+03  3.25361641e+02 -8.26083845e-03 -1.31641694e+07],424,741.9339145159366
68,68,[-7.81855734e+03  3.25361520e+02 -7.43117718e-03 -1.31641694e+07],224,744.5136392518629
69,69,[-5.64427714e+03  3.27363804e+02 -4.39937082e-03 -1.31641694e+07],149,741.4037758822791
70,70,[-7.40419443e+03  3.25361537e+02 -6.97937683e-03 -1.31641694e+07],700,740.141329171223
71,71,[-8.99931575e+03  3.24360469e+02 -7.78146382e-03 -1.31641694e+07],523,742.0825514973743
72,72,[-8.93201951e+03  3.25361560e+02 -7.69947518e-03 -1.31641694e+07],575,732.9756633100333
73,73,[-5.59766634e+03  3.28365094e+02 -4.14784779e-03 -1.31641694e+07],514,715.6929973248969
74,74,[-7.82198331e+03  3.25361541e+02 -6.33624088e-03 -1.31641694e+07],435,711.2768889364343
75,75,[-5.23853744e+03  3.28365085e+02 -4.52801731e-03 -1.31641694e+07],670,719.471130072106
76,76,[-8.02678353e+03  3.25361537e+02 -7.07044747e-03 -1.31641694e+07],408,743.0460431965188
77,77,[-7.75001565e+03  3.25361522e+02 -6.57982472e-03 -1.31641694e+07],562,746.479025856761
78,78,[-8.72154929e+03  3.25361703e+02 -8.16048744e-03 -1.31641694e+07],306,745.4630695482864
79,79,[-7.03097168e+03  3.25361548e+02 -6.76000508e-03 -1.31641694e+07],568,745.2157737516129
80,80,[-6.47895100e+03  3.26362720e+02 -5.58661349e-03 -1.31641694e+07],696,744.4458883371256
81,81,[-8.94871745e+03  3.25361599e+02 -8.28506027e-03 -1.31641694e+07],275,743.6196307699815
82,82,[-8.59257539e+03  3.24360446e+02 -7.58920834e-03 -1.31641694e+07],713,742.818773582982
83,83,[-4.95762051e+03  3.30367150e+02 -4.23806751e-03 -1.31641694e+07],629,745.0238629765242
84,84,[-5.56668422e+03  3.28365007e+02 -4.37618221e-03 -1.31641694e+07],528,746.6202259451767
85,85,[-8.69979450e+03  3.24360450e+02 -7.77044449e-03 -1.31641694e+07],475,746.2654111774553
86,86,[-7.13681243e+03  3.25361633e+02 -6.47144587e-03 -1.31641694e+07],442,741.6243000980849
87,87,[-7.84959771e+03  3.25361625e+02 -7.45621443e-03 -1.31641694e+07],645,736.7722202061383
88,88,[-8.87772515e+03  3.25361575e+02 -8.52036478e-03 -1.31641694e+07],146,746.5991447338268
89,89,[-9.03491004e+03  3.25361651e+02 -8.23263570e-03 -1.31641694e+07],580,746.4892199593387
90,90,[-8.60295090e+03  3.25361560e+02 -8.06699178e-03 -1.31641694e+07],179,747.5219261147973
91,91,[-6.42454054e+03  3.26362657e+02 -5.68366777e-03 -1.31641694e+07],458,746.9538196715574
92,92,[-8.13893518e+03  3.25361772e+02 -8.23834558e-03 -1.31641694e+07],272,745.5997941529814
93,93,[-7.48302683e+03  3.25361595e+02 -7.29169260e-03 -1.31641694e+07],551,746.5829624009634
94,94,[-8.60009091e+03  3.25361611e+02 -8.04396567e-03 -1.31641694e+07],510,746.3096721329034
95,95,[-7.51812143e+03  3.25361759e+02 -7.00538431e-03 -1.31641694e+07],167,747.070604634998
96,96,[-5.48547506e+03  3.27363885e+02 -4.58903851e-03 -1.31641694e+07],153,742.6961248963744
97,97,[-5.31220860e+03  3.29365992e+02 -4.32710772e-03 -1.31641694e+07],317,738.393520723409
98,98,[-6.35948886e+03  3.27363742e+02 -5.00596934e-03 -1.31641694e+07],261,738.4198294874598
99,99,[-8.76139091e+03  3.25361624e+02 -7.53328857e-03 -1.31641694e+07],432,747.1769505077721
100,100,[-5.46721752e+03  3.28364999e+02 -4.39384258e-03 -1.31641694e+07],623,746.3526044081015
101,101,[-7.63793451e+03  3.25361567e+02 -7.19075283e-03 -1.31641694e+07],616,746.600640328095
102,102,[-5.07619095e+03  3.30367634e+02 -4.20697431e-03 -1.31641694e+07],600,747.1623748670844
103,103,[-8.73738131e+03  3.25361586e+02 -8.12843352e-03 -1.31641694e+07],363,747.1718398172694
104,104,[-9.07213564e+03  3.25361663e+02 -8.63173795e-03 -1.31641694e+07],647,746.900057554218
105,105,[-5.75013550e+03  3.27363827e+02 -5.40629293e-03 -1.31641694e+07],513,746.2381572119876
106,106,[-8.15387881e+03  3.24360508e+02 -8.06332317e-03 -1.31641694e+07],546,746.5491244129856
107,107,[-8.77572862e+03  3.25361517e+02 -8.04296103e-03 -1.31641694e+07],669,744.1962211642824
108,108,[-5.53335034e+03  3.28365063e+02 -4.06359185e-03 -1.31641694e+07],502,745.8180163653415
109,109,[-8.22530608e+03  3.25361649e+02 -8.63333737e-03 -1.31641694e+07],427,746.974466013054
110,110,[-7.85729760e+03  3.25361620e+02 -7.60607338e-03 -1.31641694e+07],532,747.5419801005
111,111,[-8.62381180e+03  3.25361566e+02 -7.87217998e-03 -1.31641694e+07],650,746.8736582563022
112,112,[-8.50107052e+03  3.24360423e+02 -7.96322798e-03 -1.31641694e+07],433,747.3753116159546
113,113,[-7.92316641e+03  3.25361687e+02 -7.28919213e-03 -1.31641694e+07],157,745.3700539889987
114,114,[-4.67013674e+03  3.29365997e+02 -4.42307025e-03 -1.31641694e+07],503,744.666578366802
115,115,[-6.44633632e+03  3.26362647e+02 -5.67009864e-03 -1.31641694e+07],581,744.7759845689245
116,116,[-6.75117577e+03  3.26362717e+02 -5.78849943e-03 -1.31641694e+07],411,747.1935387886207
117,117,[-5.96160920e+03  3.27363762e+02 -5.06095386e-03 -1.31641694e+07],495,746.2598498265306
118,118,[-5.92434734e+03  3.27363851e+02 -5.43292394e-03 -1.31641694e+07],704,742.9946228232303
119,119,[-7.70782371e+03  3.25361554e+02 -6.76104428e-03 -1.31641694e+07],297,746.238436772897
120,120,[-9.02388519e+03  3.25361514e+02 -8.19519678e-03 -1.31641694e+07],166,746.5436293151814
121,121,[-8.32572947e+03  3.24360455e+02 -8.41225466e-03 -1.31641694e+07],310,746.0600299595347
122,122,[-5.96626898e+03  3.27363811e+02 -5.35427124e-03 -1.31641694e+07],170,746.7459850045756
123,123,[-7.91125718e+03  3.25361515e+02 -6.52934362e-03 -1.31641694e+07],736,747.9590468747434
124,124,[-8.84742107e+03  3.25361515e+02 -8.63575589e-03 -1.31641694e+07],257,743.8034139866892
125,125,[-8.29736646e+03  3.25361571e+02 -8.53624238e-03 -1.31641694e+07],628,745.9299025405915
126,126,[-6.55492949e+03  3.26362694e+02 -5.76755297e-03 -1.31641694e+07],573,747.3705476885522
127,127,[-7.77479995e+03  3.25361570e+02 -7.06304740e-03 -1.31641694e+07],309,743.5250256034387
128,128,[-8.89313042e+03  3.25361595e+02 -7.95318992e-03 -1.31641694e+07],605,747.9388435151744
129,129,[-4.98513028e+03  3.30367169e+02 -4.17698686e-03 -1.31641694e+07],360,747.887918978885
130,130,[-8.11945006e+03  3.25361613e+02 -7.41368566e-03 -1.31641694e+07],365,747.3677606511534
131,131,[-5.52867109e+03  3.28365036e+02 -4.31966192e-03 -1.31641694e+07],542,747.9615648033542
132,132,[-1.02382698e+04  3.23359314e+02 -9.50100164e-03 -1.31641694e+07],683,747.5647565487743
133,133,[-7.74624274e+03  3.25361532e+02 -7.43571482e-03 -1.31641694e+07],584,746.4733759659746
134,134,[-5.42406787e+03  3.27363788e+02 -4.68638880e-03 -1.31641694e+07],559,746.0482321775261
135,135,[-5.41781851e+03  3.28364920e+02 -4.34054880e-03 -1.31641694e+07],250,747.5011374339301
136,136,[-9.60576739e+03  3.23359375e+02 -9.80960482e-03 -1.31641694e+07],574,744.3380308860701
137,137,[-5.48675345e+03  3.28364912e+02 -4.29801887e-03 -1.31641694e+07],622,720.4193496335688
138,138,[-5.94839979e+03  3.27363799e+02 -4.17404446e-03 -1.31641694e+07],284,717.0211928480352
139,139,[-5.78195058e+03  3.27363905e+02 -4.52925814e-03 -1.31641694e+07],422,727.095923072929
140,140,[-8.01606038e+03  3.25361573e+02 -7.97943366e-03 -1.31641694e+07],423,736.8929567222849
141,141,[-5.58741301e+03  3.28364864e+02 -4.25360796e-03 -1.31641694e+07],150,744.2309664377461
142,142,[-5.55881063e+03  3.28364884e+02 -4.28923020e-03 -1.31641694e+07],320,747.5486790847632
143,143,[-7.42600522e+03  3.25361529e+02 -7.44205261e-03 -1.31641694e+07],244,747.2052145933305
144,144,[-5.00251506e+03  3.28365040e+02 -4.07288753e-03 -1.31641694e+07],345,744.6766913161127
145,145,[-5.22219933e+03  3.29366357e+02 -4.03640566e-03 -1.31641694e+07],253,747.6406037610495
146,146,[-1.00062361e+04  3.23359291e+02 -1.01906298e-02 -1.31641694e+07],490,748.2630976860537
147,147,[-5.42854745e+03  3.27363752e+02 -4.56972724e-03 -1.31641694e+07],566,742.3358476372454
148,148,[-9.28369472e+03  3.24360460e+02 -9.32319339e-03 -1.31641694e+07],259,748.5262961032146
149,149,[-7.59463530e+03  3.25361599e+02 -6.94875377e-03 -1.31641694e+07],556,748.3453800586641
150,150,[-8.51900283e+03  3.25361774e+02 -8.39560888e-03 -1.31641694e+07],131,747.9875150500468
151,151,[-7.41396878e+03  3.25361643e+02 -7.23291888e-03 -1.31641694e+07],123,746.7643994419689
152,152,[-7.44762808e+03  3.25361627e+02 -7.51611451e-03 -1.31641694e+07],361,745.2426317356109
153,153,[-8.08813077e+03  3.25361540e+02 -7.55399056e-03 -1.31641694e+07],443,748.2087184970217
154,154,[-5.55563460e+03  3.27363742e+02 -4.40401712e-03 -1.31641694e+07],558,748.3632524264299
155,155,[-7.59797795e+03  3.25361574e+02 -7.01961958e-03 -1.31641694e+07],407,746.6261361329705
156,156,[-5.71725921e+03  3.27363754e+02 -4.89256820e-03 -1.31641694e+07],128,747.6267408770277
157,157,[-8.83704445e+03  3.25361607e+02 -8.40189958e-03 -1.31641694e+07],553,748.1167504510164
158,158,[-8.64071000e+03  3.25361522e+02 -8.36375413e-03 -1.31641694e+07],554,747.8182649970812
159,159,[-6.37551718e+03  3.26362771e+02 -5.62728861e-03 -1.31641694e+07],457,746.5015882940588
160,160,[-6.50245104e+03  3.26362664e+02 -6.16098192e-03 -1.31641694e+07],541,746.2959844660941
161,161,[-5.60374170e+03  3.28364924e+02 -4.27090691e-03 -1.31641694e+07],613,747.367629615337
162,162,[-8.81383557e+03  3.25361556e+02 -8.10335888e-03 -1.31641694e+07],589,746.4940967101865
163,163,[-8.69169946e+03  3.25361604e+02 -8.30753633e-03 -1.31641694e+07],620,746.9538944779757
164,164,[-5.54056879e+03  3.27363739e+02 -4.71459424e-03 -1.31641694e+07],593,746.9715862884027
165,165,[-6.58128939e+03  3.26362637e+02 -5.92751984e-03 -1.31641694e+07],246,747.5515822470031
166,166,[-7.63965611e+03  3.25361692e+02 -7.28405317e-03 -1.31641694e+07],318,748.0843955632013
167,167,[-5.84221123e+03  3.27363846e+02 -4.53537708e-03 -1.31641694e+07],453,748.2165902591196
168,168,[-7.98386427e+03  3.25361657e+02 -7.64336449e-03 -1.31641694e+07],441,746.9833513872941
169,169,[-5.41605766e+03  3.27363869e+02 -5.01593232e-03 -1.31641694e+07],449,747.656568344961
170,170,[-6.10701756e+03  3.27363838e+02 -5.37297898e-03 -1.31641694e+07],588,748.0824542797728
171,171,[-7.96427205e+03  3.25361539e+02 -7.56289210e-03 -1.31641694e+07],543,746.5463848010872
172,172,[-6.52575551e+03  3.26362667e+02 -5.60536941e-03 -1.31641694e+07],321,747.4252620021573
173,173,[-5.07286256e+03  3.28364934e+02 -4.70162242e-03 -1.31641694e+07],444,742.524056048252
174,174,[-4.82650064e+03  3.29365981e+02 -4.27774586e-03 -1.31641694e+07],446,746.9568143661285
175,175,[-5.58723118e+03  3.28364957e+02 -4.21003342e-03 -1.31641694e+07],129,747.8810142325872
176,176,[-5.16178467e+03  3.29366187e+02 -4.34285488e-03 -1.31641694e+07],660,747.1812649221298
177,177,[-8.43242559e+03  3.25361542e+02 -7.43091129e-03 -1.31641694e+07],737,747.7608842165541
178,178,[-7.52864744e+03  3.25361536e+02 -7.19464550e-03 -1.31641694e+07],555,747.2269798768193
179,179,[-7.67274909e+03  3.25361526e+02 -6.67821701e-03 -1.31641694e+07],175,748.2588834590262
180,180,[-7.37369184e+03  3.26362652e+02 -5.84878232e-03 -1.31641694e+07],726,746.9591051926066
181,181,[-8.63051448e+03  3.25361628e+02 -8.23385036e-03 -1.31641694e+07],572,747.848662570129
182,182,[-8.66866471e+03  3.25361588e+02 -8.49358517e-03 -1.31641694e+07],590,746.3787863832713
183,183,[-6.21963393e+03  3.26362732e+02 -5.83729904e-03 -1.31641694e+07],668,743.3552083878019
184,184,[-7.43567816e+03  3.25361529e+02 -7.36596377e-03 -1.31641694e+07],192,745.4782016834185
185,185,[-8.62129243e+03  3.24360437e+02 -8.61374254e-03 -1.31641694e+07],278,747.6226689090373
186,186,[-7.52474265e+03  3.25361549e+02 -7.40449363e-03 -1.31641694e+07],352,746.1463518747311
187,187,[-6.42560084e+03  3.26362724e+02 -5.99620002e-03 -1.31641694e+07],181,745.4468065580951
188,188,[-5.66670899e+03  3.27363853e+02 -4.86116959e-03 -1.31641694e+07],618,747.6344139363183
189,189,[-8.80361893e+03  3.25361649e+02 -8.24986044e-03 -1.31641694e+07],379,746.5076077896861
190,190,[-8.73812454e+03  3.25361543e+02 -8.34211238e-03 -1.31641694e+07],209,745.6831189784506
191,191,[-8.27358687e+03  3.24360403e+02 -8.62877767e-03 -1.31641694e+07],296,746.099231749746
192,192,[-7.53377504e+03  3.25361578e+02 -6.75403314e-03 -1.31641694e+07],400,747.8621913593032
193,193,[-8.84756564e+03  3.25361579e+02 -8.39249106e-03 -1.31641694e+07],597,747.7547268791338
194,194,[-5.39282490e+03  3.28364862e+02 -4.30311762e-03 -1.31641694e+07],477,747.0223793154302
195,195,[-8.68738452e+03  3.24360419e+02 -9.35098808e-03 -1.31641694e+07],158,745.0905973909045
196,196,[-1.02148818e+04  3.24360566e+02 -9.48147514e-03 -1.31641694e+07],301,740.2191894862684
197,197,[-5.45560262e+03  3.28364927e+02 -4.08312752e-03 -1.31641694e+07],412,746.5428936945272
198,198,[-8.10292928e+03  3.25361659e+02 -8.91606616e-03 -1.31641694e+07],366,746.5295464777298
199,199,[-8.21887962e+03  3.24360595e+02 -8.51888817e-03 -1.31641694e+07],468,745.416458194496
200,200,[-6.47135035e+03  3.26362677e+02 -5.61398830e-03 -1.31641694e+07],673,747.2290669038521
201,201,[-6.41465749e+03  3.26362677e+02 -5.36677330e-03 -1.31641694e+07],405,746.7794241849879
202,202,[-8.53900650e+03  3.24360416e+02 -8.26398401e-03 -1.31641694e+07],384,747.2560704742062
203,203,[-5.59099339e+03  3.27363883e+02 -4.75373406e-03 -1.31641694e+07],494,747.3302697697621
204,204,[-5.42166369e+03  3.27363748e+02 -4.90353054e-03 -1.31641694e+07],619,746.4150412797213
205,205,[-5.21330780e+03  3.29366002e+02 -4.34564371e-03 -1.31641694e+07],625,747.7271719998099
206,206,[-8.22542969e+03  3.25361788e+02 -8.39822378e-03 -1.31641694e+07],208,747.750602241484
207,207,[-7.18649186e+03  3.25361529e+02 -6.76007148e-03 -1.31641694e+07],262,747.6620533292896
208,208,[-5.03188871e+03  3.28364957e+02 -4.41723448e-03 -1.31641694e+07],234,747.7881355548456
209,209,[-8.11164632e+03  3.25361534e+02 -6.86658680e-03 -1.31641694e+07],302,747.8342005274897
210,210,[-7.45248974e+03  3.25361764e+02 -7.31237914e-03 -1.31641694e+07],545,747.6674493855674
211,211,[-7.58804015e+03  3.25361562e+02 -6.91427904e-03 -1.31641694e+07],426,745.9802078136115
212,212,[-7.85454523e+03  3.25361549e+02 -7.90935453e-03 -1.31641694e+07],649,746.6850644635956
213,213,[-5.78471671e+03  3.27363747e+02 -4.47007731e-03 -1.31641694e+07],525,747.3488598455815
214,214,[-8.53746235e+03  3.25361595e+02 -8.85052733e-03 -1.31641694e+07],717,747.6069681985917
215,215,[-5.20513749e+03  3.28364857e+02 -4.67392314e-03 -1.31641694e+07],682,746.663171074377
216,216,[-7.39722059e+03  3.25361531e+02 -7.34639047e-03 -1.31641694e+07],177,743.5940890753697
217,217,[-7.79245796e+03  3.25361522e+02 -6.36830542e-03 -1.31641694e+07],459,742.164021507403
218,218,[-5.51554111e+03  3.28365153e+02 -4.36857614e-03 -1.31641694e+07],393,735.1834375635032
219,219,[-8.01220387e+03  3.25361565e+02 -6.62186093e-03 -1.31641694e+07],193,715.9737851984313
220,220,[-5.49533167e+03  3.28365100e+02 -4.06540758e-03 -1.31641694e+07],455,711.5231627880834
221,221,[-9.23425832e+03  3.24360420e+02 -9.12302059e-03 -1.31641694e+07],206,741.8590285819265
222,222,[-6.98782934e+03  3.25361520e+02 -6.68860243e-03 -1.31641694e+07],697,744.6499375072782
223,223,[-5.16565138e+03  3.29365967e+02 -4.27341549e-03 -1.31641694e+07],621,748.7195951964508
224,224,[-8.81717905e+03  3.25361770e+02 -7.94973555e-03 -1.31641694e+07],45,748.3472965120208
225,225,[-9.92005339e+03  3.23359296e+02 -9.83426815e-03 -1.31641694e+07],727,747.5667627795576
226,226,[-7.35635417e+03  3.25361548e+02 -7.75009719e-03 -1.31641694e+07],205,746.2749533907171
227,227,[-5.28531519e+03  3.27363764e+02 -5.02620250e-03 -1.31641694e+07],252,745.2759351947939
228,228,[-4.94313432e+03  3.29366467e+02 -4.46776134e-03 -1.31641694e+07],332,740.9740886533822
229,229,[-5.81013009e+03  3.27363770e+02 -4.32946779e-03 -1.31641694e+07],651,742.5527490799028
230,230,[-8.08585686e+03  3.25361527e+02 -6.73933972e-03 -1.31641694e+07],247,747.4864489800992
231,231,[-8.02429039e+03  3.24360407e+02 -7.60323514e-03 -1.31641694e+07],577,747.4870904374613
232,232,[-8.82461095e+03  3.24360432e+02 -8.77268313e-03 -1.31641694e+07],333,743.1001525604566
233,233,[-8.15477139e+03  3.25361599e+02 -7.51208492e-03 -1.31641694e+07],489,747.4073053665621
234,234,[-6.82701470e+03  3.26362636e+02 -5.26271760e-03 -1.31641694e+07],488,747.7843065217448
235,235,[-5.66666667e+03  3.27363760e+02 -4.34650497e-03 -1.31641694e+07],721,746.8313146387468
236,236,[-8.12875786e+03  3.25361543e+02 -7.73583175e-03 -1.31641694e+07],364,747.009290642643
237,237,[-5.98942226e+03  3.27363819e+02 -5.45634252e-03 -1.31641694e+07],498,744.769767827653
238,238,[-8.00316812e+03  3.25361592e+02 -7.88897242e-03 -1.31641694e+07],308,746.2768778354883
239,239,[-8.70632472e+03  3.24360404e+02 -9.89619122e-03 -1.31641694e+07],421,746.863320443116
240,240,[-4.82236092e+03  3.29366211e+02 -4.33699725e-03 -1.31641694e+07],210,744.677626985298
241,241,[-8.35130852e+03  3.25361659e+02 -8.32967848e-03 -1.31641694e+07],461,748.5154414544055
242,242,[-5.30818268e+03  3.29366210e+02 -4.30972720e-03 -1.31641694e+07],724,748.9101050746342
243,243,[-5.01361568e+03  3.29366133e+02 -4.53872811e-03 -1.31641694e+07],207,746.3125047356747
244,244,[-8.75740226e+03  3.24360467e+02 -9.43645906e-03 -1.31641694e+07],18,747.9796188921925
245,245,[-8.02838995e+03  3.25361570e+02 -6.71984310e-03 -1.31641694e+07],169,747.4040244320532
246,246,[-8.58866895e+03  3.24360412e+02 -8.30190722e-03 -1.31641694e+07],504,747.9230524380604
247,247,[-5.45325981e+03  3.27364082e+02 -5.32304508e-03 -1.31641694e+07],569,747.7000054142638
248,248,[-5.18164674e+03  3.28364914e+02 -4.99363940e-03 -1.31641694e+07],692,743.1946239829991
249,249,[-7.54328981e+03  3.25361711e+02 -7.56300102e-03 -1.31641694e+07],145,747.0369703496797
250,250,[-8.23303314e+03  3.25361566e+02 -6.68902275e-03 -1.31641694e+07],450,748.0092508759014
251,251,[-9.27926808e+03  3.23359289e+02 -1.06493420e-02 -1.31641694e+07],188,746.524692279808
252,252,[-7.47640775e+03  3.25361524e+02 -7.21051448e-03 -1.31641694e+07],156,747.7238728608646
253,253,[-8.09022856e+03  3.24360405e+02 -7.65797177e-03 -1.31641694e+07],185,747.9783138624015
254,254,[-7.87976006e+03  3.25361775e+02 -7.68078545e-03 -1.31641694e+07],518,748.5038073371978
255,255,[-7.72417015e+03  3.25361525e+02 -7.08583473e-03 -1.31641694e+07],456,746.6635683479051
256,256,[-6.11366988e+03  3.27363887e+02 -6.66911424e-03 -1.31641694e+07],583,746.4974035427756
257,257,[-6.46709796e+03  3.26362783e+02 -5.56891581e-03 -1.31641694e+07],322,748.0647078289738
258,258,[-8.32862634e+03  3.25361581e+02 -7.51082227e-03 -1.31641694e+07],436,748.3820787358586
259,259,[-1.04629792e+04  3.23359296e+02 -1.01069523e-02 -1.31641694e+07],214,747.9678121915806
260,260,[-5.32171299e+03  3.27363758e+02 -4.51608157e-03 -1.31641694e+07],466,748.6387994102931
261,261,[-7.74082393e+03  3.25361523e+02 -6.84462879e-03 -1.31641694e+07],533,748.1938763885838
262,262,[-8.19603338e+03  3.25361691e+02 -8.01155758e-03 -1.31641694e+07],549,747.7865083562555
263,263,[-8.49557211e+03  3.24360428e+02 -7.65379259e-03 -1.31641694e+07],290,747.0349219093965
264,264,[-7.73523480e+03  3.25361627e+02 -7.59334724e-03 -1.31641694e+07],392,746.2933653050701
265,265,[-9.22626829e+03  3.23359289e+02 -1.05374968e-02 -1.31641694e+07],627,746.7961200090441
266,266,[-6.30966188e+03  3.25361564e+02 -7.13369473e-03 -1.31641694e+07],517,744.4173335454254
267,267,[-4.96860065e+03  3.28364909e+02 -4.50527217e-03 -1.31641694e+07],439,739.2400572024227
268,268,[-9.52290328e+03  3.24360407e+02 -8.61155237e-03 -1.31641694e+07],693,744.8150922377049
269,269,[-6.56023612e+03  3.26362785e+02 -5.42573673e-03 -1.31641694e+07],438,747.2023345725866
270,270,[-5.43823488e+03  3.27363882e+02 -5.17783770e-03 -1.31641694e+07],484,746.6425685716299
271,271,[-8.12210247e+03  3.24360402e+02 -7.80182614e-03 -1.31641694e+07],225,748.560881479294
272,272,[-7.74456772e+03  3.25361518e+02 -6.79282551e-03 -1.31641694e+07],132,748.2312690755844
273,273,[-7.74325577e+03  3.25361542e+02 -7.78838337e-03 -1.31641694e+07],362,746.1683150548897
274,274,[-5.08693923e+03  3.28364973e+02 -4.95597442e-03 -1.31641694e+07],705,747.3389420085304
275,275,[-4.76154040e+03  3.29366007e+02 -4.43886094e-03 -1.31641694e+07],165,748.2880092752647
276,276,[-6.62178105e+03  3.26362703e+02 -5.67542811e-03 -1.31641694e+07],142,748.5996506453272
277,277,[-6.47207084e+03  3.26362775e+02 -5.95594960e-03 -1.31641694e+07],373,745.3702569915152
278,278,[-5.42849530e+03  3.27363835e+02 -4.65918131e-03 -1.31641694e+07],687,747.8538745180874
279,279,[-6.35957744e+03  3.26362661e+02 -5.80266614e-03 -1.31641694e+07],110,745.1785400453689
280,280,[-6.58779870e+03  3.26362682e+02 -5.73412966e-03 -1.31641694e+07],431,745.689540330556
281,281,[-5.43828947e+03  3.27363931e+02 -5.37946959e-03 -1.31641694e+07],723,745.509363132184
282,282,[-5.13886659e+03  3.28365075e+02 -4.56744332e-03 -1.31641694e+07],633,740.939782292216
283,283,[-5.19307429e+03  3.29365983e+02 -4.25985725e-03 -1.31641694e+07],90,745.3121258378691
284,284,[-6.49827985e+03  3.26362718e+02 -4.95058723e-03 -1.31641694e+07],728,747.9997197599043
285,285,[-5.96621221e+03  3.27363809e+02 -5.01255468e-03 -1.31641694e+07],741,747.3831047139792
286,286,[-5.88803150e+03  3.27363761e+02 -5.00105202e-03 -1.31641694e+07],135,746.4907250199769
287,287,[-8.57046125e+03  3.24360412e+02 -9.35960627e-03 -1.31641694e+07],527,729.792465590545
288,288,[-9.19195989e+03  3.24360434e+02 -8.60877448e-03 -1.31641694e+07],599,731.3420346890329
289,289,[-8.64596417e+03  3.25361655e+02 -7.58760308e-03 -1.31641694e+07],231,738.995747521719
290,290,[-5.78678988e+03  3.27363858e+02 -4.35532841e-03 -1.31641694e+07],230,747.599874844016
291,291,[-8.09163001e+03  3.25361543e+02 -7.50756904e-03 -1.31641694e+07],315,747.3842359592164
292,292,[-7.71591840e+03  3.24360416e+02 -8.22482017e-03 -1.31641694e+07],739,746.2894425598536
293,293,[-5.11771065e+03  3.28365056e+02 -4.56976522e-03 -1.31641694e+07],491,745.6243684606659
294,294,[-5.11521949e+03  3.29366136e+02 -4.17979106e-03 -1.31641694e+07],714,743.5692579144068
295,295,[-9.62790836e+03  3.23359314e+02 -9.71689711e-03 -1.31641694e+07],437,747.3932433768298
296,296,[-8.28042977e+03  3.24360428e+02 -7.75240496e-03 -1.31641694e+07],415,747.8320001917665
297,297,[-5.53328348e+03  3.27363744e+02 -4.58150698e-03 -1.31641694e+07],350,748.0985456185845
298,298,[-6.34856513e+03  3.26362653e+02 -5.85065690e-03 -1.31641694e+07],656,746.4952596885097
299,299,[-6.00949140e+03  3.27363750e+02 -4.97463119e-03 -1.31641694e+07],557,747.2317932258388
300,300,[-7.60899824e+03  3.25361535e+02 -6.47284958e-03 -1.31641694e+07],172,749.0533175125155
301,301,[-5.23607964e+03  3.28365020e+02 -4.49839031e-03 -1.31641694e+07],582,747.8140404117997
302,302,[-7.60455900e+03  3.25361545e+02 -7.03446919e-03 -1.31641694e+07],390,747.7744030486155
303,303,[-7.75124426e+03  3.25361519e+02 -7.85246293e-03 -1.31641694e+07],233,741.0111687195699
304,304,[-7.28566546e+03  3.25361564e+02 -6.50144877e-03 -1.31641694e+07],245,736.7553875548397
305,305,[-7.61759278e+03  3.25361623e+02 -6.50239118e-03 -1.31641694e+07],711,740.2367120223478
306,306,[-5.78222681e+03  3.27363945e+02 -4.32170747e-03 -1.31641694e+07],385,748.2950621871247
307,307,[-7.77163668e+03  3.25361585e+02 -7.09916474e-03 -1.31641694e+07],295,748.4030243194327
308,308,[-6.23850376e+03  3.26362669e+02 -5.68796674e-03 -1.31641694e+07],479,747.6801595025505
309,309,[-7.75154471e+03  3.25361542e+02 -7.19148919e-03 -1.31641694e+07],478,748.0533589516062
310,310,[-6.44565337e+03  3.26362799e+02 -5.77181439e-03 -1.31641694e+07],291,748.0837331702245
311,311,[-8.24949744e+03  3.25361698e+02 -8.03400505e-03 -1.31641694e+07],285,745.7822341614033
312,312,[-5.43596048e+03  3.27363777e+02 -5.28221113e-03 -1.31641694e+07],508,734.9826066359753
313,313,[-7.72537193e+03  3.25361525e+02 -6.85385729e-03 -1.31641694e+07],112,728.7375404334553
314,314,[-8.48619390e+03  3.24360472e+02 -7.64032667e-03 -1.31641694e+07],126,731.0326884886075
315,315,[-9.37223656e+03  3.24360490e+02 -8.61774393e-03 -1.31641694e+07],130,747.4803129126225
316,316,[-8.01249290e+03  3.25361526e+02 -7.39960828e-03 -1.31641694e+07],161,748.7043151879886
317,317,[-5.82828217e+03  3.26362789e+02 -5.36797672e-03 -1.31641694e+07],640,748.2063928042039
318,318,[-9.12156455e+03  3.24360502e+02 -9.62652858e-03 -1.31641694e+07],213,747.9133823635236
319,319,[-8.17897490e+03  3.24360445e+02 -7.78338458e-03 -1.31641694e+07],476,748.4493461094534
320,320,[-7.12976399e+03  3.26362795e+02 -6.83142260e-03 -1.31641694e+07],274,747.9872646003174
321,321,[-5.22641103e+03  3.27363848e+02 -5.11555541e-03 -1.31641694e+07],203,747.8904565304143
322,322,[-8.82802309e+03  3.24360467e+02 -1.01114357e-02 -1.31641694e+07],410,747.6078917294026
323,323,[-8.50492984e+03  3.24360425e+02 -7.56800499e-03 -1.31641694e+07],552,748.6886155586133
324,324,[-8.40726019e+03  3.24360427e+02 -7.90401493e-03 -1.31641694e+07],664,748.6152776895988
325,325,[-7.52488476e+03  3.25361592e+02 -6.64695233e-03 -1.31641694e+07],428,748.6974719914109
326,326,[-7.53550849e+03  3.25361603e+02 -6.53637928e-03 -1.31641694e+07],467,744.7351849440221
327,327,[-7.87784022e+03  3.25361631e+02 -7.05937431e-03 -1.31641694e+07],521,721.9203210611112
328,328,[-8.00741741e+03  3.25361651e+02 -7.59142615e-03 -1.31641694e+07],202,716.4816748746094
329,329,[-8.11292884e+03  3.25361558e+02 -7.22464677e-03 -1.31641694e+07],548,712.7738278624763
330,330,[-8.03539721e+03  3.25361550e+02 -6.47255773e-03 -1.31641694e+07],530,716.5353722278218
331,331,[-8.40235559e+03  3.25361643e+02 -6.67849316e-03 -1.31641694e+07],594,743.5797117591928
332,332,[-8.58111396e+03  3.24360406e+02 -8.10874197e-03 -1.31641694e+07],535,747.7076162907377
333,333,[-6.15319822e+03  3.26362727e+02 -6.57258032e-03 -1.31641694e+07],299,747.6972197376487
334,334,[-8.98345749e+03  3.24360415e+02 -9.44184598e-03 -1.31641694e+07],200,746.6871909188247
335,335,[-1.04848475e+04  3.23359316e+02 -9.97810849e-03 -1.31641694e+07],178,746.8908948259879
336,336,[-5.95343517e+03  3.27363752e+02 -4.94273890e-03 -1.31641694e+07],57,747.1899401775241
337,337,[-7.55911771e+03  3.25361530e+02 -7.03368639e-03 -1.31641694e+07],143,741.155611760422
338,338,[-7.15606362e+03  3.25361555e+02 -6.79879331e-03 -1.31641694e+07],416,729.6605162201022
339,339,[-6.63467832e+03  3.26362723e+02 -5.86969818e-03 -1.31641694e+07],269,724.9130596282246
340,340,[-7.32089516e+03  3.26362784e+02 -6.39033466e-03 -1.31641694e+07],701,732.849579755069
341,341,[-5.34850815e+03  3.27364024e+02 -5.04366624e-03 -1.31641694e+07],116,729.1919565114955
342,342,[-5.82900824e+03  3.27363747e+02 -5.14728366e-03 -1.31641694e+07],336,729.2814068914258
343,343,[-7.64457906e+03  3.25361522e+02 -6.85005560e-03 -1.31641694e+07],52,731.4713535406655
344,344,[-7.68972154e+03  3.25361569e+02 -6.13475456e-03 -1.31641694e+07],176,742.804103229089
345,345,[-8.81689094e+03  3.24360419e+02 -8.60219172e-03 -1.31641694e+07],451,747.9795355328556
346,346,[-8.06943168e+03  3.25361518e+02 -7.36474584e-03 -1.31641694e+07],99,745.9298002891014
347,347,[-7.90921453e+03  3.25361606e+02 -7.50835143e-03 -1.31641694e+07],614,742.250726591051
348,348,[-8.41130841e+03  3.24360426e+02 -8.26007957e-03 -1.31641694e+07],103,737.4173590860445
349,349,[-8.60599749e+03  3.24360464e+02 -7.54648696e-03 -1.31641694e+07],102,743.1754252426732
350,350,[-5.96958986e+03  3.27363830e+02 -5.00108353e-03 -1.31641694e+07],509,747.444597532269
351,351,[-8.16475614e+03  3.24360404e+02 -8.14158479e-03 -1.31641694e+07],659,748.6801140878971
352,352,[-9.10722225e+03  3.24360487e+02 -8.98906989e-03 -1.31641694e+07],671,747.8528526769535
353,353,[-5.68509538e+03  3.26362644e+02 -5.31233573e-03 -1.31641694e+07],529,729.3724168776001
354,354,[-8.34853048e+03  3.25361515e+02 -6.98426945e-03 -1.31641694e+07],501,728.3797070562118
355,355,[-5.91406787e+03  3.27363784e+02 -4.53856690e-03 -1.31641694e+07],13,727.6297142214254
356,356,[-9.31448583e+03  3.24360489e+02 -8.60650908e-03 -1.31641694e+07],612,742.3600197985018
357,357,[-7.95657903e+03  3.25361590e+02 -7.02717322e-03 -1.31641694e+07],691,734.3855390774481
358,358,[-8.55855897e+03  3.24360453e+02 -7.57872500e-03 -1.31641694e+07],661,727.3061883327241
359,359,[-9.94650542e+03  3.23359295e+02 -9.93830219e-03 -1.31641694e+07],95,745.7446548855003
360,360,[-5.88967291e+03  3.27363775e+02 -5.04545854e-03 -1.31641694e+07],742,748.0461574261727
361,361,[-6.02486448e+03  3.26362760e+02 -6.68820740e-03 -1.31641694e+07],595,747.9545049693502
362,362,[-4.96178649e+03  3.29366049e+02 -4.31268422e-03 -1.31641694e+07],746,747.5549098388411
363,363,[-5.11505213e+03  3.28364909e+02 -4.40656087e-03 -1.31641694e+07],674,748.176591046213
364,364,[-9.15245969e+03  3.24360406e+02 -9.85079422e-03 -1.31641694e+07],249,747.6916873514655
365,365,[-6.47384118e+03  3.26362666e+02 -6.08878046e-03 -1.31641694e+07],710,748.0404868625816
366,366,[-9.34968276e+03  3.24360446e+02 -8.60094860e-03 -1.31641694e+07],263,747.8125676309803
367,367,[-7.84902242e+03  3.25361537e+02 -7.10097374e-03 -1.31641694e+07],662,748.3940888731828
368,368,[-8.66133659e+03  3.24360422e+02 -7.99657835e-03 -1.31641694e+07],735,746.6820691971645
369,369,[-4.52786384e+03  3.29366002e+02 -4.57031967e-03 -1.31641694e+07],194,741.177579363436
370,370,[-9.21965853e+03  3.24360467e+02 -8.95022720e-03 -1.31641694e+07],631,734.275470670594
371,371,[-9.65318813e+03  3.23359371e+02 -9.57844571e-03 -1.31641694e+07],19,745.6459245778403
372,372,[-9.11242790e+03  3.24360412e+02 -8.91543723e-03 -1.31641694e+07],236,748.5754663229603
373,373,[-9.29901546e+03  3.23359534e+02 -1.02357728e-02 -1.31641694e+07],698,747.5473871812643
374,374,[-9.18479235e+03  3.23359339e+02 -1.01664187e-02 -1.31641694e+07],730,746.6110447666618
375,375,[-6.47017982e+03  3.26362653e+02 -5.97122332e-03 -1.31641694e+07],168,736.9817829878962
376,376,[-9.77747002e+03  3.24360519e+02 -9.35455909e-03 -1.31641694e+07],684,737.5195374052186
377,377,[-1.00393754e+04  3.23359294e+02 -9.67293572e-03 -1.31641694e+07],391,746.656399881867
378,378,[-8.60259394e+03  3.24360422e+02 -8.89535951e-03 -1.31641694e+07],109,745.0519221471586
379,379,[-5.60572488e+03  3.27363809e+02 -5.62859049e-03 -1.31641694e+07],164,747.8409798457433
380,380,[-6.57281242e+03  3.27363839e+02 -5.94336539e-03 -1.31641694e+07],180,740.0936608152786
381,381,[-7.91212462e+03  3.25361631e+02 -7.02620401e-03 -1.31641694e+07],174,736.1319220533521
382,382,[-8.51692813e+03  3.24360407e+02 -7.79759074e-03 -1.31641694e+07],163,741.5553984510183
383,383,[-9.82600834e+03  3.23359309e+02 -1.01234898e-02 -1.31641694e+07],91,746.8619938224764
384,384,[-9.08528779e+03  3.24360419e+02 -9.02710618e-03 -1.31641694e+07],483,747.7967786403601
385,385,[-7.43274005e+03  3.25361517e+02 -7.04886588e-03 -1.31641694e+07],33,747.3972239792703
386,386,[-4.91569501e+03  3.28364944e+02 -4.45041071e-03 -1.31641694e+07],745,746.8929424844988
387,387,[-8.36177779e+03  3.24360452e+02 -7.66668737e-03 -1.31641694e+07],678,744.516496751243
388,388,[-8.88262866e+03  3.24360404e+02 -8.07230945e-03 -1.31641694e+07],104,746.6743962983783
389,389,[-9.31126447e+03  3.24360480e+02 -8.70803024e-03 -1.31641694e+07],32,748.5375782451616
390,390,[-9.66113595e+03  3.23359306e+02 -1.08975335e-02 -1.31641694e+07],386,747.409814072637
391,391,[-4.65724571e+03  3.29366458e+02 -4.52363388e-03 -1.31641694e+07],335,746.9810578236704
392,392,[-7.90377096e+03  3.25361559e+02 -6.97427151e-03 -1.31641694e+07],487,747.5942200715295
393,393,[-9.42572840e+03  3.24360443e+02 -8.87560660e-03 -1.31641694e+07],111,747.7560673881871
394,394,[-9.85578966e+03  3.23359309e+02 -1.02110214e-02 -1.31641694e+07],239,748.4584061242771
395,395,[-9.04773673e+03  3.24360463e+02 -8.91964854e-03 -1.31641694e+07],383,748.6056246496072
396,396,[-8.47432017e+03  3.24360471e+02 -7.90357217e-03 -1.31641694e+07],41,748.5707527695292
397,397,[-7.34888090e+03  3.25361519e+02 -6.94745204e-03 -1.31641694e+07],235,748.4435881519939
398,398,[-6.87386794e+03  3.25361591e+02 -6.44779024e-03 -1.31641694e+07],538,745.4480507474196
399,399,[-9.58139877e+03  3.23359312e+02 -9.88122844e-03 -1.31641694e+07],725,741.0447015229743
400,400,[-9.29088245e+03  3.24360419e+02 -8.79508057e-03 -1.31641694e+07],265,747.8262663170026
401,401,[-8.53907129e+03  3.24360422e+02 -8.22626576e-03 -1.31641694e+07],452,748.5242255282704
402,402,[-5.76279990e+03  3.27363744e+02 -5.54592260e-03 -1.31641694e+07],571,746.1811977788992
403,403,[-5.23634899e+03  3.27363928e+02 -5.12102230e-03 -1.31641694e+07],201,738.7628728082803
404,404,[-9.49937136e+03  3.24360493e+02 -8.62749779e-03 -1.31641694e+07],563,746.5126598025424
405,405,[-7.75470005e+03  3.25361552e+02 -6.91464996e-03 -1.31641694e+07],151,747.7996367023153
406,406,[-5.35892258e+03  3.27364021e+02 -4.81306601e-03 -1.31641694e+07],688,748.5928474670293
407,407,[-7.52639895e+03  3.25361536e+02 -6.43960637e-03 -1.31641694e+07],122,747.9397686040572
408,408,[-5.76141170e+03  3.27363836e+02 -5.40112534e-03 -1.31641694e+07],596,748.3026135485403
409,409,[-9.17536124e+03  3.24360518e+02 -8.90165400e-03 -1.31641694e+07],31,745.1080624514965
410,410,[-8.02185347e+03  3.25361519e+02 -7.08899022e-03 -1.31641694e+07],485,747.3094620430867
411,411,[-7.66425104e+03  3.25361515e+02 -6.77332542e-03 -1.31641694e+07],511,748.1086518592599
412,412,[-5.75254458e+03  3.26362637e+02 -5.20089489e-03 -1.31641694e+07],672,747.8132782895328
413,413,[-4.69729257e+03  3.28365135e+02 -4.65689286e-03 -1.31641694e+07],636,741.7082925672514
414,414,[-7.45455830e+03  3.25361529e+02 -6.68308658e-03 -1.31641694e+07],658,738.9470656377448
415,415,[-7.81869980e+03  3.25361543e+02 -6.60265331e-03 -1.31641694e+07],417,747.4481362053456
416,416,[-9.68067560e+03  3.23359316e+02 -1.01723266e-02 -1.31641694e+07],334,747.2038013893683
417,417,[-8.66705858e+03  3.24360409e+02 -8.98819834e-03 -1.31641694e+07],212,746.6880154780113
418,418,[-6.51295424e+03  3.25361549e+02 -6.77617907e-03 -1.31641694e+07],368,744.3340833924487
419,419,[-4.72085573e+03  3.29366070e+02 -4.55579734e-03 -1.31641694e+07],14,735.9718515220405
420,420,[-8.01014118e+03  3.25361560e+02 -7.10256562e-03 -1.31641694e+07],388,740.5932681142373
421,421,[-7.92437501e+03  3.25361516e+02 -6.83547953e-03 -1.31641694e+07],255,747.6800475277141
422,422,[-7.86148029e+03  3.25361517e+02 -7.13457453e-03 -1.31641694e+07],215,747.9990759640234
423,423,[-9.09102934e+03  3.24360467e+02 -8.90260252e-03 -1.31641694e+07],377,747.9906632401368
424,424,[-5.19621238e+03  3.27363870e+02 -4.62993949e-03 -1.31641694e+07],270,748.3480826469421
425,425,[-8.30539267e+03  3.24360419e+02 -7.63829956e-03 -1.31641694e+07],155,744.4350695720457
426,426,[-7.55781073e+03  3.25361513e+02 -6.76044189e-03 -1.31641694e+07],30,747.771945090302
427,427,[-7.74013088e+03  3.25361520e+02 -7.10300547e-03 -1.31641694e+07],539,748.130029722402
428,428,[-5.36728317e+03  3.27363740e+02 -4.71647626e-03 -1.31641694e+07],84,747.2882555568507
429,429,[-4.77897139e+03  3.29366080e+02 -4.51433713e-03 -1.31641694e+07],374,744.7816492109292
430,430,[-9.85527437e+03  3.23359299e+02 -1.00008335e-02 -1.31641694e+07],665,737.5381926553589
431,431,[-7.81443867e+03  3.25361564e+02 -6.85990123e-03 -1.31641694e+07],25,747.5351370864747
432,432,[-9.91890595e+03  3.23359320e+02 -1.06887827e-02 -1.31641694e+07],101,748.1891387093334
433,433,[-4.98390840e+03  3.28364952e+02 -4.47810223e-03 -1.31641694e+07],712,748.1226187759264
434,434,[-8.24063878e+03  3.25361591e+02 -7.22235401e-03 -1.31641694e+07],88,748.4782692465684
435,435,[-7.18490556e+03  3.26362645e+02 -6.05711869e-03 -1.31641694e+07],93,748.310625775975
436,436,[-9.42097408e+03  3.24360493e+02 -9.60163519e-03 -1.31641694e+07],738,747.6076592806645
437,437,[-7.18654008e+03  3.25361576e+02 -6.69274375e-03 -1.31641694e+07],106,747.4501252717918
438,438,[-5.54888415e+03  3.28364993e+02 -4.49927122e-03 -1.31641694e+07],171,747.5708826358873
439,439,[-7.25560658e+03  3.26362637e+02 -5.49321693e-03 -1.31641694e+07],606,747.577201047882
440,440,[-5.69416641e+03  3.28365093e+02 -4.39797881e-03 -1.31641694e+07],120,748.5383677887386
441,441,[-5.59473901e+03  3.28365047e+02 -4.44544276e-03 -1.31641694e+07],197,747.9082606212133
442,442,[-7.32466987e+03  3.25361574e+02 -6.64275011e-03 -1.31641694e+07],709,748.2690185939653
443,443,[-5.55140187e+03  3.28364866e+02 -4.39953981e-03 -1.31641694e+07],198,747.9460374454101
444,444,[-9.06567891e+03  3.25361573e+02 -8.77767093e-03 -1.31641694e+07],251,747.8902945568692
445,445,[-7.89838875e+03  3.25361534e+02 -7.72486297e-03 -1.31641694e+07],404,748.596316037507
446,446,[-6.85955464e+03  3.26362632e+02 -6.25463592e-03 -1.31641694e+07],544,747.8888814161638
447,447,[-7.93865937e+03  3.25361540e+02 -7.34256140e-03 -1.31641694e+07],189,748.351087408993
448,448,[-1.02915039e+04  3.23359330e+02 -1.06100329e-02 -1.31641694e+07],159,749.1019774499113
449,449,[-7.14017998e+03  3.26362830e+02 -5.69365025e-03 -1.31641694e+07],520,747.8979368678928
450,450,[-7.13686853e+03  3.26362656e+02 -5.88556528e-03 -1.31641694e+07],256,747.6400502810563
451,451,[-7.26276141e+03  3.25361530e+02 -6.51613581e-03 -1.31641694e+07],298,747.180777009423
452,452,[-8.38142150e+03  3.25361515e+02 -7.49518655e-03 -1.31641694e+07],162,746.7945041586368
453,453,[-1.00531081e+04  3.24360494e+02 -1.05318305e-02 -1.31641694e+07],286,747.908612666252
454,454,[-7.19674478e+03  3.26362661e+02 -5.98656156e-03 -1.31641694e+07],681,748.8328909449045
455,455,[-5.15418738e+03  3.29366186e+02 -4.49206571e-03 -1.31641694e+07],89,747.7533180358696
456,456,[-7.55198990e+03  3.25361517e+02 -6.89684372e-03 -1.31641694e+07],26,747.6164284271845
457,457,[-7.44253702e+03  3.25361518e+02 -6.73471306e-03 -1.31641694e+07],77,747.9345020989145
458,458,[-7.29110391e+03  3.26362653e+02 -5.89816230e-03 -1.31641694e+07],133,748.2552141972008
459,459,[-7.10042520e+03  3.26362664e+02 -5.61193587e-03 -1.31641694e+07],474,747.7603656026102
460,460,[-5.08262324e+03  3.30367093e+02 -4.62678274e-03 -1.31641694e+07],204,748.4716111056019
461,461,[-6.72971682e+03  3.26362632e+02 -6.08791965e-03 -1.31641694e+07],585,747.6656332154137
462,462,[-7.82402319e+03  3.25361549e+02 -7.07155163e-03 -1.31641694e+07],750,745.955091960995
463,463,[-8.25820842e+03  3.25361613e+02 -6.70912493e-03 -1.31641694e+07],182,740.5901710266994
464,464,[-7.29153628e+03  3.26362708e+02 -5.45111969e-03 -1.31641694e+07],63,743.2158092677142
465,465,[-8.37858874e+03  3.25361515e+02 -7.01306737e-03 -1.31641694e+07],44,748.5276915417552
466,466,[-5.09254915e+03  3.29366066e+02 -4.58978835e-03 -1.31641694e+07],732,747.6055326331949
467,467,[-8.35784132e+03  3.25361558e+02 -7.18358321e-03 -1.31641694e+07],20,747.2814432781497
468,468,[-7.97387426e+03  3.25361546e+02 -8.12804880e-03 -1.31641694e+07],644,747.8067912985033
469,469,[-9.68436396e+03  3.24360447e+02 -8.78652550e-03 -1.31641694e+07],100,732.6466958782421
470,470,[-8.28551387e+03  3.25361599e+02 -6.83755484e-03 -1.31641694e+07],473,717.102316699183
471,471,[-7.56970548e+03  3.25361550e+02 -6.83594166e-03 -1.31641694e+07],50,725.5540074169495
472,472,[-8.44614933e+03  3.25361536e+02 -7.35990557e-03 -1.31641694e+07],567,741.5776736728172
473,473,[-7.41076564e+03  3.26362634e+02 -5.99632352e-03 -1.31641694e+07],243,746.3465617251419
474,474,[-7.09666303e+03  3.26362680e+02 -5.53341901e-03 -1.31641694e+07],512,746.4604726292156
475,475,[-7.79361812e+03  3.25361532e+02 -7.36014077e-03 -1.31641694e+07],94,748.282173169807
476,476,[-8.01976608e+03  3.25361547e+02 -6.84144025e-03 -1.31641694e+07],160,747.3459513166307
477,477,[-7.43978827e+03  3.26362780e+02 -5.66069151e-03 -1.31641694e+07],9,747.8197526242858
478,478,[-9.16263141e+03  3.25361686e+02 -7.76714132e-03 -1.31641694e+07],264,747.3851415963227
479,479,[-6.42264104e+03  3.26362631e+02 -5.02367075e-03 -1.31641694e+07],615,747.3855452637172
480,480,[-8.05970173e+03  3.25361588e+02 -8.11394232e-03 -1.31641694e+07],292,739.5584273113383
481,481,[-5.55202692e+03  3.28364947e+02 -4.38480530e-03 -1.31641694e+07],642,733.3463271935386
482,482,[-9.57939724e+03  3.24360574e+02 -8.49745295e-03 -1.31641694e+07],238,743.1547857126799
483,483,[-7.08371764e+03  3.26362629e+02 -5.63287010e-03 -1.31641694e+07],226,746.9504163703615
484,484,[-7.93104543e+03  3.25361529e+02 -6.62454799e-03 -1.31641694e+07],85,747.568228934251
485,485,[-6.63846793e+03  3.26362677e+02 -6.15785994e-03 -1.31641694e+07],117,746.7151568256631
486,486,[-8.24319938e+03  3.25361615e+02 -7.10488547e-03 -1.31641694e+07],733,744.7325035277158
487,487,[-8.08853011e+03  3.25361518e+02 -6.21808299e-03 -1.31641694e+07],685,746.8899220462143
488,488,[-5.27762980e+03  3.29366487e+02 -4.46234180e-03 -1.31641694e+07],58,747.6938960085512
489,489,[-7.98748695e+03  3.25361528e+02 -7.57342766e-03 -1.31641694e+07],675,747.6968947326112
490,490,[-6.98858630e+03  3.26362642e+02 -5.86538021e-03 -1.31641694e+07],119,747.9768973914
491,491,[-7.91302370e+03  3.25361527e+02 -7.41497553e-03 -1.31641694e+07],105,747.4739364108158
492,492,[-6.82013403e+03  3.26362631e+02 -6.19085459e-03 -1.31641694e+07],679,748.503426139644
493,493,[-8.15343403e+03  3.25361526e+02 -6.92564805e-03 -1.31641694e+07],611,748.7444539803203
494,494,[-8.57093795e+03  3.24360414e+02 -7.89403504e-03 -1.31641694e+07],699,747.7914586025795
495,495,[-7.96722966e+03  3.25361524e+02 -6.80130410e-03 -1.31641694e+07],655,748.1036730750219
496,496,[-8.05550516e+03  3.25361518e+02 -7.70226667e-03 -1.31641694e+07],53,738.6460428148877
497,497,[-7.38741637e+03  3.26362638e+02 -6.19286668e-03 -1.31641694e+07],402,742.1199017928482
498,498,[-7.20934856e+03  3.26362652e+02 -5.79980417e-03 -1.31641694e+07],273,747.6802124049098
499,499,[-7.43740263e+03  3.26362763e+02 -5.99924453e-03 -1.31641694e+07],634,748.3601291802213
500,500,[-7.76790809e+03  3.25361545e+02 -6.77391073e-03 -1.31641694e+07],186,748.5942470484749
501,501,[-7.24867448e+03  3.25361610e+02 -6.48963887e-03 -1.31641694e+07],689,747.1004004187782
502,502,[-8.37008940e+03  3.25361529e+02 -7.22202228e-03 -1.31641694e+07],191,748.1323343049207
503,503,[-8.38755823e+03  3.25361521e+02 -7.20051053e-03 -1.31641694e+07],46,748.1148863168967
504,504,[-9.87224777e+03  3.23359385e+02 -1.01146134e-02 -1.31641694e+07],121,747.6563535287472
505,505,[-7.57291445e+03  3.25361524e+02 -6.79271581e-03 -1.31641694e+07],134,748.5227488996815
506,506,[-8.42957382e+03  3.24360433e+02 -7.97509115e-03 -1.31641694e+07],1,741.565525947776
507,507,[-5.46638680e+03  3.28365125e+02 -4.53072575e-03 -1.31641694e+07],211,737.4713541555483
508,508,[-9.86852546e+03  3.24360565e+02 -9.39503305e-03 -1.31641694e+07],17,747.3819326920653
509,509,[-8.61598823e+03  3.24360419e+02 -7.66052116e-03 -1.31641694e+07],462,747.117787790097
510,510,[-5.45914144e+03  3.28364888e+02 -4.55400910e-03 -1.31641694e+07],610,748.2201343069516
511,511,[-8.52892748e+03  3.24360403e+02 -8.99684868e-03 -1.31641694e+07],706,746.71320154795
512,512,[-7.66138298e+03  3.25361538e+02 -7.71393903e-03 -1.31641694e+07],657,746.3121683914422
513,513,[-8.41501939e+03  3.25361577e+02 -7.34286567e-03 -1.31641694e+07],125,748.1517439758856
514,514,[-8.57619379e+03  3.25361549e+02 -7.47730199e-03 -1.31641694e+07],346,748.3237455460953
515,515,[-8.63021951e+03  3.24360407e+02 -8.25066369e-03 -1.31641694e+07],534,748.6219593369727
516,516,[-8.06461856e+03  3.25361521e+02 -6.84035786e-03 -1.31641694e+07],667,748.5320210661125
517,517,[-8.23981307e+03  3.25361545e+02 -7.65174264e-03 -1.31641694e+07],695,747.5779168082742
518,518,[-7.71801259e+03  3.25361660e+02 -7.06556122e-03 -1.31641694e+07],587,747.6194315369935
519,519,[-8.33924690e+03  3.25361527e+02 -6.90999333e-03 -1.31641694e+07],2,744.0766757314364
520,520,[-7.10937960e+03  3.26362718e+02 -6.00079829e-03 -1.31641694e+07],108,746.4997166156833
521,521,[-5.86289777e+03  3.27363974e+02 -4.57192842e-03 -1.31641694e+07],311,747.2727847570608
522,522,[-7.70416821e+03  3.25361530e+02 -7.23330940e-03 -1.31641694e+07],715,748.6083713105048
523,523,[-7.32995986e+03  3.25361524e+02 -6.67991832e-03 -1.31641694e+07],643,748.3350580580632
524,524,[-8.18786557e+03  3.25361560e+02 -7.04266840e-03 -1.31641694e+07],635,748.350829006499
525,525,[-8.30806446e+03  3.25361532e+02 -8.48519526e-03 -1.31641694e+07],359,747.7688995517321
526,526,[-7.83403210e+03  3.25361557e+02 -6.67005606e-03 -1.31641694e+07],707,748.5061852320374
527,527,[-6.29532551e+03  3.26362834e+02 -5.50952271e-03 -1.31641694e+07],731,747.499865932619
528,528,[-8.17250036e+03  3.25361638e+02 -8.31454699e-03 -1.31641694e+07],11,748.2838915978743
529,529,[-5.68098992e+03  3.28364889e+02 -4.75529545e-03 -1.31641694e+07],280,747.1068232969496
530,530,[-5.83480994e+03  3.26362737e+02 -5.75555979e-03 -1.31641694e+07],686,747.2500733628706
531,531,[-7.17737636e+03  3.26362633e+02 -5.80252870e-03 -1.31641694e+07],190,748.6039102271675
532,532,[-7.22996213e+03  3.26362654e+02 -6.03147957e-03 -1.31641694e+07],16,748.127753335378
533,533,[-5.69057688e+03  3.27363940e+02 -4.54007500e-03 -1.31641694e+07],702,747.6046527068772
534,534,[-6.99620492e+03  3.26362653e+02 -6.42633442e-03 -1.31641694e+07],371,745.9297031833764
535,535,[-7.91700791e+03  3.24360589e+02 -8.32134738e-03 -1.31641694e+07],694,747.2347774598933
536,536,[-6.80307404e+03  3.26362676e+02 -6.50974720e-03 -1.31641694e+07],293,748.4168287723959
537,537,[-9.09910099e+03  3.24360453e+02 -8.00799177e-03 -1.31641694e+07],540,748.4098382036912
538,538,[-5.73898626e+03  3.27363748e+02 -4.55459241e-03 -1.31641694e+07],92,746.8116800657076
539,539,[-8.27601545e+03  3.25361517e+02 -7.37388320e-03 -1.31641694e+07],586,746.6203581752588
540,540,[-6.67556787e+03  3.26362642e+02 -6.50655055e-03 -1.31641694e+07],10,745.6049983465309
541,541,[-8.18327366e+03  3.24360431e+02 -7.92090018e-03 -1.31641694e+07],281,747.9344951642377
542,542,[-5.60218024e+03  3.28364903e+02 -4.57790512e-03 -1.31641694e+07],719,748.0314040806635
543,543,[-5.75100158e+03  3.27363822e+02 -4.62323711e-03 -1.31641694e+07],184,747.8923408106522
544,544,[-8.41049020e+03  3.24360406e+02 -8.48947950e-03 -1.31641694e+07],734,746.5124724220435
545,545,[-8.11944623e+03  3.25361528e+02 -7.60630797e-03 -1.31641694e+07],78,747.7736101786685
546,546,[-8.60099957e+03  3.25361557e+02 -7.34527331e-03 -1.31641694e+07],729,748.1452587590642
547,547,[-8.22616717e+03  3.25361557e+02 -6.99202936e-03 -1.31641694e+07],748,748.8692914585162
548,548,[-5.62437905e+03  3.28364856e+02 -4.61901596e-03 -1.31641694e+07],708,747.2542651292015
549,549,[-7.35427059e+03  3.25361613e+02 -8.10462669e-03 -1.31641694e+07],398,747.6043507052599
550,550,[-6.83055326e+03  3.26363021e+02 -6.30941297e-03 -1.31641694e+07],187,742.5916955222992
551,551,[-8.54012493e+03  3.25361569e+02 -7.24130585e-03 -1.31641694e+07],51,748.229564852286
552,552,[-7.14036862e+03  3.26362807e+02 -5.88235287e-03 -1.31641694e+07],648,747.3029614778211
553,553,[-7.69353963e+03  3.25361532e+02 -7.16968750e-03 -1.31641694e+07],199,747.9377828379671
554,554,[-5.15094083e+03  3.29366029e+02 -4.66468988e-03 -1.31641694e+07],47,747.9351815688696
555,555,[-7.30380880e+03  3.26362718e+02 -6.03652276e-03 -1.31641694e+07],666,747.8811423832885
556,556,[-8.18010268e+03  3.25361520e+02 -7.14743671e-03 -1.31641694e+07],277,747.9623862489155
557,557,[-8.52497736e+03  3.24360443e+02 -8.25249981e-03 -1.31641694e+07],113,747.4258876932236
558,558,[-7.45042837e+03  3.25361563e+02 -7.19040010e-03 -1.31641694e+07],578,747.9404220128845
559,559,[-8.79274741e+03  3.24360417e+02 -7.82905888e-03 -1.31641694e+07],663,748.0109810718328
560,560,[-7.88838841e+03  3.25361531e+02 -6.82000897e-03 -1.31641694e+07],27,748.5339273250027
561,561,[-8.19713655e+03  3.25361600e+02 -7.29286705e-03 -1.31641694e+07],283,748.4105496868694
562,562,[-9.23868556e+03  3.24360502e+02 -9.01443273e-03 -1.31641694e+07],34,748.2976473417589
563,563,[-8.24403221e+03  3.25361535e+02 -8.04870181e-03 -1.31641694e+07],227,746.7651286220878
564,564,[-8.97730316e+03  3.24360490e+02 -8.87073535e-03 -1.31641694e+07],152,743.6074186227676
565,565,[-7.97503619e+03  3.25361531e+02 -6.91659537e-03 -1.31641694e+07],677,748.4215605990959
566,566,[-8.30043538e+03  3.25361517e+02 -7.10810447e-03 -1.31641694e+07],79,747.9766228102967
567,567,[-8.20738154e+03  3.25361543e+02 -7.35207250e-03 -1.31641694e+07],279,746.3306223712794
568,568,[-6.04613622e+03  3.26362639e+02 -5.63393121e-03 -1.31641694e+07],652,748.2906873737252
569,569,[-6.09890462e+03  3.27363815e+02 -4.76521184e-03 -1.31641694e+07],40,747.6457386512394
570,570,[-8.69333986e+03  3.24360461e+02 -8.40971526e-03 -1.31641694e+07],4,748.6316884818434
571,571,[-7.90012572e+03  3.25361529e+02 -7.67435889e-03 -1.31641694e+07],409,746.7816287434058
572,572,[-5.77104329e+03  3.27363767e+02 -5.81205198e-03 -1.31641694e+07],749,747.8798401242846
573,573,[-7.33578244e+03  3.25361547e+02 -6.45679488e-03 -1.31641694e+07],22,748.0632438425813
574,574,[-7.98710248e+03  3.25361551e+02 -6.64705914e-03 -1.31641694e+07],195,748.0031236331707
575,575,[-8.79210225e+03  3.24360431e+02 -8.21693099e-03 -1.31641694e+07],378,748.3243843964011
576,576,[-6.52952088e+03  3.26362639e+02 -5.42952708e-03 -1.31641694e+07],83,748.7047129213375
577,577,[-5.22869957e+03  3.28364916e+02 -5.02381486e-03 -1.31641694e+07],718,747.6993644149558
578,578,[-7.18359200e+03  3.25361514e+02 -6.40773804e-03 -1.31641694e+07],43,745.3688999309729
579,579,[-8.78679246e+03  3.24360424e+02 -8.21170802e-03 -1.31641694e+07],3,748.5464607050268
580,580,[-9.38560761e+03  3.24360449e+02 -9.29353254e-03 -1.31641694e+07],28,748.2593338870886
581,581,[-7.18848200e+03  3.25361566e+02 -6.78022305e-03 -1.31641694e+07],12,748.1095188299525
582,582,[-5.29508441e+03  3.28364922e+02 -4.69413384e-03 -1.31641694e+07],42,747.419808551122
583,583,[-8.95823193e+03  3.24360436e+02 -8.05862285e-03 -1.31641694e+07],268,747.6124329846908
584,584,[-9.36851290e+03  3.24360439e+02 -8.87954656e-03 -1.31641694e+07],591,748.0274304347936
585,585,[-7.00563625e+03  3.26362685e+02 -6.58427332e-03 -1.31641694e+07],429,746.4113836334108
586,586,[-6.94084413e+03  3.25361526e+02 -6.58915589e-03 -1.31641694e+07],115,745.5926949767984
587,587,[-7.91376285e+03  3.25361513e+02 -7.35237200e-03 -1.31641694e+07],237,745.8504700943263
588,588,[-8.93229454e+03  3.24360441e+02 -8.23289611e-03 -1.31641694e+07],326,747.8925079665308
589,589,[-7.99314235e+03  3.25361565e+02 -7.41835899e-03 -1.31641694e+07],486,747.9339236536084
590,590,[-7.56327280e+03  3.25361525e+02 -7.10786999e-03 -1.31641694e+07],21,747.8795962551386
591,591,[-8.74674350e+03  3.24360462e+02 -9.37539003e-03 -1.31641694e+07],240,744.7971394436975
592,592,[-6.80624080e+03  3.26362703e+02 -6.54493889e-03 -1.31641694e+07],144,742.8410469717421
593,593,[-8.70943062e+03  3.24360451e+02 -7.93683149e-03 -1.31641694e+07],114,747.9300639360927
594,594,[-7.57872708e+03  3.25361550e+02 -7.17732614e-03 -1.31641694e+07],222,747.2379196285765
595,595,[-8.05447151e+03  3.25361586e+02 -7.37673680e-03 -1.31641694e+07],690,747.0609695768397
596,596,[-5.29585933e+03  3.28364891e+02 -4.72880533e-03 -1.31641694e+07],387,746.7386692326847
597,597,[-6.90096869e+03  3.26362675e+02 -6.44049377e-03 -1.31641694e+07],68,747.822263241157
598,598,[-8.40428628e+03  3.24360432e+02 -8.00348645e-03 -1.31641694e+07],720,748.7346892247363
599,599,[-8.48255808e+03  3.24360460e+02 -7.72411141e-03 -1.31641694e+07],703,747.497645292659
600,600,[-5.35793131e+03  3.28364981e+02 -5.00536204e-03 -1.31641694e+07],80,748.1779754342593
601,601,[-8.65437664e+03  3.24360439e+02 -8.05680439e-03 -1.31641694e+07],425,731.5828254639765
602,602,[-8.03699750e+03  3.26362977e+02 -7.52117158e-03 -1.31641694e+07],266,723.6566840515807
603,603,[-8.50669967e+03  3.25361572e+02 -6.88497310e-03 -1.31641694e+07],680,733.4915511444934
604,604,[-8.07887183e+03  3.25361563e+02 -6.51629711e-03 -1.31641694e+07],136,743.9514877711937
605,605,[-8.38873590e+03  3.25361598e+02 -7.28392369e-03 -1.31641694e+07],418,748.0527411434916
606,606,[-8.00819568e+03  3.25361543e+02 -7.62398378e-03 -1.31641694e+07],747,746.546036280399
607,607,[-7.79531459e+03  3.26362734e+02 -7.35319366e-03 -1.31641694e+07],141,721.4925649147963
608,608,[-7.69070133e+03  3.25361534e+02 -6.94527358e-03 -1.31641694e+07],107,711.9430651682123
609,609,[-7.05425949e+03  3.27363757e+02 -5.38719832e-03 -1.31641694e+07],519,720.814881727455
610,610,[-7.87685557e+03  3.26362734e+02 -7.47826343e-03 -1.31641694e+07],604,745.9420515037064
611,611,[-8.64667657e+03  3.24360537e+02 -7.82956088e-03 -1.31641694e+07],8,746.2135843957102
612,612,[-8.27035338e+03  3.25361579e+02 -8.51124888e-03 -1.31641694e+07],716,747.0909897889917
613,613,[-5.48803380e+03  3.27363795e+02 -4.81284041e-03 -1.31641694e+07],124,747.9340758399513
614,614,[-8.04916092e+03  3.25361522e+02 -7.43203403e-03 -1.31641694e+07],59,747.173781535046
615,615,[-8.89662587e+03  3.23359312e+02 -9.73583849e-03 -1.31641694e+07],81,746.2915865877533
616,616,[-4.65837078e+03  3.30367363e+02 -4.70572656e-03 -1.31641694e+07],564,748.1814125142644
617,617,[-8.29123687e+03  3.24360408e+02 -7.49329553e-03 -1.31641694e+07],216,748.5579565362377
618,618,[-8.96206612e+03  3.24360411e+02 -7.88614198e-03 -1.31641694e+07],331,747.8471931769684
619,619,[-9.99609327e+03  3.23359312e+02 -9.81200808e-03 -1.31641694e+07],294,747.7902329453837
620,620,[-8.61334932e+03  3.24360412e+02 -8.09700641e-03 -1.31641694e+07],127,747.9305686759527
621,621,[-5.09020043e+03  3.29366055e+02 -4.75506448e-03 -1.31641694e+07],654,747.7370631722822
622,622,[-7.18792392e+03  3.25361608e+02 -6.53907937e-03 -1.31641694e+07],744,748.0013164823015
623,623,[-8.79585746e+03  3.24360445e+02 -8.89395736e-03 -1.31641694e+07],15,748.1869807253074
624,624,[-8.91285780e+03  3.24360407e+02 -8.87070416e-03 -1.31641694e+07],183,748.5383111885599
625,625,[-8.47680744e+03  3.24360502e+02 -8.66178095e-03 -1.31641694e+07],751,747.789856383727
626,626,[-5.57280297e+03  3.28365153e+02 -5.18322514e-03 -1.31641694e+07],653,748.7179137133108
627,627,[-7.61021934e+03  3.25361637e+02 -6.76030709e-03 -1.31641694e+07],464,747.591959654672
628,628,[-7.86685547e+03  3.25361558e+02 -7.10536002e-03 -1.31641694e+07],248,748.06357793438
629,629,[-6.53602773e+03  3.26362653e+02 -5.55305578e-03 -1.31641694e+07],349,748.2846173091685
630,630,[-6.53206255e+03  3.26362738e+02 -5.83822441e-03 -1.31641694e+07],482,748.7378995905799
631,631,[-6.61273657e+03  3.25361644e+02 -7.19710663e-03 -1.31641694e+07],232,747.0223314073802
632,632,[-5.29534502e+03  3.28364988e+02 -4.30435759e-03 -1.31641694e+07],76,729.3030525540806
633,633,[-8.50760604e+03  3.24360455e+02 -8.76652939e-03 -1.31641694e+07],676,747.525690549596
634,634,[-6.46764398e+03  3.26362662e+02 -5.84176547e-03 -1.31641694e+07],118,746.1636464612867
635,635,[-7.73538088e+03  3.25361641e+02 -7.59535789e-03 -1.31641694e+07],56,745.7491886909721
636,636,[-7.43793097e+03  3.26362688e+02 -8.50025586e-03 -1.31641694e+07],592,746.6967506755408
637,637,[-7.86918519e+03  3.25361530e+02 -7.18186551e-03 -1.31641694e+07],82,748.5280580442674
638,638,[-9.31929494e+03  3.24360506e+02 -9.10342972e-03 -1.31641694e+07],344,748.4792405058392
639,639,[-8.33723705e+03  3.24360520e+02 -8.35428090e-03 -1.31641694e+07],96,748.6551359405747
640,640,[-7.43937905e+03  3.25361517e+02 -6.68358985e-03 -1.31641694e+07],550,747.350465812067
641,641,[-8.70680225e+03  3.24360437e+02 -8.91771521e-03 -1.31641694e+07],54,748.3935233861359
642,642,[-8.03646209e+03  3.25361569e+02 -7.73500297e-03 -1.31641694e+07],229,746.2830746797864
643,643,[-6.74481498e+03  3.26362761e+02 -6.46373572e-03 -1.31641694e+07],173,745.7703627938869
644,644,[-8.17667083e+03  3.24360404e+02 -8.12180201e-03 -1.31641694e+07],356,746.3532384812659
645,645,[-5.16560229e+03  3.27363863e+02 -5.10788818e-03 -1.31641694e+07],147,748.2637998058602
646,646,[-8.89479277e+03  3.24360482e+02 -8.50556493e-03 -1.31641694e+07],48,748.5915653322802
647,647,[-7.00701285e+03  3.25361616e+02 -6.62663113e-03 -1.31641694e+07],347,748.1673559639031
648,648,[-6.15321133e+03  3.27363741e+02 -5.28682698e-03 -1.31641694e+07],217,745.4324048936002
649,649,[-8.78465678e+03  3.24360405e+02 -9.76064138e-03 -1.31641694e+07],497,747.7715928011485
650,650,[-8.58539652e+03  3.24360427e+02 -8.55215700e-03 -1.31641694e+07],71,748.127035435512
651,651,[-6.46897689e+03  3.26362674e+02 -5.64111878e-03 -1.31641694e+07],5,747.7010269200732
652,652,[-6.36853720e+03  3.26362646e+02 -5.63066637e-03 -1.31641694e+07],67,745.1761607690634
653,653,[-8.12841453e+03  3.24360406e+02 -8.63197023e-03 -1.31641694e+07],221,743.2270004217434
654,654,[-5.05155008e+03  3.27363838e+02 -5.23777806e-03 -1.31641694e+07],413,743.4598068762086
655,655,[-7.89917218e+03  3.25361562e+02 -7.22727876e-03 -1.31641694e+07],64,746.1862309719643
656,656,[-7.83599399e+03  3.24360438e+02 -8.08079742e-03 -1.31641694e+07],86,747.427026693377
657,657,[-8.13844457e+03  3.25361562e+02 -7.40300067e-03 -1.31641694e+07],472,745.9306708199541
658,658,[-6.46868158e+03  3.26362746e+02 -5.76833442e-03 -1.31641694e+07],506,746.6894264662465
659,659,[-5.05876997e+03  3.29366105e+02 -4.74740357e-03 -1.31641694e+07],382,747.1136985356001
660,660,[-7.46702804e+03  3.25361619e+02 -6.44739915e-03 -1.31641694e+07],69,747.8842597060609
661,661,[-7.98298056e+03  3.25361565e+02 -7.25110471e-03 -1.31641694e+07],369,747.0798279042315
662,662,[-8.37528174e+03  3.24360437e+02 -8.68938373e-03 -1.31641694e+07],337,747.0287937931672
663,663,[-9.16789648e+03  3.23359298e+02 -1.08095407e-02 -1.31641694e+07],399,745.353132049236
664,664,[-5.51953411e+03  3.27364031e+02 -4.77838774e-03 -1.31641694e+07],303,747.2952285682532
665,665,[-8.45885506e+03  3.25361615e+02 -7.50862052e-03 -1.31641694e+07],228,746.6081866379596
666,666,[-5.07869934e+03  3.29366159e+02 -4.71174724e-03 -1.31641694e+07],282,745.3848329105671
667,667,[-5.22275319e+03  3.27363840e+02 -4.37845750e-03 -1.31641694e+07],420,745.8871838111128
668,668,[-4.99786402e+03  3.29366062e+02 -4.74672115e-03 -1.31641694e+07],463,747.8659007295577
669,669,[-6.99043368e+03  3.26362713e+02 -6.65015785e-03 -1.31641694e+07],305,748.1376823594816
670,670,[-8.79007273e+03  3.24360471e+02 -8.49447093e-03 -1.31641694e+07],196,748.3085762395399
671,671,[-6.50667594e+03  3.26362660e+02 -5.52316070e-03 -1.31641694e+07],70,747.1087551335642
672,672,[-5.45767657e+03  3.27363850e+02 -4.89963267e-03 -1.31641694e+07],380,746.7026484099513
673,673,[-6.13374876e+03  3.26362968e+02 -5.93727029e-03 -1.31641694e+07],39,747.8064929864936
674,674,[-8.58966633e+03  3.25361519e+02 -7.56840742e-03 -1.31641694e+07],6,747.0428990431094
675,675,[-8.65416666e+03  3.24360408e+02 -7.46754845e-03 -1.31641694e+07],29,746.2429717402766
676,676,[-5.22549546e+03  3.28364932e+02 -4.84207081e-03 -1.31641694e+07],480,743.0003498677416
677,677,[-5.12326801e+03  3.28365074e+02 -4.71501637e-03 -1.31641694e+07],62,745.2351675612597
678,678,[-7.85077303e+03  3.25361635e+02 -7.33913416e-03 -1.31641694e+07],267,746.9055317275811
679,679,[-7.49663183e+03  3.26362631e+02 -7.06007598e-03 -1.31641694e+07],23,746.2195146184836
680,680,[-6.86044346e+03  3.25361530e+02 -7.27873148e-03 -1.31641694e+07],289,744.3579660815275
681,681,[-5.55579096e+03  3.27363760e+02 -5.06368977e-03 -1.31641694e+07],414,746.4901429877178
682,682,[-7.36115643e+03  3.26362630e+02 -6.80801977e-03 -1.31641694e+07],37,747.7622209172575
683,683,[-7.83536616e+03  3.25361547e+02 -6.71603792e-03 -1.31641694e+07],752,748.0301584748548
684,684,[-8.70645240e+03  3.24360436e+02 -8.65237741e-03 -1.31641694e+07],403,746.9827917722987
685,685,[-5.56589027e+03  3.27363744e+02 -4.81250326e-03 -1.31641694e+07],496,746.243915943407
686,686,[-7.04700369e+03  3.25361516e+02 -6.96043195e-03 -1.31641694e+07],98,745.6836684745647
687,687,[-9.47431455e+03  3.23359304e+02 -1.06398278e-02 -1.31641694e+07],97,747.5458939657314
688,688,[-8.72689821e+03  3.24360402e+02 -7.88666000e-03 -1.31641694e+07],38,746.7533555723728
689,689,[-8.33044131e+03  3.24360427e+02 -8.22675734e-03 -1.31641694e+07],430,746.1021201427117
690,690,[-5.46372202e+03  3.27363816e+02 -4.86295700e-03 -1.31641694e+07],376,744.5545713432149
691,691,[-5.42057466e+03  3.27363795e+02 -4.96359364e-03 -1.31641694e+07],507,747.0899432803758
692,692,[-6.46035513e+03  3.26362687e+02 -5.56122845e-03 -1.31641694e+07],348,747.6422435451263
693,693,[-8.55121883e+03  3.24360465e+02 -7.83204268e-03 -1.31641694e+07],743,747.5768460699592
694,694,[-9.16512355e+03  3.24360413e+02 -8.21335695e-03 -1.31641694e+07],754,745.6319158074149
695,695,[-8.16147095e+03  3.25361540e+02 -7.82087114e-03 -1.31641694e+07],375,745.8837601335244
696,696,[-5.57345628e+03  3.28364993e+02 -5.20903357e-03 -1.31641694e+07],140,748.2904570111372
697,697,[-7.31184217e+03  3.26362890e+02 -6.93986455e-03 -1.31641694e+07],87,747.7422003772143
698,698,[-8.72727249e+03  3.24360448e+02 -9.14995011e-03 -1.31641694e+07],304,747.0062291651736
699,699,[-7.58040660e+03  3.26362684e+02 -6.94423213e-03 -1.31641694e+07],49,746.1919627664307
700,700,[-7.30633180e+03  3.25361550e+02 -6.20583540e-03 -1.31641694e+07],55,748.3392654816458
701,701,[-7.65107194e+03  3.25361514e+02 -6.98923265e-03 -1.31641694e+07],381,747.1970198760678
702,702,[-7.32027057e+03  3.25361522e+02 -6.49294986e-03 -1.31641694e+07],419,745.6713969883598
703,703,[-6.35001871e+03  3.26362672e+02 -5.55195162e-03 -1.31641694e+07],24,744.452972076111
704,704,[-8.34122195e+03  3.24360438e+02 -8.07691966e-03 -1.31641694e+07],218,748.0999431952335
705,705,[-8.09568698e+03  3.25361514e+02 -7.46132514e-03 -1.31641694e+07],7,747.5524342962563
706,706,[-9.19210278e+03  3.24360459e+02 -9.11503677e-03 -1.31641694e+07],312,745.9405201362799
707,707,[-5.75493464e+03  3.28365134e+02 -5.61379172e-03 -1.31641694e+07],36,745.7427625899214
708,708,[-5.41962091e+03  3.27363982e+02 -4.87458666e-03 -1.31641694e+07],60,745.4537312139728
709,709,[-9.04248567e+03  3.23359300e+02 -1.03403868e-02 -1.31641694e+07],357,746.5403581930452
710,710,[-8.15493342e+03  3.25361528e+02 -7.48586392e-03 -1.31641694e+07],370,747.0358672513056
711,711,[-8.24508080e+03  3.24360405e+02 -8.17789656e-03 -1.31641694e+07],35,747.3994082321454
712,712,[-4.96469524e+03  3.29366320e+02 -4.81983496e-03 -1.31641694e+07],65,746.5995149077269
713,713,[-5.38087159e+03  3.27363789e+02 -4.48178737e-03 -1.31641694e+07],603,748.286166289423
714,714,[-8.24579834e+03  3.24360412e+02 -7.65772958e-03 -1.31641694e+07],481,747.4529322800056
715,715,[-9.72335511e+03  3.23359309e+02 -1.07252337e-02 -1.31641694e+07],61,745.7766214413366
716,716,[-6.16862728e+03  3.27363790e+02 -5.69340240e-03 -1.31641694e+07],72,743.8808537312867
717,717,[-5.32543068e+03  3.27363782e+02 -4.38726604e-03 -1.31641694e+07],340,747.7646620401499
718,718,[-8.69784131e+03  3.24360420e+02 -9.09119927e-03 -1.31641694e+07],469,745.0220087592825
719,719,[-7.93745914e+03  3.24360401e+02 -8.00308280e-03 -1.31641694e+07],66,745.498771613795
720,720,[-5.17677042e+03  3.28364904e+02 -4.79674505e-03 -1.31641694e+07],601,744.4631419528871
721,721,[-5.49759034e+03  3.27363881e+02 -4.89512937e-03 -1.31641694e+07],343,747.6926452694019
722,722,[-8.89370022e+03  3.24360476e+02 -8.51290530e-03 -1.31641694e+07],288,748.6685032878663
723,723,[-8.21835743e+03  3.25361546e+02 -7.54618546e-03 -1.31641694e+07],314,747.533616831334
724,724,[-9.07635879e+03  3.24360431e+02 -8.82673647e-03 -1.31641694e+07],287,747.664474892633
725,725,[-7.99552046e+03  3.25361803e+02 -8.55232141e-03 -1.31641694e+07],338,746.8080203108273
726,726,[-5.07586140e+03  3.29366000e+02 -4.74922317e-03 -1.31641694e+07],353,747.8801918293201
727,727,[-8.79345924e+03  3.24360508e+02 -8.58235522e-03 -1.31641694e+07],632,747.7276417968135
728,728,[-5.95979456e+03  3.27363908e+02 -5.66848518e-03 -1.31641694e+07],342,747.5191123427481
729,729,[-4.99206596e+03  3.29366494e+02 -4.81660330e-03 -1.31641694e+07],341,745.4614370778038
730,730,[-7.25015542e+03  3.25361540e+02 -7.15576651e-03 -1.31641694e+07],313,746.9969529589093
731,731,[-8.47387835e+03  3.24360430e+02 -8.19323267e-03 -1.31641694e+07],354,745.7011324673952
732,732,[-5.62041723e+03  3.27363754e+02 -5.09618324e-03 -1.31641694e+07],355,746.369347046526
733,733,[-5.43955162e+03  3.27363912e+02 -5.37277440e-03 -1.31641694e+07],358,746.2458968701918
734,734,[-6.58697953e+03  3.25361534e+02 -7.25067396e-03 -1.31641694e+07],139,745.4706602851059
735,735,[-5.01003333e+03  3.29366039e+02 -4.75428933e-03 -1.31641694e+07],753,747.0238150201776
736,736,[-7.36346216e+03  3.25361518e+02 -6.36888158e-03 -1.31641694e+07],471,748.0756546577262
737,737,[-6.16098946e+03  3.26362809e+02 -5.85958113e-03 -1.31641694e+07],339,747.8829169991401
738,738,[-6.04293042e+03  3.26362674e+02 -5.41998041e-03 -1.31641694e+07],602,746.5702079537108
739,739,[-5.45610913e+03  3.28364932e+02 -4.23711522e-03 -1.31641694e+07],327,747.4749645364009
740,740,[-5.68110643e+03  3.27363963e+02 -4.81953106e-03 -1.31641694e+07],607,748.3840058718856
741,741,[-7.80924751e+03  3.25361613e+02 -7.19503758e-03 -1.31641694e+07],609,747.5062305271019
742,742,[-6.13892200e+03  3.27364232e+02 -5.98193124e-03 -1.31641694e+07],137,747.0611049138821
743,743,[-8.06879742e+03  3.25361522e+02 -7.68226341e-03 -1.31641694e+07],75,737.2529698583605
744,744,[-5.89443093e+03  3.26362687e+02 -5.57725755e-03 -1.31641694e+07],470,743.4374402754445
745,745,[-6.63481220e+03  3.25361801e+02 -7.65585754e-03 -1.31641694e+07],138,746.9285204750529
746,746,[-6.00860518e+03  3.27363863e+02 -5.64509743e-03 -1.31641694e+07],330,747.0515041016752
747,747,[-8.69279708e+03  3.24360418e+02 -8.09826362e-03 -1.31641694e+07],328,744.3150480229773
748,748,[-5.27491138e+03  3.28364884e+02 -4.81129455e-03 -1.31641694e+07],219,745.4594925336633
749,749,[-8.73618764e+03  3.24360440e+02 -8.73448720e-03 -1.31641694e+07],73,745.1067281745211
750,750,[-6.59209451e+03  3.26362656e+02 -5.56888385e-03 -1.31641694e+07],329,746.3835252267363
751,751,[-7.23152220e+03  3.25361529e+02 -6.28230020e-03 -1.31641694e+07],608,743.2272220436816
752,752,[-7.99324924e+03  3.25361542e+02 -7.01716346e-03 -1.31641694e+07],220,738.7921346784345
753,753,[-6.43951046e+03  3.27363791e+02 -5.14962933e-03 -1.31641694e+07],74,725.683022667523
754,754,[-8.26653092e+03  3.25361584e+02 -6.95541987e-03 -1.31641694e+07],0,737.0319088344006
