,0,1,2,3
0,0,[ 4.59488712e+03 -2.39742412e+02 -4.77096969e-02 -1.31641694e+07],349,344.855974952846
1,1,[-1.57937693e+03  1.85206150e+02 -1.11203424e-02 -1.31641694e+07],466,1023.4117201758197
2,2,[-2.87879542e+03  1.90211581e+02 -2.30105359e-02 -1.31641694e+07],467,1021.3932767706668
3,3,[-2.75854259e+03  1.90211508e+02 -2.24872128e-02 -1.31641694e+07],452,1021.9391170849536
4,4,[ 8.53340736e+03 -7.03372583e+02 -6.83085173e-02 -1.31641694e+07],665,1013.515284699831
5,5,[-2.66091109e+03  1.92214120e+02 -2.37030646e-02 -1.31641694e+07],374,1011.4471429040823
6,6,[-2.39126083e+03  1.98220625e+02 -2.19527402e-02 -1.31641694e+07],437,1021.4579378418296
7,7,[-2.91305985e+03  1.95217006e+02 -2.31669558e-02 -1.31641694e+07],455,1024.3964564198768
8,8,[-2.65758409e+03  1.95217294e+02 -2.33916687e-02 -1.31641694e+07],447,1022.4076831648689
9,9,[-2.52979146e+03  1.97219843e+02 -2.37463607e-02 -1.31641694e+07],433,1020.9093764952997
10,10,[-1.85846854e+03  1.94216126e+02 -1.03018233e-02 -1.31641694e+07],477,1024.395825901264
11,11,[-2.99900389e+03  2.02225186e+02 -2.27187334e-02 -1.31641694e+07],395,1023.8528912010847
12,12,[-2.20137954e+03  1.97219654e+02 -2.35384977e-02 -1.31641694e+07],368,1021.4384497001563
13,13,[-2.22400712e+03  1.93214729e+02 -2.39071886e-02 -1.31641694e+07],345,1012.6548649403268
14,14,[-2.30631101e+03  1.92213759e+02 -2.35133458e-02 -1.31641694e+07],464,1013.1677364276419
15,15,[-2.82191849e+03  2.02224827e+02 -2.29703528e-02 -1.31641694e+07],449,1024.7756764362914
16,16,[-3.03549945e+03  2.05228095e+02 -2.29383539e-02 -1.31641694e+07],644,1023.8684267644763
17,17,[-2.89253425e+03  2.04227332e+02 -2.31321478e-02 -1.31641694e+07],462,1021.5904837901279
18,18,[-1.89459635e+03  1.90211429e+02 -9.80739852e-03 -1.31641694e+07],416,1021.2762342143807
19,19,[-2.23197583e+03  2.03226081e+02 -2.27153330e-02 -1.31641694e+07],371,1020.0658644747334
20,20,[-3.02256132e+03  2.07230308e+02 -2.28144214e-02 -1.31641694e+07],338,1025.1000005399783
21,21,[-2.54158398e+03  2.06229242e+02 -2.22788546e-02 -1.31641694e+07],366,1024.0456415356882
22,22,[-2.71640304e+03  2.08231792e+02 -2.25777063e-02 -1.31641694e+07],498,1020.8553293987205
23,23,[-2.54384502e+03  2.09232646e+02 -2.20055270e-02 -1.31641694e+07],624,1007.5803474180556
24,24,[-2.71182438e+03  2.04226939e+02 -2.26632938e-02 -1.31641694e+07],674,1012.0613627945501
25,25,[-2.93535857e+03  2.15239297e+02 -2.16552331e-02 -1.31641694e+07],673,1023.875777321755
26,26,[-2.93959849e+03  2.15239293e+02 -2.16010152e-02 -1.31641694e+07],435,1022.0914933214618
27,27,[-2.20293802e+03  3.56396617e+02 -5.58916670e-03 -1.31641694e+07],507,1022.868253508856
28,28,[-2.75939293e+03  2.16240300e+02 -2.25827536e-02 -1.31641694e+07],675,1018.3147151400831
29,29,[-2.73489108e+03  2.12235975e+02 -2.24472345e-02 -1.31641694e+07],372,1019.0706741285803
30,30,[-2.98868233e+03  2.17241440e+02 -2.17204204e-02 -1.31641694e+07],627,1024.287177731685
31,31,[-1.99182746e+03  3.62402755e+02 -5.98963101e-03 -1.31641694e+07],476,1022.93783362225
32,32,[-2.12457524e+03  3.57397952e+02 -5.57156342e-03 -1.31641694e+07],484,1022.1031651633708
33,33,[-2.50194782e+03  2.12235819e+02 -2.23132902e-02 -1.31641694e+07],381,1020.1901448369081
34,34,[-2.80018699e+03  2.14238081e+02 -2.27717250e-02 -1.31641694e+07],354,1017.6200299678901
35,35,[-2.20514441e+03  1.97219354e+02 -5.16395931e-03 -1.31641694e+07],353,1023.7165078715102
36,36,[-3.03091695e+03  2.17241897e+02 -2.29146664e-02 -1.31641694e+07],458,1024.6374632449913
37,37,[-2.17216686e+03  3.55396069e+02 -5.61361951e-03 -1.31641694e+07],654,1024.0614248672641
38,38,[-2.94723395e+03  2.17241398e+02 -2.25083034e-02 -1.31641694e+07],351,1022.1660737390961
39,39,[-2.22977597e+03  1.92213653e+02 -3.52833318e-03 -1.31641694e+07],273,1020.5130653439776
40,40,[-2.00687122e+03  3.60400526e+02 -5.67278872e-03 -1.31641694e+07],649,1022.0661192223087
41,41,[-1.91820538e+03  3.64405071e+02 -6.08445860e-03 -1.31641694e+07],448,1023.7560657895641
42,42,[-2.18558028e+03  3.55395132e+02 -5.57110733e-03 -1.31641694e+07],670,1023.8400903247174
43,43,[-2.19873549e+03  3.54394167e+02 -5.47408518e-03 -1.31641694e+07],399,1022.6587278664396
44,44,[-2.47334861e+03  2.23248143e+02 -2.12059494e-02 -1.31641694e+07],506,1021.5832193532849
45,45,[-2.73609395e+03  2.14238465e+02 -2.27197294e-02 -1.31641694e+07],473,1016.0083176448476
46,46,[-2.92728974e+03  2.24249488e+02 -2.09489452e-02 -1.31641694e+07],748,1022.0659543081332
47,47,[-2.21670935e+03  1.95217284e+02 -1.50652220e-03 -1.31641694e+07],402,1025.3032256057902
48,48,[-2.19118093e+03  1.94216186e+02 -1.69763674e-03 -1.31641694e+07],401,1025.2533888735256
49,49,[-2.87297590e+03  2.27252531e+02 -2.19504781e-02 -1.31641694e+07],352,1023.5466466775256
50,50,[-2.43183160e+03  2.14238489e+02 -2.24859685e-02 -1.31641694e+07],339,1017.3572989323169
51,51,[-2.28303810e+03  2.02227040e+02 -1.09830306e-03 -1.31641694e+07],664,1024.5405142698037
52,52,[-3.01698455e+03  2.25250574e+02 -2.26470648e-02 -1.31641694e+07],505,1025.7610795020357
53,53,[-2.11256862e+03  2.02225278e+02 -1.20128966e-03 -1.31641694e+07],323,1022.5378732987307
54,54,[-2.43429692e+03  2.19243677e+02 -2.19486033e-02 -1.31641694e+07],468,1020.0270455740331
55,55,[-2.88264472e+03  2.26251459e+02 -2.20539298e-02 -1.31641694e+07],629,1025.4327854613425
56,56,[-2.24379469e+03  3.56396194e+02 -6.30552100e-03 -1.31641694e+07],605,1025.3429363010112
57,57,[-2.65594268e+03  2.01224018e+02 -2.36457556e-02 -1.31641694e+07],439,1023.5769827678382
58,58,[-1.79447433e+03  1.89210350e+02 -1.01294689e-02 -1.31641694e+07],310,1022.9926863688299
59,59,[-2.49529360e+03  2.01223617e+02 -2.39791901e-02 -1.31641694e+07],645,1019.0315590852111
60,60,[-2.81408474e+03  2.07230559e+02 -2.34141365e-02 -1.31641694e+07],504,1025.7386058143584
61,61,[-2.68503937e+03  2.03225906e+02 -2.43372483e-02 -1.31641694e+07],341,1025.568992381654
62,62,[-2.66810282e+03  2.01223608e+02 -2.46392499e-02 -1.31641694e+07],382,1025.838417067311
63,63,[-2.60710904e+03  2.04226935e+02 -2.40031630e-02 -1.31641694e+07],756,1023.8665566812507
64,64,[-2.07916918e+03  1.91212510e+02 -9.76400651e-03 -1.31641694e+07],628,1018.3875574110184
65,65,[-2.70540750e+03  2.09232728e+02 -2.31517920e-02 -1.31641694e+07],502,1024.6828759541122
66,66,[-2.78279504e+03  2.06229252e+02 -2.42066012e-02 -1.31641694e+07],592,1025.8166259610202
67,67,[-2.75257900e+03  2.10233750e+02 -2.31154227e-02 -1.31641694e+07],615,1024.3734478779731
68,68,[-2.34795359e+03  2.08231449e+02 -2.27541413e-02 -1.31641694e+07],270,1022.4665354138681
69,69,[-2.65074644e+03  2.09232647e+02 -2.30879840e-02 -1.31641694e+07],478,1017.4541249172267
70,70,[-2.85361120e+03  2.14238131e+02 -2.35399507e-02 -1.31641694e+07],495,1026.244775186889
71,71,[-2.80488395e+03  2.12235912e+02 -2.39389020e-02 -1.31641694e+07],429,1025.7204557872478
72,72,[-2.11308650e+03  3.56396392e+02 -6.05030885e-03 -1.31641694e+07],438,1024.6593853391619
73,73,[-2.71494786e+03  2.09232633e+02 -2.44103708e-02 -1.31641694e+07],696,1021.685421254138
74,74,[-2.62722957e+03  2.12235952e+02 -2.37993805e-02 -1.31641694e+07],500,1020.1170229809148
75,75,[-2.46385774e+03  2.11235138e+02 -2.30453420e-02 -1.31641694e+07],471,1025.9261676763085
76,76,[-2.12864329e+03  3.57397576e+02 -6.24725830e-03 -1.31641694e+07],410,1025.2774376812379
77,77,[-2.78931874e+03  2.18242686e+02 -2.29368940e-02 -1.31641694e+07],650,1025.520822423366
78,78,[-1.80950140e+03  1.95217055e+02 -5.21937534e-03 -1.31641694e+07],479,1022.8358474119503
79,79,[-2.53113477e+03  2.10234243e+02 -2.36514723e-02 -1.31641694e+07],606,1021.0102095695677
80,80,[-2.77567676e+03  2.20245233e+02 -2.27247752e-02 -1.31641694e+07],370,1025.8045798018652
81,81,[-2.07322981e+03  3.59399607e+02 -6.39316545e-03 -1.31641694e+07],355,1025.4394804242995
82,82,[-2.90416684e+03  2.19243827e+02 -2.34626614e-02 -1.31641694e+07],396,1025.8836683248533
83,83,[-2.71427767e+03  2.18242661e+02 -2.41926330e-02 -1.31641694e+07],445,1022.5235621124865
84,84,[-2.58138514e+03  2.20245312e+02 -2.35895481e-02 -1.31641694e+07],414,1019.0477568714402
85,85,[-2.11527602e+03  3.56396171e+02 -5.99037660e-03 -1.31641694e+07],487,1025.7758088966464
86,86,[-2.90383414e+03  2.22247274e+02 -2.37477536e-02 -1.31641694e+07],379,1025.8912797421729
87,87,[-2.78710412e+03  2.29254769e+02 -2.16446290e-02 -1.31641694e+07],329,1022.8549230461332
88,88,[-2.06904020e+03  3.55395799e+02 -6.19993842e-03 -1.31641694e+07],426,1022.7288473536153
89,89,[-2.47913871e+03  2.15239671e+02 -2.29294603e-02 -1.31641694e+07],637,1015.7311231583091
90,90,[-2.93113961e+03  2.28253649e+02 -2.22150073e-02 -1.31641694e+07],609,1025.8742114620761
91,91,[-2.88477848e+03  2.27252853e+02 -2.27367144e-02 -1.31641694e+07],290,1025.3135651037344
92,92,[-2.19221715e+03  1.96218477e+02 -1.71123191e-03 -1.31641694e+07],470,1025.399425119467
93,93,[-2.51413667e+03  2.19243703e+02 -2.34040000e-02 -1.31641694e+07],337,1016.5696606691469
94,94,[-2.70118252e+03  1.91212508e+02 -2.05049675e-03 -1.31641694e+07],496,1004.9183170349756
95,95,[-2.31587936e+03  2.15239708e+02 -2.29279899e-02 -1.31641694e+07],461,1012.943430660015
96,96,[-2.60022438e+03  2.31257401e+02 -2.14644365e-02 -1.31641694e+07],417,1018.7013534807621
97,97,[-2.84427332e+03  2.36262593e+02 -2.09430320e-02 -1.31641694e+07],676,1024.850839819201
98,98,[-2.79709251e+03  2.33259248e+02 -2.21338750e-02 -1.31641694e+07],336,1025.0193595794515
99,99,[-2.84329819e+03  2.35261660e+02 -2.16175893e-02 -1.31641694e+07],443,1024.9441245306589
100,100,[-2.66332474e+03  2.31257090e+02 -2.29829768e-02 -1.31641694e+07],285,1023.7844987044542
101,101,[-2.33738230e+03  2.25250614e+02 -2.35352074e-02 -1.31641694e+07],424,1019.0982933433946
102,102,[-2.36351082e+03  2.30256072e+02 -2.16302239e-02 -1.31641694e+07],481,1014.7809992016262
103,103,[-2.76817329e+03  2.37263821e+02 -2.12074546e-02 -1.31641694e+07],398,1024.2298465500314
104,104,[-2.80051840e+03  2.34260483e+02 -2.26871750e-02 -1.31641694e+07],262,1025.489114844778
105,105,[-2.63559229e+03  2.38264750e+02 -2.17536679e-02 -1.31641694e+07],268,1024.744953985199
106,106,[-2.39359257e+03  2.30256047e+02 -2.36035559e-02 -1.31641694e+07],610,1018.8863460363914
107,107,[-2.37134848e+03  2.04227527e+02 -6.52108069e-04 -1.31641694e+07],453,1014.3708987385666
108,108,[-2.85202395e+03  2.38265283e+02 -2.19623870e-02 -1.31641694e+07],658,1025.5967274716538
109,109,[-2.62896900e+03  2.38264781e+02 -2.12661293e-02 -1.31641694e+07],326,1024.8868044682388
110,110,[-2.88451151e+03  2.36262539e+02 -2.16401779e-02 -1.31641694e+07],709,1025.6202351605646
111,111,[-2.69817324e+03  2.40267136e+02 -2.26198015e-02 -1.31641694e+07],662,1021.7795243363478
112,112,[-2.50290039e+03  2.39265944e+02 -2.20558818e-02 -1.31641694e+07],626,1014.7541330144127
113,113,[-2.68594137e+03  2.37263741e+02 -2.19613263e-02 -1.31641694e+07],512,1020.594003855741
114,114,[-2.78372509e+03  2.42269289e+02 -2.18552124e-02 -1.31641694e+07],394,1025.9334452708235
115,115,[-2.03726963e+03  3.54394347e+02 -5.42943561e-03 -1.31641694e+07],465,1023.0490458184073
116,116,[-2.01613818e+03  3.55395154e+02 -5.62100071e-03 -1.31641694e+07],698,1023.9803850392924
117,117,[-2.41007135e+03  2.37263863e+02 -2.11618611e-02 -1.31641694e+07],623,1024.7196769736936
118,118,[-2.60561596e+03  2.37263699e+02 -2.30396638e-02 -1.31641694e+07],691,1023.8209474006818
119,119,[-1.79361866e+03  3.61402073e+02 -6.10149480e-03 -1.31641694e+07],405,1025.0155993069188
120,120,[-1.94964843e+03  3.57397664e+02 -5.83258718e-03 -1.31641694e+07],750,1024.9590530583948
121,121,[-2.78261980e+03  2.40267002e+02 -2.22581611e-02 -1.31641694e+07],303,1025.4887625134104
122,122,[-2.48513375e+03  2.37263723e+02 -2.25740204e-02 -1.31641694e+07],380,1025.6729449185082
123,123,[-2.59682980e+03  2.38265013e+02 -2.27601725e-02 -1.31641694e+07],397,1024.2019363824063
124,124,[-1.91553522e+03  3.56396772e+02 -5.65515967e-03 -1.31641694e+07],631,1023.3164555099078
125,125,[-2.49896867e+03  2.40267151e+02 -2.17743891e-02 -1.31641694e+07],511,1026.9472241462483
126,126,[-1.99305780e+03  3.55395514e+02 -5.52361194e-03 -1.31641694e+07],383,1024.650522364229
127,127,[-2.52037156e+03  2.38265386e+02 -2.15904941e-02 -1.31641694e+07],604,1025.3618096562057
128,128,[-1.92506932e+03  3.56396544e+02 -5.87947936e-03 -1.31641694e+07],693,1022.552685532744
129,129,[-2.02835945e+03  3.56396176e+02 -5.79580062e-03 -1.31641694e+07],342,1026.4693663244652
130,130,[-1.98058972e+03  3.56396827e+02 -5.86062889e-03 -1.31641694e+07],304,1026.2252771916412
131,131,[-1.98637700e+03  3.55395424e+02 -5.79168254e-03 -1.31641694e+07],509,1025.4143556752151
132,132,[-2.40669999e+03  2.41268678e+02 -2.17849896e-02 -1.31641694e+07],451,1025.632571686515
133,133,[-2.38165859e+03  2.39266068e+02 -2.29015926e-02 -1.31641694e+07],287,1023.7383154859054
134,134,[-1.80292505e+03  3.59399412e+02 -5.71509271e-03 -1.31641694e+07],442,1025.1401117614735
135,135,[-2.74449202e+03  2.45272642e+02 -2.14557768e-02 -1.31641694e+07],622,1026.5704792967733
136,136,[-2.59854596e+03  2.37263781e+02 -2.08736905e-02 -1.31641694e+07],480,1026.965343407392
137,137,[-2.27650128e+03  2.38265099e+02 -2.20193237e-02 -1.31641694e+07],671,1025.3613084903861
138,138,[-2.34991899e+03  2.19243859e+02 -2.49315792e-02 -1.31641694e+07],724,1023.2530083207231
139,139,[-2.52642364e+03  2.25250347e+02 -2.36539813e-02 -1.31641694e+07],672,1026.843358715932
140,140,[-2.12053402e+03  1.99221846e+02 -1.24263009e-03 -1.31641694e+07],653,1026.0635721443557
141,141,[-2.65991569e+03  2.28254232e+02 -2.37491547e-02 -1.31641694e+07],616,1026.9074546005759
142,142,[-2.39129594e+03  2.24249271e+02 -2.36233578e-02 -1.31641694e+07],369,1026.6099594287446
143,143,[-2.00756284e+03  2.19243677e+02 -2.46655696e-02 -1.31641694e+07],436,1023.9915070525053
144,144,[-2.32632000e+03  2.17241573e+02 -2.54375146e-02 -1.31641694e+07],647,1015.4370808924136
145,145,[-2.47718849e+03  1.85208460e+02 -1.78382022e-03 -1.31641694e+07],294,1012.4465101808188
146,146,[-2.43931632e+03  2.32258754e+02 -2.22488222e-02 -1.31641694e+07],682,1025.0006080967617
147,147,[-2.13362193e+03  3.53393846e+02 -5.85429792e-03 -1.31641694e+07],719,1024.8616461576426
148,148,[-2.75036261e+03  2.28253793e+02 -2.37361299e-02 -1.31641694e+07],375,1027.2947945637377
149,149,[-2.68896526e+03  2.30255986e+02 -2.37455417e-02 -1.31641694e+07],392,1027.1266535038
150,150,[-2.63307195e+03  2.30256210e+02 -2.40959840e-02 -1.31641694e+07],456,1026.031469723653
151,151,[-2.49395934e+03  2.29254749e+02 -2.42414726e-02 -1.31641694e+07],469,1023.4607170125263
152,152,[-2.10224571e+03  2.29254780e+02 -2.24810690e-02 -1.31641694e+07],271,1014.8863775023738
153,153,[-2.47581273e+03  2.09232551e+02 -5.98125116e-04 -1.31641694e+07],499,1015.5398601593446
154,154,[-2.42959455e+03  2.36263321e+02 -2.21316220e-02 -1.31641694e+07],300,1014.6336047376583
155,155,[-2.02429127e+03  3.54394273e+02 -5.73768844e-03 -1.31641694e+07],378,1023.1799273596645
156,156,[-2.55627208e+03  2.34261020e+02 -2.29078211e-02 -1.31641694e+07],363,1027.161485319252
157,157,[-2.71919168e+03  2.35261557e+02 -2.34313519e-02 -1.31641694e+07],501,1027.2922503208083
158,158,[-2.44645668e+03  2.36262701e+02 -2.18914508e-02 -1.31641694e+07],755,1026.0637834434206
159,159,[-1.84383749e+03  3.58398758e+02 -6.26132726e-03 -1.31641694e+07],450,1025.0892696574217
160,160,[-2.41472586e+03  2.31257429e+02 -2.45166434e-02 -1.31641694e+07],344,1023.4415414348734
161,161,[-2.56048450e+03  2.39266106e+02 -2.30659994e-02 -1.31641694e+07],747,1025.6952448393465
162,162,[-1.86352340e+03  3.58398483e+02 -6.12673198e-03 -1.31641694e+07],485,1024.6591584378955
163,163,[-2.63041382e+03  2.41268092e+02 -2.30717120e-02 -1.31641694e+07],510,1025.610817565192
164,164,[-2.38859132e+03  2.34260715e+02 -2.41715715e-02 -1.31641694e+07],475,1021.9927591979215
165,165,[-2.34153485e+03  2.37264012e+02 -2.38643119e-02 -1.31641694e+07],695,1019.0753573213036
166,166,[-2.03344473e+03  3.54393924e+02 -5.71880178e-03 -1.31641694e+07],350,1024.5956757161587
167,167,[-1.85326737e+03  3.58398867e+02 -6.07766687e-03 -1.31641694e+07],274,1023.8042085642537
168,168,[-2.33762798e+03  2.34260404e+02 -2.44634311e-02 -1.31641694e+07],388,1020.2018923887572
169,169,[-2.50112593e+03  2.37264630e+02 -2.33157873e-02 -1.31641694e+07],699,1010.9321989428284
170,170,[-1.92143232e+03  3.58398371e+02 -6.43360669e-03 -1.31641694e+07],669,1026.5306480477927
171,171,[-1.96069423e+03  3.55395176e+02 -5.95681693e-03 -1.31641694e+07],421,1024.1260952931282
172,172,[-1.97651271e+03  3.55396586e+02 -6.12385186e-03 -1.31641694e+07],820,1023.1467877893039
173,173,[-2.04593938e+03  3.54394012e+02 -5.66940055e-03 -1.31641694e+07],333,1025.0588187299695
174,174,[-2.48825896e+03  2.39266137e+02 -2.26790997e-02 -1.31641694e+07],446,1024.242658950978
175,175,[-2.33502760e+03  2.34260583e+02 -2.11998722e-02 -1.31641694e+07],581,1016.6672794921251
176,176,[-2.28894026e+03  2.39265963e+02 -2.18497014e-02 -1.31641694e+07],420,1017.3064144740729
177,177,[-2.21910449e+03  2.38265085e+02 -2.24174770e-02 -1.31641694e+07],419,1017.587622036789
178,178,[-2.44599667e+03  2.35262558e+02 -2.18135701e-02 -1.31641694e+07],422,1009.7742732626208
179,179,[-2.57016337e+03  2.26251950e+02 -3.39210292e-04 -1.31641694e+07],689,1023.9814818987372
180,180,[-1.93425274e+03  3.55395425e+02 -5.60966690e-03 -1.31641694e+07],415,1023.8896498153609
181,181,[-1.94024375e+03  3.54394936e+02 -6.07831154e-03 -1.31641694e+07],742,1021.1204727751144
182,182,[-2.40570931e+03  2.37263868e+02 -2.22053737e-02 -1.31641694e+07],731,1007.3118982070405
183,183,[-2.69934962e+03  2.23248096e+02 -2.39980983e-04 -1.31641694e+07],389,1009.5057242858725
184,184,[-2.74776020e+03  2.57286601e+02 -2.05431050e-02 -1.31641694e+07],280,1025.294074072684
185,185,[-1.78788723e+03  3.58399666e+02 -6.15126206e-03 -1.31641694e+07],729,1022.8357286279675
186,186,[-2.14502389e+03  2.40267220e+02 -2.23767322e-02 -1.31641694e+07],279,1010.2287606701694
187,187,[-2.41793870e+03  2.38264827e+02 -2.15370542e-02 -1.31641694e+07],740,1007.0454367000709
188,188,[-1.81691009e+03  3.59399759e+02 -6.37033912e-03 -1.31641694e+07],620,1026.0712456128
189,189,[-2.00172166e+03  3.53392793e+02 -5.57334856e-03 -1.31641694e+07],365,1024.154184432459
190,190,[-2.56882133e+03  2.27253838e+02 -4.36221256e-04 -1.31641694e+07],482,1017.9743678249414
191,191,[-2.01553367e+03  3.53393038e+02 -5.66032538e-03 -1.31641694e+07],706,1024.795650627558
192,192,[-2.32681389e+03  2.37263856e+02 -2.12886474e-02 -1.31641694e+07],432,1017.851814675415
193,193,[-2.17597091e+03  2.38264931e+02 -2.15633948e-02 -1.31641694e+07],738,1010.7087330549845
194,194,[-2.64703374e+03  2.39265880e+02 -7.93318642e-03 -1.31641694e+07],806,1026.179844016552
195,195,[-2.43970422e+03  2.37263788e+02 -2.54998591e-04 -1.31641694e+07],148,1022.8622846415678
196,196,[-2.40328901e+03  2.33259194e+02 -3.56644864e-04 -1.31641694e+07],157,1022.0615063384531
197,197,[-2.21417573e+03  2.36262631e+02 -2.21878884e-02 -1.31641694e+07],239,1012.5078992810594
198,198,[-2.41877798e+03  2.29255293e+02 -4.43251376e-04 -1.31641694e+07],313,1023.7399205428944
199,199,[-2.49875687e+03  2.52280651e+02 -2.19430641e-02 -1.31641694e+07],613,1025.0840609541763
200,200,[-2.34629907e+03  2.22246963e+02 -6.99632618e-04 -1.31641694e+07],534,1019.4128453418434
201,201,[-2.12632224e+03  2.80311367e+02 -1.13509636e-05 -1.31641694e+07],694,1007.7205349305826
202,202,[-2.51569306e+03  2.59288168e+02 -2.12345169e-02 -1.31641694e+07],250,1024.6495348488038
203,203,[-2.33928934e+03  2.29254811e+02 -3.76424998e-04 -1.31641694e+07],759,1024.5774327226545
204,204,[-2.30719692e+03  2.45273515e+02 -2.09682167e-04 -1.31641694e+07],575,1021.5341399798154
205,205,[-2.49489298e+03  2.36262895e+02 -2.94019841e-04 -1.31641694e+07],643,1023.8597438263051
206,206,[-2.34648744e+03  2.32258066e+02 -4.28437081e-04 -1.31641694e+07],621,1020.682039970475
207,207,[-2.14730754e+03  2.81312548e+02 -1.85621223e-05 -1.31641694e+07],324,1012.0415385849335
208,208,[-2.75757380e+03  2.58287026e+02 -2.14620877e-02 -1.31641694e+07],677,1025.3140577845743
209,209,[-2.63393674e+03  2.58287019e+02 -2.10935394e-02 -1.31641694e+07],408,1023.1400989289643
210,210,[-2.70505092e+03  2.61290444e+02 -2.03934639e-02 -1.31641694e+07],656,1023.0999133384856
211,211,[-2.51680527e+03  2.28254252e+02 -4.89221448e-04 -1.31641694e+07],702,1025.29654150035
212,212,[-2.43291264e+03  2.53281519e+02 -2.24786231e-02 -1.31641694e+07],284,1019.7043249368497
213,213,[-2.50946714e+03  2.59288141e+02 -1.98562407e-02 -1.31641694e+07],425,1020.1659943634307
214,214,[-2.08639965e+03  2.40266966e+02 -2.36454492e-02 -1.31641694e+07],347,1016.2261818902314
215,215,[-2.62229450e+03  2.65295069e+02 -2.03396842e-02 -1.31641694e+07],318,1023.4419140989737
216,216,[-2.35295802e+03  2.52280644e+02 -2.28837792e-02 -1.31641694e+07],434,1022.2736017679402
217,217,[-2.41350525e+03  2.16240424e+02 -4.00459598e-04 -1.31641694e+07],411,1013.1412359625511
218,218,[-2.43963199e+03  2.61290821e+02 -2.11350477e-02 -1.31641694e+07],156,1018.8132875397305
219,219,[-2.68742425e+03  2.62292326e+02 -2.10836150e-02 -1.31641694e+07],232,1024.975537392695
220,220,[-2.63264036e+03  2.60289350e+02 -2.10936138e-02 -1.31641694e+07],539,1023.963109856202
221,221,[-2.63935506e+03  2.63292822e+02 -2.14115081e-02 -1.31641694e+07],358,1025.6834309838346
222,222,[-2.74317805e+03  2.57286427e+02 -2.21730944e-02 -1.31641694e+07],728,1026.1503140834513
223,223,[-2.61597087e+03  2.61290511e+02 -2.06396000e-02 -1.31641694e+07],387,1024.8555930881857
224,224,[-2.58684645e+03  2.67297969e+02 -2.03131482e-02 -1.31641694e+07],730,1025.0315965137886
225,225,[-2.80132025e+03  2.60289467e+02 -2.18253148e-02 -1.31641694e+07],149,1026.6446648453104
226,226,[-2.67254043e+03  2.60289237e+02 -2.23773805e-02 -1.31641694e+07],535,1025.042441329858
227,227,[-2.54448408e+03  2.61290649e+02 -2.13404663e-02 -1.31641694e+07],725,1024.368540053791
228,228,[-2.66906369e+03  2.70300900e+02 -2.03211189e-02 -1.31641694e+07],391,1024.91303275151
229,229,[-2.73942594e+03  2.64293880e+02 -2.14249682e-02 -1.31641694e+07],309,1025.8115081990936
230,230,[-1.82572559e+03  3.56396323e+02 -6.13665984e-03 -1.31641694e+07],377,1023.1534459852614
231,231,[-2.34114200e+03  2.38265040e+02 -2.47177123e-02 -1.31641694e+07],390,1025.283777325704
232,232,[-2.57677510e+03  2.39266143e+02 -2.46836960e-02 -1.31641694e+07],736,1027.1486456048215
233,233,[-2.06994879e+03  3.53393159e+02 -6.43819710e-03 -1.31641694e+07],240,1026.4567446286615
234,234,[-2.33065252e+03  2.37263731e+02 -2.40602095e-02 -1.31641694e+07],752,1024.9734282313657
235,235,[-1.88264805e+03  3.57397512e+02 -6.69921752e-03 -1.31641694e+07],541,1026.9384189155571
236,236,[-2.40072456e+03  2.40267333e+02 -2.42818881e-02 -1.31641694e+07],283,1026.974360911206
237,237,[-1.97432544e+03  3.54394328e+02 -6.45649400e-03 -1.31641694e+07],710,1026.3381713220704
238,238,[-2.27819714e+03  2.39265914e+02 -2.48906505e-02 -1.31641694e+07],619,1024.0926864220967
239,239,[-1.93599544e+03  3.56396407e+02 -6.74892959e-03 -1.31641694e+07],418,1027.286723440466
240,240,[-2.31820280e+03  2.36262594e+02 -2.38929816e-02 -1.31641694e+07],601,1027.0879396074245
241,241,[-1.94667817e+03  3.54393784e+02 -6.27535217e-03 -1.31641694e+07],735,1025.409175799629
242,242,[-1.85764788e+03  3.57397265e+02 -6.56902240e-03 -1.31641694e+07],531,1025.9768993484618
243,243,[-2.03772394e+03  3.54394137e+02 -6.44663425e-03 -1.31641694e+07],472,1026.7436028050247
244,244,[-2.02632096e+03  3.53392807e+02 -6.47490289e-03 -1.31641694e+07],608,1026.8356734036106
245,245,[-2.42733444e+03  2.38265200e+02 -2.52298577e-02 -1.31641694e+07],517,1025.0744133628102
246,246,[-2.50515664e+03  2.32258173e+02 -3.30121457e-04 -1.31641694e+07],661,1024.8690109860956
247,247,[-2.28677740e+03  2.37264308e+02 -2.37148138e-02 -1.31641694e+07],646,1026.933844633003
248,248,[-2.08508824e+03  2.40267407e+02 -2.49883154e-02 -1.31641694e+07],749,1022.6353432824351
249,249,[-2.01978409e+03  3.53393842e+02 -6.13178387e-03 -1.31641694e+07],406,1026.6105064634066
250,250,[-1.97971409e+03  3.54394151e+02 -6.39354492e-03 -1.31641694e+07],726,1027.2680771188316
251,251,[-2.00473530e+03  3.53392718e+02 -6.07807434e-03 -1.31641694e+07],236,1026.7243137796324
252,252,[-2.10456616e+03  2.38264970e+02 -2.38842160e-02 -1.31641694e+07],136,1024.4641182869716
253,253,[-2.29914363e+03  2.40267717e+02 -2.38385990e-02 -1.31641694e+07],744,1009.1707505816684
254,254,[-2.37291551e+03  2.36263041e+02 -2.30928838e-02 -1.31641694e+07],357,1012.4934565908884
255,255,[-1.99167581e+03  3.54394484e+02 -6.38779715e-03 -1.31641694e+07],393,1026.8296919769382
256,256,[-1.89016292e+03  3.55394935e+02 -6.51530267e-03 -1.31641694e+07],721,1016.3308091510595
257,257,[-2.29033190e+03  2.49277181e+02 -9.46216875e-03 -1.31641694e+07],311,1026.6089130419853
258,258,[-1.95909873e+03  3.55394917e+02 -6.42759482e-03 -1.31641694e+07],723,1025.8527115333463
259,259,[-2.52385437e+03  2.61290596e+02 -2.04786734e-02 -1.31641694e+07],655,1023.1665188689103
260,260,[-2.58416594e+03  2.62292012e+02 -2.02644318e-02 -1.31641694e+07],125,1025.6319456745152
261,261,[-2.20374864e+03  2.26251660e+02 -3.71717358e-04 -1.31641694e+07],685,1024.8636626022087
262,262,[-1.87661317e+03  3.56396039e+02 -6.40882268e-03 -1.31641694e+07],235,1027.6897121628074
263,263,[-2.70050495e+03  2.59288343e+02 -2.15527820e-02 -1.31641694e+07],526,1025.9988821048323
264,264,[-2.62398285e+03  2.61291100e+02 -2.08448188e-02 -1.31641694e+07],247,1026.2437588950954
265,265,[-2.73447751e+03  2.34260390e+02 -3.81806850e-04 -1.31641694e+07],515,1026.7917352630886
266,266,[-1.95309806e+03  3.54393978e+02 -6.49260212e-03 -1.31641694e+07],816,1026.386970624834
267,267,[-2.57689537e+03  2.59288112e+02 -2.08684215e-02 -1.31641694e+07],764,1025.633417475314
268,268,[-2.58954280e+03  2.38264757e+02 -2.61396363e-04 -1.31641694e+07],503,1027.6864518679367
269,269,[-2.28535994e+03  2.38265072e+02 -2.41126620e-02 -1.31641694e+07],572,1025.8507943282832
270,270,[-2.65306503e+03  2.57286571e+02 -2.24584436e-02 -1.31641694e+07],537,1027.9060442906596
271,271,[-1.89784833e+03  3.55396390e+02 -6.39284337e-03 -1.31641694e+07],356,1027.5056426522783
272,272,[-2.37402971e+03  2.63292675e+02 -2.12458554e-02 -1.31641694e+07],141,1025.5214013725492
273,273,[-2.60314887e+03  2.58287133e+02 -2.30365801e-02 -1.31641694e+07],704,1028.0226914351033
274,274,[-2.42884640e+03  2.32258291e+02 -3.50687273e-04 -1.31641694e+07],528,1027.4081030762518
275,275,[-2.28943920e+03  2.59288258e+02 -2.24727518e-02 -1.31641694e+07],359,1024.6369136919884
276,276,[-2.65735564e+03  2.59288251e+02 -2.11306950e-02 -1.31641694e+07],739,1026.6763682028463
277,277,[-1.93206344e+03  3.54394240e+02 -6.34953218e-03 -1.31641694e+07],660,1026.7899485368032
278,278,[-2.25766160e+03  2.61290521e+02 -2.18888798e-02 -1.31641694e+07],308,1023.8771126417627
279,279,[-2.58188993e+03  2.65294946e+02 -2.13761022e-02 -1.31641694e+07],707,1027.3308417964245
280,280,[-2.52144367e+03  2.59288385e+02 -2.23137261e-02 -1.31641694e+07],516,1027.3395641022332
281,281,[-2.17102603e+03  2.58287109e+02 -2.32883730e-02 -1.31641694e+07],454,1024.80522223056
282,282,[-2.51095256e+03  2.63293477e+02 -2.09485231e-02 -1.31641694e+07],521,1026.3319596642561
283,283,[-2.52980763e+03  2.58287599e+02 -2.28352105e-02 -1.31641694e+07],701,1027.0537993038456
284,284,[-2.55608230e+03  2.60289312e+02 -2.14250252e-02 -1.31641694e+07],711,1027.2157313967289
285,285,[-2.38920214e+03  2.62291562e+02 -2.29043970e-02 -1.31641694e+07],668,1027.7071191283449
286,286,[-2.19844032e+03  2.62292144e+02 -2.27187030e-02 -1.31641694e+07],307,1026.0750156363013
287,287,[-2.52529811e+03  2.58287363e+02 -2.31405277e-02 -1.31641694e+07],139,1027.5645084076655
288,288,[-2.33122506e+03  2.60289347e+02 -2.26537854e-02 -1.31641694e+07],306,1025.2578313803044
289,289,[-2.15936359e+03  2.61290767e+02 -2.29561201e-02 -1.31641694e+07],593,1018.9505528199301
290,290,[-2.49079498e+03  2.65294946e+02 -2.24190156e-02 -1.31641694e+07],244,1027.7735576611485
291,291,[-2.49923137e+03  2.61290541e+02 -2.23154684e-02 -1.31641694e+07],712,1023.2293678960147
292,292,[-2.40048882e+03  2.58287390e+02 -2.27225178e-02 -1.31641694e+07],648,1012.3709257484454
293,293,[-2.37210497e+03  2.69299225e+02 -2.01739140e-02 -1.31641694e+07],427,1017.8473787874651
294,294,[-2.59701742e+03  2.65294958e+02 -2.11389248e-02 -1.31641694e+07],255,1027.5225282700494
295,295,[-2.44374596e+03  2.63293199e+02 -2.18259947e-02 -1.31641694e+07],316,1026.1677439047994
296,296,[-2.43745759e+03  2.66295924e+02 -2.09542352e-02 -1.31641694e+07],737,1019.2905257294776
297,297,[-1.75667781e+03  3.55396817e+02 -5.38905939e-03 -1.31641694e+07],548,1026.7767257783476
298,298,[-2.48219896e+03  2.69299907e+02 -2.14205897e-02 -1.31641694e+07],679,1025.931483704391
299,299,[-2.36844619e+03  2.69299295e+02 -2.01853310e-02 -1.31641694e+07],265,1020.6093755187075
300,300,[-2.21820839e+03  2.67297607e+02 -1.94976222e-02 -1.31641694e+07],486,1027.4990736062816
301,301,[-2.32728453e+03  2.61290582e+02 -2.27294074e-02 -1.31641694e+07],708,1024.9960921189263
302,302,[-2.35514967e+03  2.68298777e+02 -2.10946683e-02 -1.31641694e+07],277,1023.5933696311988
303,303,[-2.62957698e+03  2.72302660e+02 -2.06360329e-02 -1.31641694e+07],727,1027.6222365973547
304,304,[-2.60847103e+03  2.70300471e+02 -2.10945722e-02 -1.31641694e+07],513,1027.5815930741978
305,305,[-2.36369143e+03  2.71301452e+02 -2.20600933e-02 -1.31641694e+07],297,1026.2468359075656
306,306,[-1.82612050e+03  3.53392991e+02 -5.31872008e-03 -1.31641694e+07],550,1026.8371532783901
307,307,[-1.71468162e+03  3.56396711e+02 -5.72628921e-03 -1.31641694e+07],697,1026.84526811761
308,308,[-1.85140781e+03  3.53392709e+02 -5.27181072e-03 -1.31641694e+07],805,1026.8977139434369
309,309,[-2.47710376e+03  2.68298503e+02 -2.14907816e-02 -1.31641694e+07],751,1027.1152063981192
310,310,[-2.59078842e+03  2.69299379e+02 -2.13973196e-02 -1.31641694e+07],527,1027.9464594944995
311,311,[-2.57153688e+03  2.71301452e+02 -2.11530084e-02 -1.31641694e+07],532,1026.9584472795095
312,312,[-2.50960722e+03  2.69299293e+02 -2.14437434e-02 -1.31641694e+07],243,1026.6906507573226
313,313,[-2.64869873e+03  2.68298150e+02 -2.09425624e-02 -1.31641694e+07],734,1027.2823695557477
314,314,[-2.31486087e+03  2.65295542e+02 -2.01937932e-02 -1.31641694e+07],251,1026.510056991245
315,315,[-2.59238627e+03  2.68298519e+02 -2.11381728e-02 -1.31641694e+07],741,1025.8644166562112
316,316,[-1.81104173e+03  3.53392842e+02 -4.91730545e-03 -1.31641694e+07],423,1026.8276718591717
317,317,[-1.73951332e+03  3.56396507e+02 -5.60063451e-03 -1.31641694e+07],754,1026.396933700223
318,318,[-2.27126622e+03  2.69299552e+02 -1.98850796e-02 -1.31641694e+07],583,1027.1942986205147
319,319,[-1.85386445e+03  3.53392922e+02 -5.52973719e-03 -1.31641694e+07],823,1026.511191287017
320,320,[-1.80449501e+03  3.52391870e+02 -4.45507763e-03 -1.31641694e+07],404,1026.0271266636728
321,321,[-2.61311838e+03  2.70300689e+02 -2.12797438e-02 -1.31641694e+07],312,1025.3271082643362
322,322,[-2.11103327e+03  2.65294819e+02 -2.01379715e-02 -1.31641694e+07],409,1019.3711343039774
323,323,[-1.81178739e+03  3.54394407e+02 -5.58828294e-03 -1.31641694e+07],692,1027.9599318039816
324,324,[-1.78585559e+03  3.54393849e+02 -5.79233300e-03 -1.31641694e+07],491,1027.2348824418004
325,325,[-2.37680388e+03  2.68298395e+02 -2.28169659e-02 -1.31641694e+07],663,1020.7618271941408
326,326,[-1.81785658e+03  3.53392829e+02 -4.96179765e-03 -1.31641694e+07],276,1027.6711039779123
327,327,[-1.72671746e+03  3.54394545e+02 -5.29844114e-03 -1.31641694e+07],784,1025.4631040249199
328,328,[-2.35383375e+03  2.69299424e+02 -2.19861848e-02 -1.31641694e+07],777,1016.9126842979439
329,329,[-1.81328978e+03  3.54394215e+02 -5.47898944e-03 -1.31641694e+07],367,1027.7924424581693
330,330,[-1.73860899e+03  3.54393919e+02 -5.17498815e-03 -1.31641694e+07],618,1026.1714638249337
331,331,[-1.70571474e+03  3.54395064e+02 -5.51853696e-03 -1.31641694e+07],586,1017.3286326281745
332,332,[-1.61565377e+03  3.56397040e+02 -5.10318553e-03 -1.31641694e+07],373,1026.2664031609106
333,333,[-1.62764249e+03  3.55395009e+02 -4.49682203e-03 -1.31641694e+07],614,1027.38418633568
334,334,[-1.73138004e+03  3.54394015e+02 -5.16563024e-03 -1.31641694e+07],529,1026.5602181681368
335,335,[-1.72450229e+03  3.53393431e+02 -4.44496283e-03 -1.31641694e+07],790,1026.1481654450572
336,336,[-1.76832350e+03  3.53393841e+02 -4.91652822e-03 -1.31641694e+07],225,1027.7189508388115
337,337,[-1.68481168e+03  3.55396162e+02 -5.06355826e-03 -1.31641694e+07],407,1027.745497381652
338,338,[-1.64136150e+03  3.57397435e+02 -5.79752151e-03 -1.31641694e+07],540,1028.1610732282013
339,339,[-1.80623334e+03  3.54394361e+02 -5.46005953e-03 -1.31641694e+07],589,1027.9659661113417
340,340,[-1.85694084e+03  3.53392734e+02 -5.63876915e-03 -1.31641694e+07],542,1026.4382754162416
341,341,[-1.78060760e+03  3.54394297e+02 -5.64984611e-03 -1.31641694e+07],249,1027.9370305093717
342,342,[-1.78524679e+03  3.53392931e+02 -4.91264814e-03 -1.31641694e+07],142,1027.5854311348826
343,343,[-2.28043544e+03  2.67297214e+02 -2.13309421e-02 -1.31641694e+07],257,1025.3889680927748
344,344,[-1.77510878e+03  3.53393149e+02 -4.71190660e-03 -1.31641694e+07],493,1027.445632287714
345,345,[-1.72341445e+03  3.56396950e+02 -5.96844980e-03 -1.31641694e+07],518,1028.2124970610648
346,346,[-1.98530554e+03  2.69299353e+02 -2.06757079e-02 -1.31641694e+07],745,1026.2017507191688
347,347,[-2.04705974e+03  2.68298973e+02 -2.10202652e-02 -1.31641694e+07],785,1027.206781954149
348,348,[-2.06206471e+03  3.50389749e+02 -7.66471907e-03 -1.31641694e+07],588,1025.879607990114
349,349,[-1.78935570e+03  3.54394399e+02 -5.38332181e-03 -1.31641694e+07],135,1028.385787788611
350,350,[-1.61687836e+03  3.56397229e+02 -5.05531999e-03 -1.31641694e+07],705,1027.4118028210132
351,351,[-1.79663016e+03  3.54393957e+02 -5.54395988e-03 -1.31641694e+07],547,1028.0439831540104
352,352,[-1.73446325e+03  3.56396470e+02 -6.13957573e-03 -1.31641694e+07],680,1027.9726032227306
353,353,[-1.82239850e+03  3.54393939e+02 -5.80794616e-03 -1.31641694e+07],334,1028.0674946977729
354,354,[-1.81714741e+03  3.53392828e+02 -5.12176777e-03 -1.31641694e+07],765,1028.0674991012654
355,355,[-2.13773580e+03  2.67297481e+02 -2.06068532e-02 -1.31641694e+07],659,1027.8170669944882
356,356,[-1.70742601e+03  3.54393975e+02 -4.92141736e-03 -1.31641694e+07],651,1026.9101927370218
357,357,[-1.60008098e+03  3.56396853e+02 -5.02243654e-03 -1.31641694e+07],715,1026.9645102958953
358,358,[-1.71990966e+03  3.54394313e+02 -5.41339917e-03 -1.31641694e+07],170,1027.1373949429242
359,359,[-1.67431404e+03  3.54394064e+02 -4.48916290e-03 -1.31641694e+07],700,1026.8993127592687
360,360,[-1.76316902e+03  3.54395202e+02 -5.72346007e-03 -1.31641694e+07],625,1021.9786481926928
361,361,[-2.42227329e+03  2.63293338e+02 -2.01728462e-02 -1.31641694e+07],762,1009.1440151166898
362,362,[-1.73207454e+03  3.54394302e+02 -5.29506450e-03 -1.31641694e+07],492,1025.352384415426
363,363,[-1.65852632e+03  3.55395308e+02 -4.90746384e-03 -1.31641694e+07],319,1027.4863962158565
364,364,[-1.68510845e+03  3.55395010e+02 -5.39322034e-03 -1.31641694e+07],314,1026.320458129909
365,365,[-2.40103535e+03  3.50986205e+02 -3.99748980e-03 -1.31641694e+07],794,1027.316484517803
366,366,[-1.62170371e+03  3.56396780e+02 -5.13058734e-03 -1.31641694e+07],768,1028.1582378999872
367,367,[-1.74678421e+03  3.54394113e+02 -5.12627874e-03 -1.31641694e+07],640,1026.656261100844
368,368,[-1.75179155e+03  3.54394344e+02 -5.21559010e-03 -1.31641694e+07],769,1028.2135744247244
369,369,[-2.32486387e+03  3.50397958e+02 -4.01453352e-03 -1.31641694e+07],129,1027.5252583431775
370,370,[-1.63238532e+03  3.55395309e+02 -4.82272116e-03 -1.31641694e+07],233,1027.8178159068477
371,371,[-1.74042314e+03  3.53393275e+02 -4.56491119e-03 -1.31641694e+07],743,1028.1690479165861
372,372,[-1.74914898e+03  3.54394901e+02 -5.16008251e-03 -1.31641694e+07],681,1028.0988995475498
373,373,[-2.29320561e+03  3.50921067e+02 -4.11413652e-03 -1.31641694e+07],340,1026.6516520695711
374,374,[-1.75311508e+03  3.54394068e+02 -5.20919983e-03 -1.31641694e+07],767,1028.3099507636691
375,375,[-1.74788477e+03  3.54393807e+02 -5.17025836e-03 -1.31641694e+07],792,1027.5192605355314
376,376,[-1.71819472e+03  3.55395037e+02 -5.90344599e-03 -1.31641694e+07],732,1025.2119186676546
377,377,[-2.01296087e+03  3.51390549e+02 -6.82426124e-03 -1.31641694e+07],718,1027.1084124576714
378,378,[-2.03511687e+03  3.51391270e+02 -6.89951109e-03 -1.31641694e+07],793,1027.4931424986894
379,379,[-1.78507713e+03  3.54394553e+02 -5.50424418e-03 -1.31641694e+07],524,1027.7962628527937
380,380,[-1.70626727e+03  3.54394755e+02 -4.85556158e-03 -1.31641694e+07],317,1027.6212723372557
381,381,[-1.74337232e+03  3.53392876e+02 -4.48990722e-03 -1.31641694e+07],746,1028.0711353513589
382,382,[-2.55227114e+03  3.52392780e+02 -3.75190000e-03 -1.31641694e+07],266,1027.9215809657637
383,383,[-2.08883681e+03  3.50389707e+02 -7.35907431e-03 -1.31641694e+07],587,1027.5867614244346
384,384,[-1.82077472e+03  3.54393779e+02 -6.03648752e-03 -1.31641694e+07],722,1024.9740651666802
385,385,[-1.69513197e+03  3.54393955e+02 -5.20224911e-03 -1.31641694e+07],791,1019.9966522943901
386,386,[-1.78226919e+03  3.54394293e+02 -5.98687186e-03 -1.31641694e+07],831,1019.2040801473148
387,387,[-1.61288633e+03  3.56396293e+02 -4.80928057e-03 -1.31641694e+07],237,1027.1344351201124
388,388,[-1.57832027e+03  3.55395268e+02 -4.32619585e-03 -1.31641694e+07],282,1027.4074408829174
389,389,[-1.68807359e+03  3.53392829e+02 -4.27382874e-03 -1.31641694e+07],490,1027.3423718853098
390,390,[-2.01962288e+03  3.51390473e+02 -6.87868933e-03 -1.31641694e+07],364,1027.1022198594396
391,391,[-1.65352602e+03  3.55395083e+02 -4.96277131e-03 -1.31641694e+07],530,1027.1167027214804
392,392,[-1.60767912e+03  3.55394953e+02 -4.60525254e-03 -1.31641694e+07],585,1027.5110212091963
393,393,[-2.02918486e+03  3.51391447e+02 -6.97415186e-03 -1.31641694e+07],787,1026.9611472303116
394,394,[-1.65829425e+03  3.55395645e+02 -4.74035432e-03 -1.31641694e+07],788,1027.6558347193575
395,395,[-1.66463782e+03  3.55395283e+02 -5.02642930e-03 -1.31641694e+07],801,1028.2227621847721
396,396,[-1.75198860e+03  3.54393853e+02 -5.15887824e-03 -1.31641694e+07],770,1027.8159334843333
397,397,[-1.57944923e+03  3.56396871e+02 -4.76358742e-03 -1.31641694e+07],761,1027.6094988091868
398,398,[-1.71362351e+03  3.54394378e+02 -4.73658617e-03 -1.31641694e+07],559,1027.6970206533845
399,399,[-1.77722178e+03  3.54394784e+02 -5.23376985e-03 -1.31641694e+07],598,1028.0041737902147
400,400,[-1.82551849e+03  3.54394091e+02 -5.74540953e-03 -1.31641694e+07],523,1025.7404462786994
401,401,[-1.75717958e+03  3.54393956e+02 -5.18995257e-03 -1.31641694e+07],332,1027.9736264498945
402,402,[-1.61975596e+03  3.56396763e+02 -5.04782732e-03 -1.31641694e+07],678,1027.9815083671267
403,403,[-1.67217005e+03  3.55395566e+02 -4.86602302e-03 -1.31641694e+07],783,1025.8451237504457
404,404,[-1.58531920e+03  3.57398308e+02 -5.52503372e-03 -1.31641694e+07],428,1026.6992078944336
405,405,[-1.63585977e+03  3.56396156e+02 -5.19920940e-03 -1.31641694e+07],305,1027.6318152144256
406,406,[-1.78120695e+03  3.54394473e+02 -5.49373081e-03 -1.31641694e+07],70,1026.9831843724373
407,407,[-1.69631412e+03  3.55395357e+02 -5.57526613e-03 -1.31641694e+07],264,1026.6334425538635
408,408,[-1.73120854e+03  3.53392738e+02 -4.46665865e-03 -1.31641694e+07],611,1027.2254154756347
409,409,[-1.76388656e+03  3.54393908e+02 -5.14747016e-03 -1.31641694e+07],580,1026.6861348408747
410,410,[-2.12541590e+03  3.50390080e+02 -7.85429590e-03 -1.31641694e+07],130,1027.841047492032
411,411,[-1.73101801e+03  3.54393909e+02 -5.00068707e-03 -1.31641694e+07],634,1027.1746514080103
412,412,[-1.73261528e+03  3.55396229e+02 -6.15989250e-03 -1.31641694e+07],545,1020.8383636617634
413,413,[-1.68507634e+03  3.53393153e+02 -4.50668067e-03 -1.31641694e+07],802,1019.8007451439752
414,414,[-2.08276241e+03  3.51390659e+02 -7.53134255e-03 -1.31641694e+07],346,1027.8111881547418
415,415,[-1.55316821e+03  3.55396760e+02 -4.30956143e-03 -1.31641694e+07],536,1027.3509478820488
416,416,[-1.95770253e+03  3.52392011e+02 -6.81668957e-03 -1.31641694e+07],786,1028.172822853338
417,417,[-1.83363968e+03  3.53394194e+02 -5.64170716e-03 -1.31641694e+07],194,1027.7235156531021
418,418,[-1.76066946e+03  3.53392775e+02 -4.91589549e-03 -1.31641694e+07],554,1027.0182717706593
419,419,[-1.68792841e+03  3.55395173e+02 -5.45695360e-03 -1.31641694e+07],330,1027.3617010782011
420,420,[-1.84477422e+03  3.53393239e+02 -5.81868686e-03 -1.31641694e+07],775,1027.362086086706
421,421,[-2.09314632e+03  3.50389532e+02 -7.21638997e-03 -1.31641694e+07],295,1027.3870795259047
422,422,[-1.61210276e+03  3.56396253e+02 -5.09659505e-03 -1.31641694e+07],590,1027.3596382016526
423,423,[-1.73667846e+03  3.54393904e+02 -5.43546021e-03 -1.31641694e+07],222,1026.718849320697
424,424,[-1.69852740e+03  3.54393948e+02 -4.82224408e-03 -1.31641694e+07],335,1027.7045308807305
425,425,[-1.85326000e+03  3.53393696e+02 -6.50344599e-03 -1.31641694e+07],757,1027.2097284853044
426,426,[-2.07612309e+03  3.51390744e+02 -7.62254782e-03 -1.31641694e+07],905,1027.7913402928305
427,427,[-1.73315415e+03  3.53393596e+02 -4.82812535e-03 -1.31641694e+07],558,1026.8307343870254
428,428,[-1.70476542e+03  3.54394368e+02 -5.34756527e-03 -1.31641694e+07],546,1026.2494832645477
429,429,[-1.66610688e+03  3.55395166e+02 -4.89523031e-03 -1.31641694e+07],776,1027.8900581452233
430,430,[-1.69844361e+03  3.55395535e+02 -5.29030009e-03 -1.31641694e+07],809,1026.0749716359637
431,431,[-1.70144996e+03  3.55395786e+02 -5.71106870e-03 -1.31641694e+07],638,1024.3365272839305
432,432,[-1.86868216e+03  3.52391629e+02 -5.32799895e-03 -1.31641694e+07],565,1027.3009596481534
433,433,[-1.67558218e+03  3.55395094e+02 -4.91590534e-03 -1.31641694e+07],286,1028.2360697115973
434,434,[-1.59194121e+03  3.56396949e+02 -4.92782531e-03 -1.31641694e+07],430,1027.194081684082
435,435,[-1.68685606e+03  3.54393815e+02 -4.83740717e-03 -1.31641694e+07],188,1028.1118288008895
436,436,[-1.95953758e+03  3.52391560e+02 -6.94400214e-03 -1.31641694e+07],158,1027.5248303848016
437,437,[-1.92949354e+03  3.52391568e+02 -6.76411012e-03 -1.31641694e+07],140,1028.272563392336
438,438,[-2.02595834e+03  3.51390817e+02 -7.28625922e-03 -1.31641694e+07],811,1027.8754790252435
439,439,[-2.10440023e+03  3.50389755e+02 -7.99362045e-03 -1.31641694e+07],556,1027.946972259786
440,440,[-1.75189780e+03  3.54394494e+02 -5.11899838e-03 -1.31641694e+07],803,1025.6594140893435
441,441,[-1.66613397e+03  3.55395416e+02 -5.23590866e-03 -1.31641694e+07],522,1025.3504886198004
442,442,[-1.95427320e+03  3.52391646e+02 -6.85922617e-03 -1.31641694e+07],560,1027.5567054887556
443,443,[-1.70647493e+03  3.54393837e+02 -4.84983862e-03 -1.31641694e+07],574,1027.714505299832
444,444,[-1.71500890e+03  3.54395366e+02 -5.34215508e-03 -1.31641694e+07],150,1024.696891398067
445,445,[-2.03261134e+03  3.51390631e+02 -7.52524799e-03 -1.31641694e+07],824,1027.81319922092
446,446,[-1.59448624e+03  3.56396573e+02 -4.96641670e-03 -1.31641694e+07],320,1027.3785953334495
447,447,[-1.98030615e+03  3.51390623e+02 -6.59747103e-03 -1.31641694e+07],807,1028.2470051599441
448,448,[-1.89900349e+03  3.53393322e+02 -6.60106250e-03 -1.31641694e+07],549,1028.0127021456863
449,449,[-1.65917611e+03  3.54394078e+02 -4.79884330e-03 -1.31641694e+07],263,1028.1794762415511
450,450,[-1.84364318e+03  3.53392821e+02 -6.27221777e-03 -1.31641694e+07],242,1027.4630697578946
451,451,[-1.65240345e+03  3.55395281e+02 -4.92717591e-03 -1.31641694e+07],457,1027.572149030351
452,452,[-1.68035525e+03  3.54393882e+02 -4.80665482e-03 -1.31641694e+07],815,1028.3398076969575
453,453,[-1.86202990e+03  3.53392946e+02 -6.54609715e-03 -1.31641694e+07],579,1027.68169764914
454,454,[-1.66322630e+03  3.55395627e+02 -5.49990488e-03 -1.31641694e+07],557,1026.876759195739
455,455,[-2.00360189e+03  3.52392174e+02 -7.10952044e-03 -1.31641694e+07],551,1028.2686661884175
456,456,[-1.61360017e+03  3.55394991e+02 -4.60804650e-03 -1.31641694e+07],114,1027.5102336275377
457,457,[-1.67917684e+03  3.55395527e+02 -5.46315638e-03 -1.31641694e+07],298,1025.9695055649072
458,458,[-1.96075645e+03  3.52391945e+02 -7.04773130e-03 -1.31641694e+07],571,1028.0656316376808
459,459,[-1.69123495e+03  3.54393886e+02 -5.18222367e-03 -1.31641694e+07],733,1023.4193614934072
460,460,[-1.58014931e+03  3.57397398e+02 -5.38073675e-03 -1.31641694e+07],75,1022.5371136577255
461,461,[-1.82513115e+03  3.53392900e+02 -5.51564480e-03 -1.31641694e+07],582,1027.731173249318
462,462,[-1.96958160e+03  3.51391075e+02 -6.87748650e-03 -1.31641694e+07],812,1028.1759333348582
463,463,[-1.81578892e+03  3.54394126e+02 -6.93066824e-03 -1.31641694e+07],841,1025.0891140986073
464,464,[-1.95030297e+03  3.52392435e+02 -6.57082657e-03 -1.31641694e+07],483,1028.1871543206203
465,465,[-1.61535780e+03  3.55395399e+02 -4.68058031e-03 -1.31641694e+07],86,1027.6530017294106
466,466,[-1.84375467e+03  3.53392963e+02 -6.06159510e-03 -1.31641694e+07],569,1028.350316635518
467,467,[-1.93233996e+03  3.52391635e+02 -6.41443424e-03 -1.31641694e+07],896,1028.3425513252312
468,468,[-1.54977459e+03  3.55395171e+02 -4.26028286e-03 -1.31641694e+07],82,1027.9597057390988
469,469,[-1.80850641e+03  3.53392884e+02 -5.30261249e-03 -1.31641694e+07],348,1027.5073276703868
470,470,[-1.94601388e+03  3.51391515e+02 -6.61874368e-03 -1.31641694e+07],90,1027.752372059327
471,471,[-1.99374948e+03  3.51390502e+02 -6.96062277e-03 -1.31641694e+07],774,1027.8448071584992
472,472,[-1.77339076e+03  3.52391623e+02 -4.56327068e-03 -1.31641694e+07],315,1027.0019931387899
473,473,[-2.08477710e+03  3.50389379e+02 -8.26840994e-03 -1.31641694e+07],258,1027.996388304469
474,474,[-1.79578647e+03  3.54394152e+02 -5.58777627e-03 -1.31641694e+07],269,1025.0804387725766
475,475,[-1.83932430e+03  3.52392122e+02 -5.32539841e-03 -1.31641694e+07],403,1027.4159651939453
476,476,[-1.83068688e+03  3.54394229e+02 -6.38766743e-03 -1.31641694e+07],62,1028.096527199038
477,477,[-1.91275339e+03  3.52392062e+02 -6.42994297e-03 -1.31641694e+07],635,1028.225663212403
478,478,[-2.41312363e+03  3.53394773e+02 -3.85198487e-03 -1.31641694e+07],66,1027.8956762862001
479,479,[-2.00624096e+03  3.51390701e+02 -7.41303192e-03 -1.31641694e+07],229,1027.8349169671662
480,480,[-2.12070962e+03  3.50389589e+02 -8.44189034e-03 -1.31641694e+07],80,1027.5475373050597
481,481,[-2.11321913e+03  3.50389476e+02 -8.36920040e-03 -1.31641694e+07],829,1027.7043665212204
482,482,[-1.70806820e+03  3.54394254e+02 -4.92125580e-03 -1.31641694e+07],85,1027.3082919440214
483,483,[-1.67749453e+03  3.54394217e+02 -5.02905677e-03 -1.31641694e+07],899,1025.8918975788556
484,484,[-2.05494727e+03  3.51390965e+02 -7.74463420e-03 -1.31641694e+07],52,1028.0788059158629
485,485,[-1.86288125e+03  3.53392815e+02 -6.11047857e-03 -1.31641694e+07],814,1027.4236083093044
486,486,[-1.59345394e+03  3.57397448e+02 -5.75163319e-03 -1.31641694e+07],630,1026.7911056909586
487,487,[-1.90260373e+03  3.53393332e+02 -6.73958983e-03 -1.31641694e+07],795,1027.800220739306
488,488,[-1.68932529e+03  3.55395147e+02 -5.59016892e-03 -1.31641694e+07],562,1025.5471843850573
489,489,[-1.69037276e+03  3.55396761e+02 -5.68024580e-03 -1.31641694e+07],688,1023.6605332714879
490,490,[-1.72466634e+03  3.54394332e+02 -5.33159885e-03 -1.31641694e+07],400,1026.3207768667119
491,491,[-1.67275354e+03  3.55395153e+02 -5.25591587e-03 -1.31641694e+07],60,1026.6776911693407
492,492,[-2.18626902e+03  3.54395271e+02 -3.49303484e-03 -1.31641694e+07],602,1026.5119727539684
493,493,[-1.67500222e+03  3.54393970e+02 -4.63630403e-03 -1.31641694e+07],810,1026.6060196521764
494,494,[-1.65772260e+03  3.53392769e+02 -5.03761709e-03 -1.31641694e+07],71,1024.8753872535428
495,495,[-1.66317869e+03  3.55395825e+02 -4.98421957e-03 -1.31641694e+07],796,1027.893970188494
496,496,[-1.87938390e+03  3.52391769e+02 -6.08968809e-03 -1.31641694e+07],846,1027.7392762482607
497,497,[-1.69539192e+03  3.55396039e+02 -5.53139456e-03 -1.31641694e+07],161,1024.7286598551955
498,498,[-1.78144408e+03  3.54394179e+02 -6.05184106e-03 -1.31641694e+07],221,1028.1519089620303
499,499,[-1.80539004e+03  3.53393006e+02 -5.83097887e-03 -1.31641694e+07],122,1027.5056256101775
500,500,[-1.86761185e+03  3.53392881e+02 -5.92537686e-03 -1.31641694e+07],822,1027.852340982725
501,501,[-1.70768507e+03  3.54393888e+02 -5.34374632e-03 -1.31641694e+07],703,1027.4683451585909
502,502,[-1.97580535e+03  3.51390766e+02 -7.06611993e-03 -1.31641694e+07],440,1027.9143785215733
503,503,[-1.59401439e+03  3.56396213e+02 -4.95434271e-03 -1.31641694e+07],591,1026.919465921861
504,504,[-1.87949550e+03  3.52391776e+02 -5.66944797e-03 -1.31641694e+07],821,1027.9383079465752
505,505,[-1.81988355e+03  3.53392717e+02 -5.74298688e-03 -1.31641694e+07],828,1027.9601252349576
506,506,[-1.91035510e+03  3.53393455e+02 -6.80047021e-03 -1.31641694e+07],267,1028.0017602946427
507,507,[-2.03608145e+03  3.51390620e+02 -7.85893119e-03 -1.31641694e+07],132,1028.1020070369002
508,508,[-1.72709201e+03  3.54394042e+02 -5.08831690e-03 -1.31641694e+07],260,1025.537322675576
509,509,[-2.30311172e+03  3.54397088e+02 -3.68346917e-03 -1.31641694e+07],566,1027.577976919906
510,510,[-2.09207162e+03  3.50389890e+02 -8.63617626e-03 -1.31641694e+07],773,1027.4227580493225
511,511,[-1.85916854e+03  3.52392281e+02 -5.59978225e-03 -1.31641694e+07],804,1027.5876591751887
512,512,[-1.86243686e+03  3.52391741e+02 -5.28927800e-03 -1.31641694e+07],110,1027.661142881353
513,513,[-1.76227995e+03  3.53393759e+02 -5.13795224e-03 -1.31641694e+07],163,1026.778559873136
514,514,[-1.59004882e+03  3.57398021e+02 -5.79325953e-03 -1.31641694e+07],570,1025.0879545579903
515,515,[-1.86515253e+03  3.54393775e+02 -7.34826883e-03 -1.31641694e+07],564,1026.9296195225047
516,516,[-1.91758895e+03  3.51391383e+02 -5.66866734e-03 -1.31641694e+07],108,1026.8782530614983
517,517,[-1.67971396e+03  3.54394846e+02 -4.91906465e-03 -1.31641694e+07],891,1027.0001807168007
518,518,[-1.67584389e+03  3.55396228e+02 -5.30474853e-03 -1.31641694e+07],61,1026.5990777520522
519,519,[-1.58818184e+03  3.56396610e+02 -5.25636297e-03 -1.31641694e+07],552,1022.7628560378892
520,520,[-2.34184475e+03  3.55396381e+02 -3.38024730e-03 -1.31641694e+07],488,1020.3643036957762
521,521,[-1.69347635e+03  3.54393801e+02 -4.76319172e-03 -1.31641694e+07],508,1026.8764273457666
522,522,[-2.01085141e+03  3.51390535e+02 -6.70933503e-03 -1.31641694e+07],957,1026.0485236910254
523,523,[-1.74142030e+03  3.53393042e+02 -4.97096690e-03 -1.31641694e+07],272,1026.276122631907
524,524,[-1.75497516e+03  3.52392316e+02 -4.12042487e-03 -1.31641694e+07],77,1026.4023380349922
525,525,[-1.90777600e+03  3.52392913e+02 -5.73753315e-03 -1.31641694e+07],544,1024.612004770679
526,526,[-1.80570488e+03  3.54393893e+02 -5.86322079e-03 -1.31641694e+07],568,1026.9357592161698
527,527,[-1.72007645e+03  3.53392895e+02 -4.73106547e-03 -1.31641694e+07],104,1026.7533721135653
528,528,[-2.39210682e+03  3.52392216e+02 -3.74949108e-03 -1.31641694e+07],121,1026.9013012519374
529,529,[-1.79893272e+03  3.52392203e+02 -4.49359930e-03 -1.31641694e+07],789,1026.6460672490493
530,530,[-1.83998082e+03  3.52391652e+02 -5.25989697e-03 -1.31641694e+07],327,1026.317858419179
531,531,[-1.65518909e+03  3.55395058e+02 -4.94410786e-03 -1.31641694e+07],798,1027.0041595699086
532,532,[-1.75307703e+03  3.54394204e+02 -5.25750007e-03 -1.31641694e+07],876,1026.7502386791055
533,533,[-2.04974318e+03  3.51391061e+02 -6.95391056e-03 -1.31641694e+07],832,1024.7546692494661
534,534,[-1.64807499e+03  3.55395300e+02 -5.04268626e-03 -1.31641694e+07],81,1027.2777540548402
535,535,[-1.66745559e+03  3.54394177e+02 -4.49793972e-03 -1.31641694e+07],55,1027.121857169504
536,536,[-1.88313597e+03  3.52392896e+02 -5.57620579e-03 -1.31641694e+07],842,1026.1945935078481
537,537,[-1.72676244e+03  3.54393848e+02 -5.11068171e-03 -1.31641694e+07],131,1026.915304555053
538,538,[-2.00714634e+03  3.52391997e+02 -6.75171421e-03 -1.31641694e+07],720,1024.7814016192142
539,539,[-1.73233075e+03  3.54393787e+02 -5.44419255e-03 -1.31641694e+07],241,1027.1447822322714
540,540,[-1.68415695e+03  3.54394329e+02 -4.74220224e-03 -1.31641694e+07],92,1026.6199317182673
541,541,[-1.86591218e+03  3.53392781e+02 -6.38803184e-03 -1.31641694e+07],343,1027.0629089857293
542,542,[-1.67871736e+03  3.54393845e+02 -4.71876075e-03 -1.31641694e+07],838,1026.6181640410505
543,543,[-1.83268398e+03  3.52391550e+02 -4.84633646e-03 -1.31641694e+07],127,1023.0014889554018
544,544,[-2.12882602e+03  3.50389871e+02 -8.13430225e-03 -1.31641694e+07],137,1025.512115499993
545,545,[-1.96924367e+03  3.51390736e+02 -7.61504688e-03 -1.31641694e+07],362,1026.2070511582936
546,546,[-1.82605812e+03  3.52391582e+02 -4.82837750e-03 -1.31641694e+07],441,1026.1268337727229
547,547,[-1.77876523e+03  3.52391606e+02 -4.49188479e-03 -1.31641694e+07],713,1026.5665018716754
548,548,[-1.72211879e+03  3.54394796e+02 -5.13665787e-03 -1.31641694e+07],56,1026.797777053179
549,549,[-1.71552915e+03  3.54394492e+02 -5.09290329e-03 -1.31641694e+07],819,1026.0065746574442
550,550,[-1.95945205e+03  3.51391799e+02 -6.53369409e-03 -1.31641694e+07],321,1026.7704886326885
551,551,[-1.68677584e+03  3.54393884e+02 -4.79393575e-03 -1.31641694e+07],208,1025.94697994867
552,552,[-1.87144163e+03  3.52392125e+02 -5.35087823e-03 -1.31641694e+07],91,1025.5645698519297
553,553,[-1.72985585e+03  3.54394438e+02 -5.15346160e-03 -1.31641694e+07],47,1024.271941840441
554,554,[-1.73301889e+03  3.54393845e+02 -5.24301940e-03 -1.31641694e+07],883,1026.1775095748983
555,555,[-1.70406642e+03  3.53392832e+02 -4.37690080e-03 -1.31641694e+07],211,1025.1535306591752
556,556,[-1.65372974e+03  3.55395096e+02 -5.11509702e-03 -1.31641694e+07],184,1026.0512387861322
557,557,[-1.71286576e+03  3.54393842e+02 -5.12370955e-03 -1.31641694e+07],760,1025.9595886028696
558,558,[-1.72268940e+03  3.54394322e+02 -5.20671973e-03 -1.31641694e+07],231,1026.132809952866
559,559,[-1.79280195e+03  3.52391839e+02 -4.51293746e-03 -1.31641694e+07],995,1026.2773963087382
560,560,[-1.75325480e+03  3.54394108e+02 -5.56303162e-03 -1.31641694e+07],76,1026.0383249472213
561,561,[-2.41159497e+03  3.51597744e+02 -4.05553687e-03 -1.31641694e+07],573,1023.2385209416811
562,562,[-1.65742797e+03  3.55395105e+02 -5.10535961e-03 -1.31641694e+07],288,1025.7490146918701
563,563,[-1.71955235e+03  3.53393014e+02 -4.52653088e-03 -1.31641694e+07],636,1024.8303574297154
564,564,[-1.66452738e+03  3.55394925e+02 -5.29589629e-03 -1.31641694e+07],48,1025.598241328224
565,565,[-1.72614558e+03  3.54394914e+02 -5.24289049e-03 -1.31641694e+07],979,1026.0759772341582
566,566,[-1.77259652e+03  3.54394186e+02 -6.26002599e-03 -1.31641694e+07],376,1025.6280443285
567,567,[-1.93005799e+03  3.52391660e+02 -7.77042464e-03 -1.31641694e+07],555,1024.5673508924067
568,568,[-1.70877381e+03  3.55396541e+02 -5.67410354e-03 -1.31641694e+07],134,1025.4910151120882
569,569,[-1.82174152e+03  3.52392053e+02 -4.67918697e-03 -1.31641694e+07],576,1025.8886861974922
570,570,[-1.60362541e+03  3.55395165e+02 -4.52544025e-03 -1.31641694e+07],597,1025.5984504677267
571,571,[-1.71527110e+03  3.54394012e+02 -5.28326434e-03 -1.31641694e+07],881,1025.930293100977
572,572,[-2.18478230e+03  3.54394399e+02 -3.67302853e-03 -1.31641694e+07],20,1026.919387625141
573,573,[-1.74356419e+03  3.54393955e+02 -5.40986616e-03 -1.31641694e+07],766,1025.2736525763391
574,574,[-1.84187816e+03  3.54394187e+02 -6.67382496e-03 -1.31641694e+07],835,1026.0319658386525
575,575,[-1.76312018e+03  3.54393890e+02 -6.33401861e-03 -1.31641694e+07],159,1027.238815441908
576,576,[-1.79523333e+03  3.54394591e+02 -5.93840375e-03 -1.31641694e+07],463,1025.114011041821
577,577,[-1.78423888e+03  3.55395201e+02 -6.47865514e-03 -1.31641694e+07],514,1024.9708491523872
578,578,[-1.84674202e+03  3.52391848e+02 -5.86844543e-03 -1.31641694e+07],837,1023.195955047013
579,579,[-1.64491305e+03  3.55395260e+02 -5.17861382e-03 -1.31641694e+07],199,1025.9643941543145
580,580,[-1.85826829e+03  3.53393141e+02 -6.79695741e-03 -1.31641694e+07],474,1026.2362753665234
581,581,[-1.61632724e+03  3.55396503e+02 -4.92242738e-03 -1.31641694e+07],245,1027.371979150104
582,582,[-1.72281103e+03  3.54394684e+02 -5.31937428e-03 -1.31641694e+07],834,1025.9072197670025
583,583,[-1.75297594e+03  3.53392817e+02 -5.04769746e-03 -1.31641694e+07],607,1026.7148920209906
584,584,[-1.66084572e+03  3.54394366e+02 -5.01608732e-03 -1.31641694e+07],173,1023.4247284928055
585,585,[-1.70437112e+03  3.53392768e+02 -4.21541261e-03 -1.31641694e+07],226,1026.3001483632318
586,586,[-1.63783155e+03  3.54393965e+02 -4.37808435e-03 -1.31641694e+07],826,1026.6525579601005
587,587,[-1.85403682e+03  3.53393150e+02 -6.28665113e-03 -1.31641694e+07],224,1026.3603262978875
588,588,[-1.90757373e+03  3.52391700e+02 -7.24373671e-03 -1.31641694e+07],98,1026.5797798971062
589,589,[-1.68740423e+03  3.54393868e+02 -4.95119740e-03 -1.31641694e+07],119,1026.618807336528
590,590,[-1.62710158e+03  3.53392753e+02 -3.73253510e-03 -1.31641694e+07],146,1026.163455699702
591,591,[-1.87677165e+03  3.52391677e+02 -5.34487130e-03 -1.31641694e+07],301,1025.6377510001223
592,592,[-1.59296189e+03  3.55396064e+02 -4.61968330e-03 -1.31641694e+07],219,1027.9134424748224
593,593,[-1.66500132e+03  3.53393791e+02 -4.13805724e-03 -1.31641694e+07],384,1026.8368283681903
594,594,[-2.34763303e+03  3.56396789e+02 -3.69121041e-03 -1.31641694e+07],234,1023.4010451304873
595,595,[-1.91282989e+03  3.51390855e+02 -8.05965886e-03 -1.31641694e+07],577,1013.7239385159365
596,596,[-1.71256535e+03  3.53392730e+02 -5.59286492e-03 -1.31641694e+07],120,1012.4335115592492
597,597,[-1.52802277e+03  3.55395210e+02 -4.22192329e-03 -1.31641694e+07],99,1025.112841371614
598,598,[-1.53345423e+03  3.55395607e+02 -4.01496160e-03 -1.31641694e+07],753,1026.2766391403622
599,599,[-1.66554120e+03  3.54394419e+02 -5.65949392e-03 -1.31641694e+07],893,1019.4556261387113
600,600,[-1.89746661e+03  3.52392665e+02 -8.74176812e-03 -1.31641694e+07],228,1016.7201686350427
601,601,[-1.61457779e+03  3.53393210e+02 -3.80428029e-03 -1.31641694e+07],683,1027.0156766792543
602,602,[-1.76554275e+03  3.54395006e+02 -5.87157572e-03 -1.31641694e+07],109,1025.7328818863436
603,603,[-1.84125761e+03  3.54393895e+02 -7.77834578e-03 -1.31641694e+07],494,1022.9003819419472
604,604,[-1.53862845e+03  3.55395069e+02 -4.08787895e-03 -1.31641694e+07],246,1027.586744064764
605,605,[-1.66505557e+03  3.53392819e+02 -4.04636116e-03 -1.31641694e+07],261,1027.9510962764264
606,606,[-1.63857604e+03  3.53393014e+02 -3.93272106e-03 -1.31641694e+07],147,1027.8269424933044
607,607,[-1.87144407e+03  3.52391677e+02 -6.80964203e-03 -1.31641694e+07],779,1025.06171373136
608,608,[-1.65334949e+03  3.54394261e+02 -5.09085302e-03 -1.31641694e+07],904,1027.0017624733853
609,609,[-1.70097703e+03  3.53393819e+02 -4.21877560e-03 -1.31641694e+07],223,1027.7870678386425
610,610,[-1.53785080e+03  3.55394885e+02 -4.16610048e-03 -1.31641694e+07],97,1027.6830194513534
611,611,[-1.79203411e+03  3.54394231e+02 -6.75946055e-03 -1.31641694e+07],563,1026.2412429281958
612,612,[-1.85996667e+03  3.53392793e+02 -7.20523129e-03 -1.31641694e+07],281,1022.8531780556935
613,613,[-1.66434172e+03  3.55395878e+02 -5.28174013e-03 -1.31641694e+07],191,1027.2805040785352
614,614,[-1.51423908e+03  3.55394950e+02 -3.93874481e-03 -1.31641694e+07],657,1026.6514609325955
615,615,[-1.69269073e+03  3.55395114e+02 -5.80813455e-03 -1.31641694e+07],813,1027.908983883069
616,616,[-1.75907948e+03  3.54394216e+02 -6.16276290e-03 -1.31641694e+07],538,1027.5256958117775
617,617,[-1.88553461e+03  3.53393632e+02 -7.73899436e-03 -1.31641694e+07],15,1024.726776046431
618,618,[-1.60262061e+03  3.54393902e+02 -4.17130501e-03 -1.31641694e+07],827,1026.655784114897
619,619,[-1.56812082e+03  3.55395276e+02 -4.57778657e-03 -1.31641694e+07],533,1027.03326085057
620,620,[-1.60846193e+03  3.55395140e+02 -4.64435894e-03 -1.31641694e+07],944,1027.3166152301847
621,621,[-1.82209075e+03  3.54393857e+02 -7.61591838e-03 -1.31641694e+07],105,1027.2355910325184
622,622,[-1.77176859e+03  3.54394659e+02 -6.35602387e-03 -1.31641694e+07],987,1027.5546306543745
623,623,[-1.65292791e+03  3.54394508e+02 -4.51767577e-03 -1.31641694e+07],497,1027.6412547415798
624,624,[-1.66857388e+03  3.55395375e+02 -5.44480311e-03 -1.31641694e+07],617,1028.1375924485224
625,625,[-1.89200767e+03  3.53393434e+02 -6.62121550e-03 -1.31641694e+07],836,1026.5175784083535
626,626,[-1.58502407e+03  3.55395034e+02 -4.42913741e-03 -1.31641694e+07],117,1027.668656484943
627,627,[-1.75434540e+03  3.53393057e+02 -4.80425758e-03 -1.31641694e+07],444,1028.0971362170985
628,628,[-1.67399477e+03  3.55396379e+02 -5.37189719e-03 -1.31641694e+07],65,1027.9145755033549
629,629,[-1.76879732e+03  3.54395003e+02 -6.15062750e-03 -1.31641694e+07],1021,1027.9530974522083
630,630,[-1.63851397e+03  3.54394549e+02 -4.66804210e-03 -1.31641694e+07],641,1025.7588788085288
631,631,[-1.66654221e+03  3.53392740e+02 -4.00484955e-03 -1.31641694e+07],72,1027.5912791579697
632,632,[-1.71139445e+03  3.55395299e+02 -6.44883476e-03 -1.31641694e+07],162,1024.2096444764843
633,633,[-1.75939772e+03  3.54394043e+02 -6.12646512e-03 -1.31641694e+07],921,1019.2015541887034
634,634,[-1.51144134e+03  3.55395882e+02 -3.87871560e-03 -1.31641694e+07],126,1026.2240487084855
635,635,[-1.77270435e+03  3.54394602e+02 -6.22974991e-03 -1.31641694e+07],202,1025.817689194323
636,636,[-1.66869899e+03  3.55395186e+02 -5.85610237e-03 -1.31641694e+07],36,1025.2577327847764
637,637,[-1.64121396e+03  3.55395994e+02 -4.99481049e-03 -1.31641694e+07],275,1027.7893779863814
638,638,[-1.71562124e+03  3.55395242e+02 -6.46119139e-03 -1.31641694e+07],839,1026.1035201745383
639,639,[-1.65917088e+03  3.55395025e+02 -5.53495861e-03 -1.31641694e+07],923,1022.8615449057212
640,640,[-1.49042320e+03  3.55395220e+02 -3.83677893e-03 -1.31641694e+07],716,1026.489833806286
641,641,[-1.89561294e+03  3.53392700e+02 -8.14453862e-03 -1.31641694e+07],525,1024.6687242234739
642,642,[-1.54697664e+03  3.56396139e+02 -5.21280120e-03 -1.31641694e+07],166,1019.8308305784221
643,643,[-1.61901071e+03  3.55395542e+02 -4.66313038e-03 -1.31641694e+07],203,1027.2375040240333
644,644,[-1.64696258e+03  3.54395194e+02 -4.78135210e-03 -1.31641694e+07],567,1028.1777321466343
645,645,[-1.68496928e+03  3.53392705e+02 -4.23908107e-03 -1.31641694e+07],830,1027.9458318472402
646,646,[-1.67098666e+03  3.54393984e+02 -4.78019540e-03 -1.31641694e+07],825,1026.9909400016013
647,647,[-1.65574107e+03  3.53393303e+02 -3.91024670e-03 -1.31641694e+07],51,1027.5237700842777
648,648,[-1.60308941e+03  3.54394158e+02 -4.22341860e-03 -1.31641694e+07],872,1026.834081720616
649,649,[-1.68662777e+03  3.53393197e+02 -4.20143152e-03 -1.31641694e+07],915,1028.0222243834369
650,650,[-1.74975115e+03  3.54394559e+02 -5.38983985e-03 -1.31641694e+07],817,1027.8349396511385
651,651,[-1.67869637e+03  3.55395101e+02 -5.53076768e-03 -1.31641694e+07],818,1026.5357200995447
652,652,[-1.92812948e+03  3.52392472e+02 -8.62571417e-03 -1.31641694e+07],252,1020.584126988584
653,653,[-1.63321601e+03  3.53393668e+02 -3.79578828e-03 -1.31641694e+07],898,1027.5288661036975
654,654,[-1.71053833e+03  3.53392847e+02 -4.85954242e-03 -1.31641694e+07],1015,1028.0486441260425
655,655,[-1.61714379e+03  3.55394904e+02 -5.04632290e-03 -1.31641694e+07],7,1026.9513724668864
656,656,[-1.61414234e+03  3.53392834e+02 -3.65619327e-03 -1.31641694e+07],10,1027.2231618170465
657,657,[-1.77574088e+03  3.54393867e+02 -5.85071097e-03 -1.31641694e+07],67,1024.7915639111452
658,658,[-1.61615016e+03  3.55395307e+02 -5.04060920e-03 -1.31641694e+07],227,1027.6800162174466
659,659,[-1.57822149e+03  3.53393090e+02 -3.43633810e-03 -1.31641694e+07],880,1026.5583172478543
660,660,[-1.59057523e+03  3.55395056e+02 -4.79469609e-03 -1.31641694e+07],431,1026.8987378503396
661,661,[-1.52004725e+03  3.55395721e+02 -4.11793798e-03 -1.31641694e+07],30,1026.991879911259
662,662,[-1.71948170e+03  3.53392901e+02 -4.78281327e-03 -1.31641694e+07],553,1027.6692403466411
663,663,[-1.48821448e+03  3.55395172e+02 -3.79928019e-03 -1.31641694e+07],936,1026.6774669286276
664,664,[-1.62201444e+03  3.55395572e+02 -4.84328799e-03 -1.31641694e+07],840,1027.9619380365536
665,665,[-1.72596605e+03  3.53393060e+02 -4.79978882e-03 -1.31641694e+07],174,1028.3173121620512
666,666,[-1.78277348e+03  3.54394127e+02 -6.80545353e-03 -1.31641694e+07],884,1024.004038250461
667,667,[-1.87671490e+03  3.53392772e+02 -7.48705351e-03 -1.31641694e+07],103,1016.969760528572
668,668,[-1.57608544e+03  3.54394875e+02 -3.83939218e-03 -1.31641694e+07],885,1026.854421466222
669,669,[-1.65695079e+03  3.54395195e+02 -4.60989940e-03 -1.31641694e+07],632,1027.394430073203
670,670,[-1.62432353e+03  3.53393432e+02 -3.63061063e-03 -1.31641694e+07],808,1028.0091990328633
671,671,[-1.64422261e+03  3.53392805e+02 -3.74985502e-03 -1.31641694e+07],123,1027.5466982864853
672,672,[-1.61901907e+03  3.53393067e+02 -3.66866986e-03 -1.31641694e+07],864,1027.534500749273
673,673,[-1.54220788e+03  3.55396282e+02 -4.19711407e-03 -1.31641694e+07],1029,1028.1168576353598
674,674,[-1.62107374e+03  3.55395150e+02 -5.08484676e-03 -1.31641694e+07],847,1028.1370667331162
675,675,[-1.63987855e+03  3.55395414e+02 -5.15123475e-03 -1.31641694e+07],189,1028.1015095028029
676,676,[-1.70081418e+03  3.55395024e+02 -5.67888171e-03 -1.31641694e+07],171,1027.720882446623
677,677,[-1.71354266e+03  3.55395357e+02 -5.95876980e-03 -1.31641694e+07],238,1027.2296301172967
678,678,[-1.79373117e+03  3.52391621e+02 -4.60733902e-03 -1.31641694e+07],926,1026.2659440356513
679,679,[-1.65543183e+03  3.55395243e+02 -5.48672164e-03 -1.31641694e+07],37,1026.7957937908254
680,680,[-1.57261010e+03  3.53393113e+02 -3.35190319e-03 -1.31641694e+07],21,1026.5645974596769
681,681,[-1.78080133e+03  3.54393955e+02 -6.36860787e-03 -1.31641694e+07],666,1026.4469091747433
682,682,[-1.66483430e+03  3.54394048e+02 -4.60196762e-03 -1.31641694e+07],143,1027.5195652089278
683,683,[-1.78760483e+03  3.54393977e+02 -6.27479825e-03 -1.31641694e+07],179,1024.8966707850427
684,684,[-1.79802372e+03  3.53392913e+02 -6.35797752e-03 -1.31641694e+07],116,1022.9748806676448
685,685,[-1.62091587e+03  3.54394496e+02 -4.21792798e-03 -1.31641694e+07],220,1026.9447164510477
686,686,[-1.85322789e+03  3.53393019e+02 -8.01128020e-03 -1.31641694e+07],918,1017.9456133253035
687,687,[-1.53330448e+03  3.55395336e+02 -4.43750808e-03 -1.31641694e+07],952,1015.1451805493583
688,688,[-1.49345224e+03  3.55394942e+02 -3.76227684e-03 -1.31641694e+07],1016,1025.7420869463067
689,689,[-1.68497554e+03  3.53393479e+02 -4.34393273e-03 -1.31641694e+07],180,1027.3512416853666
690,690,[-1.78227624e+03  3.53394283e+02 -6.52783024e-03 -1.31641694e+07],849,1022.3757892331764
691,691,[-1.61514676e+03  3.53392913e+02 -3.59587758e-03 -1.31641694e+07],851,1027.6402329989626
692,692,[-1.48708490e+03  3.54394842e+02 -3.29217712e-03 -1.31641694e+07],278,1026.681801093946
693,693,[-1.57865182e+03  3.55397100e+02 -4.56345759e-03 -1.31641694e+07],25,1027.5854350474413
694,694,[-1.57694140e+03  3.54393796e+02 -3.77570402e-03 -1.31641694e+07],16,1027.271712724487
695,695,[-1.56625532e+03  3.53393660e+02 -3.35130920e-03 -1.31641694e+07],63,1027.41433296121
696,696,[-1.60179525e+03  3.55395151e+02 -4.75280757e-03 -1.31641694e+07],928,1027.8747211619248
697,697,[-1.57372886e+03  3.53392740e+02 -3.30783092e-03 -1.31641694e+07],205,1026.7699871067925
698,698,[-1.61270348e+03  3.53393215e+02 -3.61484016e-03 -1.31641694e+07],11,1027.6416112734632
699,699,[-1.54983489e+03  3.55395601e+02 -4.43644415e-03 -1.31641694e+07],42,1027.3951616371785
700,700,[-1.65203839e+03  3.55395014e+02 -5.63147596e-03 -1.31641694e+07],118,1026.5273219424216
701,701,[-1.61538691e+03  3.53392871e+02 -3.63794107e-03 -1.31641694e+07],912,1026.8692992216422
702,702,[-1.61895201e+03  3.53393186e+02 -3.66547664e-03 -1.31641694e+07],887,1027.2210386759475
703,703,[-1.63142187e+03  3.54393852e+02 -4.41633125e-03 -1.31641694e+07],167,1025.665063765515
704,704,[-1.59262744e+03  3.53392927e+02 -3.43461046e-03 -1.31641694e+07],100,1026.9030483952558
705,705,[-1.69596535e+03  3.53392787e+02 -4.24259401e-03 -1.31641694e+07],963,1026.5670160345514
706,706,[-1.57370416e+03  3.55395947e+02 -4.53185059e-03 -1.31641694e+07],875,1027.3068903837466
707,707,[-1.62413306e+03  3.53393076e+02 -3.79972359e-03 -1.31641694e+07],866,1026.8873614307452
708,708,[-1.61607357e+03  3.53393104e+02 -3.62754573e-03 -1.31641694e+07],41,1026.7907888153622
709,709,[-1.55484754e+03  3.55395105e+02 -4.30541453e-03 -1.31641694e+07],874,1027.6701771635708
710,710,[-1.61539380e+03  3.53393329e+02 -3.63658960e-03 -1.31641694e+07],198,1027.0430086707947
711,711,[-1.63720469e+03  3.55394940e+02 -5.00525025e-03 -1.31641694e+07],133,1026.8562504048475
712,712,[-1.72740431e+03  3.54394421e+02 -5.20590149e-03 -1.31641694e+07],35,1026.8352751532575
713,713,[-1.71514684e+03  3.55395415e+02 -6.34562739e-03 -1.31641694e+07],992,1025.3491440616365
714,714,[-1.66334175e+03  3.55396117e+02 -5.67840534e-03 -1.31641694e+07],994,1022.0861519063993
715,715,[-1.66333376e+03  3.54393786e+02 -4.54677164e-03 -1.31641694e+07],960,1026.5333570393573
716,716,[-1.78944086e+03  3.54393983e+02 -6.64748552e-03 -1.31641694e+07],763,1024.6191879097057
717,717,[-1.67743299e+03  3.55395049e+02 -6.03417069e-03 -1.31641694e+07],489,1021.7931441712175
718,718,[-1.55769477e+03  3.54393870e+02 -3.71093495e-03 -1.31641694e+07],1032,1026.4129241542696
719,719,[-1.56219065e+03  3.55395329e+02 -4.46995740e-03 -1.31641694e+07],886,1027.519290594806
720,720,[-1.67548019e+03  3.54394142e+02 -5.25703874e-03 -1.31641694e+07],890,1025.4131575871356
721,721,[-1.50086676e+03  3.55395092e+02 -3.86086042e-03 -1.31641694e+07],302,1026.9608526653456
722,722,[-1.69764065e+03  3.53393233e+02 -4.37294347e-03 -1.31641694e+07],57,1026.3518754900074
723,723,[-1.51131859e+03  3.55394981e+02 -4.02432261e-03 -1.31641694e+07],758,1026.952600306903
724,724,[-1.60170344e+03  3.55395733e+02 -4.83900528e-03 -1.31641694e+07],894,1027.5398985198708
725,725,[-1.56048157e+03  3.55395255e+02 -4.41367373e-03 -1.31641694e+07],878,1027.121389841836
726,726,[-1.55372906e+03  3.55394988e+02 -4.35049763e-03 -1.31641694e+07],49,1026.975132276441
727,727,[-1.68747894e+03  3.54394091e+02 -5.14606163e-03 -1.31641694e+07],782,1026.788587567383
728,728,[-1.56828651e+03  3.54393817e+02 -4.01087852e-03 -1.31641694e+07],892,1027.1366397774025
729,729,[-1.51965021e+03  3.55397124e+02 -4.10922806e-03 -1.31641694e+07],151,1027.3363414494668
730,730,[-1.56333920e+03  3.55395034e+02 -4.42775578e-03 -1.31641694e+07],771,1027.1315187215841
731,731,[-1.56269000e+03  3.55395194e+02 -4.38780296e-03 -1.31641694e+07],889,1027.3495643614913
732,732,[-1.76090359e+03  3.54394052e+02 -5.54030142e-03 -1.31641694e+07],215,1026.4212803548664
733,733,[-1.74498927e+03  3.55394993e+02 -6.47980547e-03 -1.31641694e+07],160,1025.9273440788018
734,734,[-1.54747933e+03  3.54393817e+02 -3.65908003e-03 -1.31641694e+07],584,1026.729940498512
735,735,[-1.67739104e+03  3.52392177e+02 -3.84572570e-03 -1.31641694e+07],924,1027.0083828971028
736,736,[-1.66287895e+03  3.54394479e+02 -4.78563183e-03 -1.31641694e+07],459,1027.0968768049815
737,737,[-1.63806611e+03  3.53392972e+02 -3.82435443e-03 -1.31641694e+07],903,1026.8021340840894
738,738,[-1.66842362e+03  3.55395450e+02 -5.71513310e-03 -1.31641694e+07],781,1027.3001310124084
739,739,[-1.55507940e+03  3.55395701e+02 -4.23896540e-03 -1.31641694e+07],1,1026.8990211339144
740,740,[-1.60331608e+03  3.53392758e+02 -3.70380915e-03 -1.31641694e+07],594,1027.3182925778194
741,741,[-1.54444379e+03  3.55395549e+02 -4.16753522e-03 -1.31641694e+07],879,1026.7242781208906
742,742,[-1.54572495e+03  3.55395451e+02 -4.13376816e-03 -1.31641694e+07],914,1027.3508607604485
743,743,[-1.71108704e+03  3.55395240e+02 -6.23691639e-03 -1.31641694e+07],908,1026.4547092575094
744,744,[-1.60012635e+03  3.54393854e+02 -3.97548548e-03 -1.31641694e+07],911,1026.964851788172
745,745,[-1.76282555e+03  3.53392946e+02 -5.17794482e-03 -1.31641694e+07],124,1026.5882790960197
746,746,[-1.57044576e+03  3.53392825e+02 -3.32239027e-03 -1.31641694e+07],985,1026.3888772781193
747,747,[-1.53928941e+03  3.55395035e+02 -4.38600489e-03 -1.31641694e+07],138,1027.4360316860548
748,748,[-1.53412105e+03  3.55395506e+02 -4.29461142e-03 -1.31641694e+07],982,1027.9956771241418
749,749,[-1.54528097e+03  3.54393926e+02 -3.70390680e-03 -1.31641694e+07],850,1026.9890614753022
750,750,[-1.58136625e+03  3.54394575e+02 -4.23230621e-03 -1.31641694e+07],561,1027.627060388618
751,751,[-1.67691703e+03  3.55395797e+02 -5.99524556e-03 -1.31641694e+07],291,1026.7615392212685
752,752,[-1.56008878e+03  3.55395468e+02 -4.34294415e-03 -1.31641694e+07],578,1027.0791998482016
753,753,[-1.80175214e+03  3.53394022e+02 -5.27596394e-03 -1.31641694e+07],980,1024.939833668135
754,754,[-1.58620344e+03  3.53393058e+02 -3.49627907e-03 -1.31641694e+07],155,1026.7160859544215
755,755,[-1.56257899e+03  3.54395116e+02 -3.76174777e-03 -1.31641694e+07],869,1027.4639908695372
756,756,[-1.55380611e+03  3.55395770e+02 -4.39654382e-03 -1.31641694e+07],259,1027.9178112841594
757,757,[-1.63101983e+03  3.53393193e+02 -3.71545388e-03 -1.31641694e+07],778,1026.1440793650033
758,758,[-1.68656457e+03  3.54394536e+02 -4.83959960e-03 -1.31641694e+07],1008,1023.5747273731853
759,759,[-1.59959392e+03  3.54393776e+02 -4.12297860e-03 -1.31641694e+07],230,1027.256455593161
760,760,[-1.60228717e+03  3.55395747e+02 -4.63809642e-03 -1.31641694e+07],172,1025.2893408657615
761,761,[-1.58094758e+03  3.53392678e+02 -3.47306580e-03 -1.31641694e+07],984,1026.2836335175275
762,762,[-1.61706391e+03  3.53392766e+02 -3.71006455e-03 -1.31641694e+07],209,1026.5159792120578
763,763,[-1.73779638e+03  3.55395226e+02 -6.07835238e-03 -1.31641694e+07],998,1023.6779176692913
764,764,[-1.52953002e+03  3.56397087e+02 -4.66674185e-03 -1.31641694e+07],856,1026.9195303147426
765,765,[-1.55473331e+03  3.55395713e+02 -4.36823771e-03 -1.31641694e+07],990,1026.559196570079
766,766,[-1.69686985e+03  3.54393933e+02 -5.16938688e-03 -1.31641694e+07],210,1025.096351928502
767,767,[-1.56927364e+03  3.55396461e+02 -4.33441407e-03 -1.31641694e+07],862,1026.4381308548543
768,768,[-1.60283036e+03  3.55394949e+02 -4.86060152e-03 -1.31641694e+07],900,1026.5038446338306
769,769,[-1.60847642e+03  3.53393547e+02 -3.58413830e-03 -1.31641694e+07],115,1026.473221472202
770,770,[-1.56088922e+03  3.55395342e+02 -4.45763874e-03 -1.31641694e+07],907,1026.2890390802456
771,771,[-1.51683673e+03  3.56396680e+02 -4.82320124e-03 -1.31641694e+07],901,1023.451081323266
772,772,[-1.54091525e+03  3.54394688e+02 -3.87530934e-03 -1.31641694e+07],991,1021.0758334177381
773,773,[-1.62620534e+03  3.53393057e+02 -3.57904430e-03 -1.31641694e+07],870,1025.620894571473
774,774,[-1.59629280e+03  3.54394315e+02 -4.24807369e-03 -1.31641694e+07],929,1025.87326754431
775,775,[-1.53158769e+03  3.53393415e+02 -3.15101952e-03 -1.31641694e+07],853,1026.1706502903392
776,776,[-1.58583406e+03  3.53392697e+02 -3.38352216e-03 -1.31641694e+07],543,1026.1139831799155
777,777,[-1.59279882e+03  3.53392768e+02 -3.52233204e-03 -1.31641694e+07],58,1026.662483199906
778,778,[-1.62740005e+03  3.55395387e+02 -4.89186519e-03 -1.31641694e+07],684,1023.161661246849
779,779,[-1.61588906e+03  3.56396643e+02 -5.90899920e-03 -1.31641694e+07],1031,1024.8567791374876
780,780,[-1.65512520e+03  3.56397222e+02 -6.26999781e-03 -1.31641694e+07],863,1020.3201994722143
781,781,[-1.44820672e+03  3.56398163e+02 -4.17849435e-03 -1.31641694e+07],867,1023.412462885227
782,782,[-1.60466436e+03  3.53393362e+02 -3.52930546e-03 -1.31641694e+07],973,1023.5290981827363
783,783,[-1.58265204e+03  3.54394290e+02 -3.87191388e-03 -1.31641694e+07],31,1026.2547191469166
784,784,[-1.61360987e+03  3.53393152e+02 -3.64219210e-03 -1.31641694e+07],934,1026.6683241534654
785,785,[-1.47851635e+03  3.55395533e+02 -3.71663159e-03 -1.31641694e+07],897,1026.5875470461979
786,786,[-1.60934699e+03  3.53393944e+02 -3.57922086e-03 -1.31641694e+07],603,1026.1942803196575
787,787,[-1.59894242e+03  3.53392855e+02 -3.52879386e-03 -1.31641694e+07],1013,1026.296400974943
788,788,[-1.51037654e+03  3.55395406e+02 -3.90227509e-03 -1.31641694e+07],965,1026.291112350836
789,789,[-1.57341225e+03  3.55395337e+02 -4.41014255e-03 -1.31641694e+07],1019,1025.4880896073812
790,790,[-1.65177829e+03  3.53393134e+02 -4.09280435e-03 -1.31641694e+07],27,1026.6453306085386
791,791,[-1.51214293e+03  3.55395795e+02 -3.96117049e-03 -1.31641694e+07],195,1026.346307681415
792,792,[-1.49312611e+03  3.55394998e+02 -3.81487538e-03 -1.31641694e+07],639,1026.4274902862599
793,793,[-1.63538372e+03  3.55396700e+02 -5.01748525e-03 -1.31641694e+07],910,1026.4068848315555
794,794,[-1.53750003e+03  3.56396070e+02 -5.10469630e-03 -1.31641694e+07],87,1026.5095486455605
795,795,[-1.57901349e+03  3.53392692e+02 -3.33848905e-03 -1.31641694e+07],612,1025.752143056086
796,796,[-1.55207152e+03  3.55395945e+02 -4.37657800e-03 -1.31641694e+07],868,1025.717902164173
797,797,[-1.54472579e+03  3.56396207e+02 -5.08595047e-03 -1.31641694e+07],1018,1022.1268340186571
798,798,[-1.51354876e+03  3.55395422e+02 -3.97262029e-03 -1.31641694e+07],78,1025.462565225478
799,799,[-1.57090300e+03  3.55395296e+02 -5.68427567e-03 -1.31641694e+07],185,1018.5250155776962
800,800,[-1.56784163e+03  3.54393939e+02 -3.95085602e-03 -1.31641694e+07],943,1020.0415496046043
801,801,[-1.57530589e+03  3.54394936e+02 -3.74158868e-03 -1.31641694e+07],951,1026.2898026428645
802,802,[-1.61683909e+03  3.54394286e+02 -4.01851830e-03 -1.31641694e+07],916,1026.2019582266705
803,803,[-1.53278505e+03  3.54394191e+02 -3.88018080e-03 -1.31641694e+07],956,1026.048911900417
804,804,[-1.50695255e+03  3.54394619e+02 -3.40324166e-03 -1.31641694e+07],519,1025.6207941244693
805,805,[-1.58640312e+03  3.53392955e+02 -3.46404004e-03 -1.31641694e+07],857,1026.7650102895632
806,806,[-1.46613824e+03  3.56396136e+02 -4.40949652e-03 -1.31641694e+07],971,1027.2970912153326
807,807,[-1.61189615e+03  3.53392785e+02 -3.53136269e-03 -1.31641694e+07],937,1026.0145808607867
808,808,[-1.62449059e+03  3.54393932e+02 -4.44012967e-03 -1.31641694e+07],88,1024.2030742911384
809,809,[-1.56928091e+03  3.54394462e+02 -3.79764253e-03 -1.31641694e+07],999,1026.1108791534998
810,810,[-1.60605800e+03  3.53393258e+02 -3.52335268e-03 -1.31641694e+07],993,1025.7224274701673
811,811,[-1.56219300e+03  3.55395026e+02 -4.37281891e-03 -1.31641694e+07],972,1026.0617772314934
812,812,[-1.59397886e+03  3.53392822e+02 -3.48842957e-03 -1.31641694e+07],983,1025.8949446579002
813,813,[-1.58650113e+03  3.55396719e+02 -4.83599712e-03 -1.31641694e+07],1024,1024.7825388482531
814,814,[-1.56491192e+03  3.56396095e+02 -5.26029021e-03 -1.31641694e+07],895,1025.7600574473727
815,815,[-1.51062591e+03  3.55394958e+02 -3.94569831e-03 -1.31641694e+07],43,1025.9659244867958
816,816,[-1.55997352e+03  3.53393608e+02 -3.32184451e-03 -1.31641694e+07],877,1026.924943248542
817,817,[-1.65455195e+03  3.53392865e+02 -3.95756949e-03 -1.31641694e+07],248,1024.4850781136743
818,818,[-1.56547371e+03  3.55395589e+02 -4.47162526e-03 -1.31641694e+07],833,1024.4646330911091
819,819,[-1.60899259e+03  3.54393962e+02 -4.10027112e-03 -1.31641694e+07],927,1025.3279614060077
820,820,[-1.55215539e+03  3.54395170e+02 -3.84991420e-03 -1.31641694e+07],848,1027.3864829737784
821,821,[-1.61253927e+03  3.53392936e+02 -3.54128338e-03 -1.31641694e+07],128,1025.6371622312774
822,822,[-1.62749397e+03  3.53393565e+02 -3.68831919e-03 -1.31641694e+07],53,1025.6706736369463
823,823,[-1.54370344e+03  3.54394651e+02 -3.76279731e-03 -1.31641694e+07],906,1026.6998173513075
824,824,[-1.61455917e+03  3.53392725e+02 -3.54316317e-03 -1.31641694e+07],460,1026.0304877050287
825,825,[-1.65709808e+03  3.54394900e+02 -5.16557906e-03 -1.31641694e+07],865,1024.5441641918433
826,826,[-1.57074938e+03  3.54393821e+02 -4.02308826e-03 -1.31641694e+07],1014,1025.0413393932477
827,827,[-1.62962187e+03  3.53393147e+02 -3.62639001e-03 -1.31641694e+07],83,1024.7689074212142
828,828,[-1.58909983e+03  3.53393964e+02 -3.43739629e-03 -1.31641694e+07],933,1025.6338658608831
829,829,[-1.61473026e+03  3.53393146e+02 -3.53981075e-03 -1.31641694e+07],959,1025.7843231156958
830,830,[-1.59949224e+03  3.53392843e+02 -3.52846553e-03 -1.31641694e+07],931,1024.54886605963
831,831,[-1.61044490e+03  3.53392746e+02 -3.67095917e-03 -1.31641694e+07],68,1026.3451121326864
832,832,[-1.60961675e+03  3.53394286e+02 -3.58380303e-03 -1.31641694e+07],1017,1025.4579345559637
833,833,[-1.60960921e+03  3.55395038e+02 -4.75451889e-03 -1.31641694e+07],1026,1022.6287957533569
834,834,[-1.60551792e+03  3.53393316e+02 -3.52033768e-03 -1.31641694e+07],854,1025.0685976189166
835,835,[-1.52230039e+03  3.55394901e+02 -4.12870670e-03 -1.31641694e+07],8,1025.0922974901616
836,836,[-1.63318954e+03  3.53393002e+02 -3.69838180e-03 -1.31641694e+07],690,1024.7237713450102
837,837,[-1.56651594e+03  3.55395874e+02 -4.37764969e-03 -1.31641694e+07],858,1025.0845127533048
838,838,[-1.50916547e+03  3.55395309e+02 -3.93416346e-03 -1.31641694e+07],1005,1025.3796462319929
839,839,[-1.59340692e+03  3.55395490e+02 -4.61708957e-03 -1.31641694e+07],216,1024.6209181826703
840,840,[-1.71206375e+03  3.53393000e+02 -4.43696519e-03 -1.31641694e+07],861,1024.244506619486
841,841,[-1.56749333e+03  3.54394731e+02 -3.80891233e-03 -1.31641694e+07],860,1025.8926694251209
842,842,[-1.54226537e+03  3.56396154e+02 -4.72934196e-03 -1.31641694e+07],930,1025.4283646903032
843,843,[-1.62605566e+03  3.56396347e+02 -5.97689706e-03 -1.31641694e+07],946,1020.1259204652192
844,844,[-1.43373438e+03  3.57397831e+02 -4.69212242e-03 -1.31641694e+07],966,1021.5029445872566
845,845,[-1.59587598e+03  3.53393455e+02 -3.56136954e-03 -1.31641694e+07],882,1020.6264672054854
846,846,[-1.54752132e+03  3.56396398e+02 -5.23782774e-03 -1.31641694e+07],38,1025.703926395739
847,847,[-1.49651608e+03  3.54393947e+02 -3.40441726e-03 -1.31641694e+07],955,1024.1735769085938
848,848,[-1.56808044e+03  3.53393447e+02 -3.36359194e-03 -1.31641694e+07],986,1022.5561315295554
849,849,[-1.60432954e+03  3.53393456e+02 -3.56359606e-03 -1.31641694e+07],996,1023.8880140939957
850,850,[-1.51865139e+03  3.54394571e+02 -3.45017349e-03 -1.31641694e+07],935,1023.2408434249691
851,851,[-1.50217014e+03  3.54394122e+02 -3.47956202e-03 -1.31641694e+07],977,1023.8820005594649
852,852,[-1.50526358e+03  3.55395051e+02 -3.81511315e-03 -1.31641694e+07],797,1021.8692686478254
853,853,[-1.61923076e+03  3.53393155e+02 -3.75951230e-03 -1.31641694e+07],859,1023.0135117216636
854,854,[-1.49536306e+03  3.55395544e+02 -3.91702427e-03 -1.31641694e+07],32,1022.4077319808372
855,855,[-1.54922438e+03  3.53393455e+02 -3.38139773e-03 -1.31641694e+07],1028,1022.0072739128217
856,856,[-1.50288568e+03  3.54394665e+02 -3.43904251e-03 -1.31641694e+07],26,1023.1341677720485
857,857,[-1.49538942e+03  3.54394375e+02 -3.42768290e-03 -1.31641694e+07],1027,1022.7609401191364
858,858,[-1.53198070e+03  3.54393849e+02 -3.56734110e-03 -1.31641694e+07],714,1022.3695778342486
859,859,[-1.60306909e+03  3.53392812e+02 -3.62114582e-03 -1.31641694e+07],939,1022.1212645936724
860,860,[-1.50107032e+03  3.54394450e+02 -3.45356177e-03 -1.31641694e+07],40,1022.2337440056261
861,861,[-1.61581023e+03  3.53393476e+02 -3.61534710e-03 -1.31641694e+07],46,1022.2452445452707
862,862,[-1.63153906e+03  3.52391750e+02 -3.37843060e-03 -1.31641694e+07],196,1023.0675918374005
863,863,[-1.56664448e+03  3.53393214e+02 -3.39195328e-03 -1.31641694e+07],855,1022.9509654533095
864,864,[-1.53206881e+03  3.54393898e+02 -3.73069302e-03 -1.31641694e+07],164,1024.1987413797353
865,865,[-1.61996438e+03  3.53393544e+02 -3.65053097e-03 -1.31641694e+07],360,1022.5363049775776
866,866,[-1.58543249e+03  3.53393846e+02 -3.42504683e-03 -1.31641694e+07],3,1023.7742964174089
867,867,[-1.59945728e+03  3.53393181e+02 -3.53451534e-03 -1.31641694e+07],852,1022.9401971531838
868,868,[-1.60652343e+03  3.53393183e+02 -3.61473401e-03 -1.31641694e+07],1007,1022.8453623861475
869,869,[-1.54737582e+03  3.55395291e+02 -4.33033475e-03 -1.31641694e+07],954,1023.1773958521693
870,870,[-1.62243062e+03  3.53393460e+02 -3.64304203e-03 -1.31641694e+07],940,1023.0245359162979
871,871,[-1.54964958e+03  3.55395325e+02 -4.37083989e-03 -1.31641694e+07],717,1021.528061735219
872,872,[-1.66502387e+03  3.55396344e+02 -5.86112881e-03 -1.31641694e+07],888,1024.5205892507597
873,873,[-1.52409061e+03  3.55395191e+02 -3.97682910e-03 -1.31641694e+07],111,1021.3083055466238
874,874,[-1.57857782e+03  3.54393889e+02 -3.81867259e-03 -1.31641694e+07],976,1023.7412043115154
875,875,[-1.66668354e+03  3.55395006e+02 -5.75948670e-03 -1.31641694e+07],975,1023.7743182670782
876,876,[-1.56781610e+03  3.54394155e+02 -3.84463666e-03 -1.31641694e+07],950,1025.460568887199
877,877,[-1.58665981e+03  3.53393083e+02 -3.61468038e-03 -1.31641694e+07],974,1022.6508116503787
878,878,[-1.59732646e+03  3.55395939e+02 -4.97511105e-03 -1.31641694e+07],73,1023.5717555391285
879,879,[-1.59808671e+03  3.53393807e+02 -3.49539960e-03 -1.31641694e+07],922,1023.3947679550016
880,880,[-1.47336408e+03  3.55394930e+02 -3.78287803e-03 -1.31641694e+07],1006,1024.3455887956286
881,881,[-1.43631240e+03  3.56397406e+02 -4.18810934e-03 -1.31641694e+07],1002,1025.108787495362
882,882,[-1.50346499e+03  3.54394262e+02 -3.48934595e-03 -1.31641694e+07],947,1022.1750179205972
883,883,[-1.48207307e+03  3.55395600e+02 -3.75367430e-03 -1.31641694e+07],1022,1025.3015903715602
884,884,[-1.60856160e+03  3.53392784e+02 -3.51202208e-03 -1.31641694e+07],941,1024.2382432894372
885,885,[-1.49780034e+03  3.54394144e+02 -3.38758722e-03 -1.31641694e+07],17,1024.2146540545416
886,886,[-1.60099384e+03  3.53392773e+02 -3.61380271e-03 -1.31641694e+07],44,1023.6471737966482
887,887,[-1.60006257e+03  3.53393121e+02 -3.58340839e-03 -1.31641694e+07],913,1023.8051130551087
888,888,[-1.66595796e+03  3.53393788e+02 -3.90969334e-03 -1.31641694e+07],1003,1021.7841263544076
889,889,[-1.60870318e+03  3.53393342e+02 -3.59584486e-03 -1.31641694e+07],1030,1023.4497800999768
890,890,[-1.48190170e+03  3.55395059e+02 -4.00175108e-03 -1.31641694e+07],204,1023.603189939753
891,891,[-1.49642103e+03  3.56396548e+02 -4.43954549e-03 -1.31641694e+07],871,1025.575941255704
892,892,[-1.50982837e+03  3.55395433e+02 -3.91544378e-03 -1.31641694e+07],938,1023.5271703657598
893,893,[-1.57393904e+03  3.53392859e+02 -3.40309819e-03 -1.31641694e+07],844,1024.9187291583864
894,894,[-1.59463581e+03  3.53392891e+02 -3.51492019e-03 -1.31641694e+07],988,1023.5729876292173
895,895,[-1.51575573e+03  3.55395466e+02 -4.03881933e-03 -1.31641694e+07],961,1022.6705141964455
896,896,[-1.46659568e+03  3.56396255e+02 -4.20307276e-03 -1.31641694e+07],6,1025.8876406931852
897,897,[-1.51258379e+03  3.55395180e+02 -3.97346421e-03 -1.31641694e+07],968,1022.9275489607271
898,898,[-1.62351514e+03  3.55395531e+02 -5.21108157e-03 -1.31641694e+07],12,1024.4521338783434
899,899,[-1.57650605e+03  3.54394644e+02 -4.02152500e-03 -1.31641694e+07],1025,1025.7654978172873
900,900,[-1.48917767e+03  3.55395034e+02 -3.85347927e-03 -1.31641694e+07],1000,1023.0656023139629
901,901,[-1.53428280e+03  3.55395637e+02 -4.20786274e-03 -1.31641694e+07],2,1023.0336824932065
902,902,[-1.65190109e+03  3.56397053e+02 -6.27950182e-03 -1.31641694e+07],953,1020.8091063973321
903,903,[-1.58257085e+03  3.53392888e+02 -3.37007849e-03 -1.31641694e+07],873,1023.4130487229056
904,904,[-1.57004537e+03  3.53393825e+02 -3.60707679e-03 -1.31641694e+07],1001,1024.8560337128051
905,905,[-1.56733995e+03  3.54393878e+02 -4.04925455e-03 -1.31641694e+07],18,1026.1403343595232
906,906,[-1.49374833e+03  3.55395273e+02 -3.85428930e-03 -1.31641694e+07],1010,1022.5377503730309
907,907,[-1.57985315e+03  3.55395000e+02 -4.59702005e-03 -1.31641694e+07],919,1023.0342487069614
908,908,[-1.62589699e+03  3.53392855e+02 -3.72648074e-03 -1.31641694e+07],958,1023.3807696267588
909,909,[-1.65296911e+03  3.53393109e+02 -3.86209865e-03 -1.31641694e+07],181,1020.2462391752701
910,910,[-1.49222151e+03  3.55395490e+02 -3.83171330e-03 -1.31641694e+07],772,1022.8562105357686
911,911,[-1.62579174e+03  3.53393827e+02 -3.66288778e-03 -1.31641694e+07],925,1023.3730636712546
912,912,[-1.53474954e+03  3.55395309e+02 -4.17365511e-03 -1.31641694e+07],989,1023.8180106255725
913,913,[-1.58514082e+03  3.54394042e+02 -3.94042587e-03 -1.31641694e+07],932,1021.5568540395171
914,914,[-1.49712811e+03  3.55395059e+02 -3.89753467e-03 -1.31641694e+07],79,1023.3897884225211
915,915,[-1.52186479e+03  3.56397146e+02 -4.82576966e-03 -1.31641694e+07],948,1024.5006467712242
916,916,[-1.55955411e+03  3.54393931e+02 -3.81434028e-03 -1.31641694e+07],1011,1022.7997317343937
917,917,[-1.67472859e+03  3.54395360e+02 -5.00904415e-03 -1.31641694e+07],9,1020.7389460326972
918,918,[-1.55648021e+03  3.56396442e+02 -5.29943549e-03 -1.31641694e+07],942,1023.9231888586121
919,919,[-1.50420111e+03  3.55395179e+02 -3.89112922e-03 -1.31641694e+07],22,1021.2184293147004
920,920,[-1.55680905e+03  3.54393976e+02 -3.93181143e-03 -1.31641694e+07],412,1019.657786955751
921,921,[-1.58601204e+03  3.54394160e+02 -4.05309942e-03 -1.31641694e+07],949,1024.6535757793295
922,922,[-1.50399629e+03  3.55395328e+02 -3.94345861e-03 -1.31641694e+07],902,1021.683150597185
923,923,[-1.46440264e+03  3.56396072e+02 -4.30966529e-03 -1.31641694e+07],325,1024.6195447708003
924,924,[-1.60338593e+03  3.53393139e+02 -3.59380515e-03 -1.31641694e+07],917,1023.4208310451562
925,925,[-1.53031368e+03  3.55395185e+02 -3.99708633e-03 -1.31641694e+07],970,1021.0750895971552
926,926,[-1.56544331e+03  3.55395988e+02 -4.73871134e-03 -1.31641694e+07],206,1024.06784204283
927,927,[-1.55491979e+03  3.54393952e+02 -3.82655135e-03 -1.31641694e+07],1012,1022.5997893499184
928,928,[-1.51046959e+03  3.54393874e+02 -3.44737732e-03 -1.31641694e+07],1023,1023.8640302758087
929,929,[-1.60821932e+03  3.53393985e+02 -3.59831194e-03 -1.31641694e+07],1009,1023.0239785861503
930,930,[-1.50300696e+03  3.54394299e+02 -3.39607615e-03 -1.31641694e+07],845,1022.2166704896846
931,931,[-1.59525158e+03  3.54394440e+02 -4.03338528e-03 -1.31641694e+07],964,1022.4876550130382
932,932,[-1.60534489e+03  3.53393784e+02 -3.58520700e-03 -1.31641694e+07],299,1021.0430204527706
933,933,[-1.55178969e+03  3.55395453e+02 -4.55179700e-03 -1.31641694e+07],113,1022.520712234629
934,934,[-1.54267942e+03  3.54394132e+02 -3.95195961e-03 -1.31641694e+07],652,1022.9306062752652
935,935,[-1.49313771e+03  3.55395337e+02 -3.84061300e-03 -1.31641694e+07],39,1022.1280356985384
936,936,[-1.58252782e+03  3.53392811e+02 -3.56105837e-03 -1.31641694e+07],978,1024.2547364315317
937,937,[-1.57694921e+03  3.54393854e+02 -3.84365383e-03 -1.31641694e+07],945,1022.7471130709191
938,938,[-1.62979185e+03  3.53394322e+02 -3.82717547e-03 -1.31641694e+07],967,1021.5171806453736
939,939,[-1.57351819e+03  3.54393806e+02 -3.87492021e-03 -1.31641694e+07],520,1022.0760767621045
940,940,[-1.49566738e+03  3.55395124e+02 -4.01255633e-03 -1.31641694e+07],780,1021.8217731020271
941,941,[-1.60504317e+03  3.53392731e+02 -3.58508089e-03 -1.31641694e+07],909,1021.5992801528726
942,942,[-1.59053422e+03  3.54394578e+02 -3.97912247e-03 -1.31641694e+07],168,1020.88073280104
943,943,[-1.58513853e+03  3.54394292e+02 -4.08666682e-03 -1.31641694e+07],33,1022.8224058058844
944,944,[-1.46859526e+03  3.56396691e+02 -4.41462403e-03 -1.31641694e+07],213,1024.7538349265221
945,945,[-1.59250794e+03  3.53393630e+02 -3.52944275e-03 -1.31641694e+07],843,1020.4748875627938
946,946,[-1.49837340e+03  3.54394470e+02 -3.42745201e-03 -1.31641694e+07],74,1022.1961590343368
947,947,[-1.60232251e+03  3.53393865e+02 -3.52171963e-03 -1.31641694e+07],19,1021.6238444894938
948,948,[-1.62818007e+03  3.53392745e+02 -3.74584497e-03 -1.31641694e+07],800,1020.9893789703875
949,949,[-1.65291945e+03  3.54395225e+02 -4.83528239e-03 -1.31641694e+07],54,1020.8364292717049
950,950,[-1.59325473e+03  3.53392789e+02 -3.53361477e-03 -1.31641694e+07],385,1021.7641044150577
951,951,[-1.49583729e+03  3.55395516e+02 -3.92531936e-03 -1.31641694e+07],969,1022.8222385933334
952,952,[-1.54084759e+03  3.56396500e+02 -5.07651077e-03 -1.31641694e+07],642,1023.9103243650484
953,953,[-1.59837006e+03  3.53393078e+02 -3.55249408e-03 -1.31641694e+07],413,1021.3494947814158
954,954,[-1.61908953e+03  3.53393452e+02 -3.65336415e-03 -1.31641694e+07],212,1021.8343210959465
955,955,[-1.56080686e+03  3.54393931e+02 -3.82940135e-03 -1.31641694e+07],981,1022.134826665622
956,956,[-1.59476941e+03  3.53392670e+02 -3.52114638e-03 -1.31641694e+07],920,1022.7968914096856
957,957,[-1.57178583e+03  3.54393912e+02 -4.11378286e-03 -1.31641694e+07],1004,1025.5358592626933
958,958,[-1.60839002e+03  3.53393258e+02 -3.61629324e-03 -1.31641694e+07],599,1021.1919082398128
959,959,[-1.58543961e+03  3.54394223e+02 -4.10861622e-03 -1.31641694e+07],200,1022.5096431757197
960,960,[-1.45637326e+03  3.57397254e+02 -4.75147786e-03 -1.31641694e+07],322,1023.6982516173645
961,961,[-1.61334025e+03  3.53392699e+02 -3.65268822e-03 -1.31641694e+07],962,1021.490087720262
962,962,[-1.73261608e+03  3.53393008e+02 -4.89101615e-03 -1.31641694e+07],296,1019.295464095244
963,963,[-1.49914940e+03  3.55395173e+02 -3.88074748e-03 -1.31641694e+07],386,1023.7788429070193
964,964,[-1.61163216e+03  3.54393817e+02 -4.27190318e-03 -1.31641694e+07],633,1020.6222866825318
965,965,[-1.59490096e+03  3.53393165e+02 -3.53921628e-03 -1.31641694e+07],101,1022.8966843029307
966,966,[-1.60747333e+03  3.53393928e+02 -3.65995107e-03 -1.31641694e+07],165,1022.1943894688328
967,967,[-1.56913538e+03  3.55395035e+02 -4.55574743e-03 -1.31641694e+07],29,1020.402862753531
968,968,[-1.56828924e+03  3.54393905e+02 -3.90165789e-03 -1.31641694e+07],84,1021.4573304027274
969,969,[-1.51649044e+03  3.55395664e+02 -4.01111837e-03 -1.31641694e+07],59,1019.9006709893401
970,970,[-1.66882913e+03  3.54393812e+02 -5.09818866e-03 -1.31641694e+07],289,1020.6939523912066
971,971,[-1.60486302e+03  3.53392796e+02 -3.65079221e-03 -1.31641694e+07],106,1022.7595200786471
972,972,[-1.62331564e+03  3.53393102e+02 -3.72400983e-03 -1.31641694e+07],218,1022.7030556032734
973,973,[-1.52779308e+03  3.55395114e+02 -4.14595866e-03 -1.31641694e+07],96,1022.9384545575713
974,974,[-1.50200455e+03  3.55395384e+02 -3.92332782e-03 -1.31641694e+07],997,1021.7346899877471
975,975,[-1.60979364e+03  3.53393758e+02 -3.66614043e-03 -1.31641694e+07],799,1021.7740347435607
976,976,[-1.59399882e+03  3.54394305e+02 -4.09435303e-03 -1.31641694e+07],64,1021.776990908299
977,977,[-1.50670671e+03  3.55394962e+02 -3.90134278e-03 -1.31641694e+07],28,1022.1273680569815
978,978,[-1.59713119e+03  3.54394406e+02 -4.12856705e-03 -1.31641694e+07],190,1020.5051073587856
979,979,[-1.47536727e+03  3.56396996e+02 -4.41337541e-03 -1.31641694e+07],686,1025.2236216710064
980,980,[-1.49339604e+03  3.55395253e+02 -3.88373480e-03 -1.31641694e+07],1020,1023.1908158494168
981,981,[-1.63525551e+03  3.54394241e+02 -4.34402151e-03 -1.31641694e+07],192,1019.6795826973959
982,982,[-1.60505588e+03  3.53392911e+02 -3.55368680e-03 -1.31641694e+07],293,1023.2448555128734
983,983,[-1.58200518e+03  3.54395011e+02 -3.94375212e-03 -1.31641694e+07],34,1022.7022496883449
984,984,[-1.61659430e+03  3.53392847e+02 -3.72796852e-03 -1.31641694e+07],177,1023.1457428351263
985,985,[-1.58031193e+03  3.54393901e+02 -3.96076564e-03 -1.31641694e+07],69,1023.3133870228925
986,986,[-1.60430982e+03  3.53393518e+02 -3.62552998e-03 -1.31641694e+07],50,1022.1334234799122
987,987,[-1.46128676e+03  3.56396134e+02 -4.39348129e-03 -1.31641694e+07],331,1024.7363516900427
988,988,[-1.60043468e+03  3.53393065e+02 -3.57830336e-03 -1.31641694e+07],176,1021.4901400499095
989,989,[-1.62094000e+03  3.54394468e+02 -4.43356020e-03 -1.31641694e+07],667,1021.0441775007212
990,990,[-1.52469849e+03  3.57397141e+02 -5.37447818e-03 -1.31641694e+07],328,1023.1062140979451
991,991,[-1.56694042e+03  3.53393607e+02 -3.41265981e-03 -1.31641694e+07],600,1023.0300904403106
992,992,[-1.48361202e+03  3.55394932e+02 -3.98604716e-03 -1.31641694e+07],175,1023.6998897431183
993,993,[-1.50613519e+03  3.55395079e+02 -3.92014663e-03 -1.31641694e+07],93,1022.7087177111689
994,994,[-1.50684400e+03  3.54394015e+02 -3.49087783e-03 -1.31641694e+07],256,1023.699849326706
995,995,[-1.54444670e+03  3.54394300e+02 -3.91537328e-03 -1.31641694e+07],214,1025.2816264911235
996,996,[-1.62179522e+03  3.53392732e+02 -3.74330831e-03 -1.31641694e+07],45,1022.1299884014712
997,997,[-1.70861955e+03  3.53394437e+02 -4.82281629e-03 -1.31641694e+07],89,1018.6017887566948
998,998,[-1.60659090e+03  3.53393901e+02 -3.65296940e-03 -1.31641694e+07],153,1023.1356447686958
999,999,[-1.58685849e+03  3.53393142e+02 -3.43959786e-03 -1.31641694e+07],144,1022.725307658648
1000,1000,[-1.57177723e+03  3.53392766e+02 -3.41468914e-03 -1.31641694e+07],687,1021.4061160339224
1001,1001,[-1.58769160e+03  3.53392795e+02 -3.49019975e-03 -1.31641694e+07],152,1021.2970588233109
1002,1002,[-1.52481902e+03  3.55395778e+02 -4.17298098e-03 -1.31641694e+07],102,1021.662099328067
1003,1003,[-1.61005191e+03  3.53394252e+02 -3.65955463e-03 -1.31641694e+07],112,1021.5523225888487
1004,1004,[-1.65427634e+03  3.53392878e+02 -4.07092959e-03 -1.31641694e+07],154,1019.5172563860981
1005,1005,[-1.60554571e+03  3.53393326e+02 -3.66325616e-03 -1.31641694e+07],107,1022.2804894121663
1006,1006,[-1.57052004e+03  3.53393371e+02 -3.38188259e-03 -1.31641694e+07],595,1021.6685180225732
1007,1007,[-1.62227034e+03  3.53392841e+02 -3.77811319e-03 -1.31641694e+07],4,1021.867258494771
1008,1008,[-1.57126772e+03  3.55394963e+02 -4.83334498e-03 -1.31641694e+07],14,1023.1562183262721
1009,1009,[-1.63906102e+03  3.53393842e+02 -3.77100412e-03 -1.31641694e+07],217,1020.6290402968335
1010,1010,[-1.59750856e+03  3.53393332e+02 -3.52900494e-03 -1.31641694e+07],95,1021.2386877151858
1011,1011,[-1.53139782e+03  3.54393870e+02 -3.62882797e-03 -1.31641694e+07],13,1020.958652195713
1012,1012,[-1.56978263e+03  3.54395089e+02 -4.01976931e-03 -1.31641694e+07],197,1020.6556632514067
1013,1013,[-1.56720362e+03  3.54393998e+02 -3.95627964e-03 -1.31641694e+07],254,1022.8969389564365
1014,1014,[-1.60494615e+03  3.53392860e+02 -3.67856208e-03 -1.31641694e+07],145,1022.5260109060164
1015,1015,[-1.46792525e+03  3.56396221e+02 -4.42507540e-03 -1.31641694e+07],596,1024.418661837262
1016,1016,[-1.53869380e+03  3.54395072e+02 -3.98994226e-03 -1.31641694e+07],292,1023.8897575773179
1017,1017,[-1.54883338e+03  3.54395392e+02 -3.77040973e-03 -1.31641694e+07],24,1022.4275845035052
1018,1018,[-1.59181595e+03  3.53393369e+02 -3.57669520e-03 -1.31641694e+07],207,1022.8380046949666
1019,1019,[-1.62558218e+03  3.53393354e+02 -3.73821081e-03 -1.31641694e+07],5,1022.8944770433508
1020,1020,[-1.53647134e+03  3.55396515e+02 -4.22008406e-03 -1.31641694e+07],169,1017.9416357925651
1021,1021,[-1.59505357e+03  3.54394098e+02 -4.17801497e-03 -1.31641694e+07],193,1024.6727546065108
1022,1022,[-1.63049769e+03  3.53392690e+02 -3.77920546e-03 -1.31641694e+07],186,1021.6175453145909
1023,1023,[-1.60776846e+03  3.54394745e+02 -4.27849053e-03 -1.31641694e+07],178,1020.6322211249737
1024,1024,[-1.55861165e+03  3.54394979e+02 -3.81809359e-03 -1.31641694e+07],183,1022.674949628894
1025,1025,[-1.64185811e+03  3.53392861e+02 -3.73201194e-03 -1.31641694e+07],253,1021.436715896485
1026,1026,[-1.59916202e+03  3.53393019e+02 -3.55425255e-03 -1.31641694e+07],361,1022.4227299847428
1027,1027,[-1.62102909e+03  3.53392868e+02 -3.75562670e-03 -1.31641694e+07],201,1022.0866469405245
1028,1028,[-1.60200045e+03  3.53393496e+02 -3.62662826e-03 -1.31641694e+07],23,1022.0998711698808
1029,1029,[-1.55645515e+03  3.55395788e+02 -4.64737325e-03 -1.31641694e+07],182,1024.1831221181806
1030,1030,[-1.62768037e+03  3.53393133e+02 -3.66194638e-03 -1.31641694e+07],187,1021.537111015225
1031,1031,[-1.58642987e+03  3.53392660e+02 -3.50607090e-03 -1.31641694e+07],94,1022.97471621308
1032,1032,[-1.57355276e+03  3.55395038e+02 -4.70693237e-03 -1.31641694e+07],1033,1023.6581515199812
1033,1033,[-1.59132318e+03  3.53392795e+02 -3.54960383e-03 -1.31641694e+07],0,943.7010923846992
