,0,1,2,3
0,0,[-4.50757291e+03  3.36373775e+02 -4.24450241e-03 -1.31641694e+07],818,1070.7548670486358
1,1,[-4.45467566e+03  3.36373950e+02 -4.12868681e-03 -1.31641694e+07],623,1070.6810387452717
2,2,[-4.49137409e+03  3.36373789e+02 -4.39333202e-03 -1.31641694e+07],560,1070.9267873935232
3,3,[-4.53147895e+03  3.36373860e+02 -4.30221614e-03 -1.31641694e+07],364,1070.8296153813187
4,4,[-5.32506270e+03  3.34371655e+02 -4.92503217e-03 -1.31641694e+07],614,1069.1376282567478
5,5,[-3.94925629e+03  3.37374964e+02 -3.47458362e-03 -1.31641694e+07],263,1069.8718789466775
6,6,[-4.54340255e+03  3.36373906e+02 -4.28794099e-03 -1.31641694e+07],435,1071.3211466977107
7,7,[-3.63152892e+03  3.38376196e+02 -3.27890354e-03 -1.31641694e+07],257,1068.6064388997809
8,8,[-4.50676939e+03  3.36373820e+02 -4.29669394e-03 -1.31641694e+07],397,1070.082042881327
9,9,[-3.31702913e+03  3.39377226e+02 -3.19488136e-03 -1.31641694e+07],427,1070.466635474271
10,10,[-4.69112081e+03  3.35372895e+02 -4.12530647e-03 -1.31641694e+07],1029,1062.0495820385715
11,11,[-4.36888909e+03  3.36373771e+02 -4.00706699e-03 -1.31641694e+07],541,1068.26627659584
12,12,[-4.43610016e+03  3.36373784e+02 -4.13089347e-03 -1.31641694e+07],725,1070.430880172311
13,13,[-4.47755096e+03  3.36373788e+02 -4.27479435e-03 -1.31641694e+07],1019,1070.5084554347654
14,14,[-4.35551804e+03  3.36373780e+02 -4.04374291e-03 -1.31641694e+07],247,1069.8180861385003
15,15,[-4.47498049e+03  3.36373910e+02 -4.19975542e-03 -1.31641694e+07],566,1069.2794417887787
16,16,[-4.48636923e+03  3.36373851e+02 -4.39115703e-03 -1.31641694e+07],567,1068.1367843392206
17,17,[-4.43985529e+03  3.36373779e+02 -4.05583713e-03 -1.31641694e+07],626,1068.2714889563167
18,18,[-4.00458405e+03  3.37374891e+02 -3.56344891e-03 -1.31641694e+07],402,1060.0593581817711
19,19,[-4.48600642e+03  3.36373781e+02 -4.42465682e-03 -1.31641694e+07],1041,1066.543917489343
20,20,[-4.48070660e+03  3.36374025e+02 -4.21030758e-03 -1.31641694e+07],220,1070.4136242908148
21,21,[-4.51607234e+03  3.36373751e+02 -4.22809542e-03 -1.31641694e+07],268,1071.2018162692561
22,22,[-3.60587667e+03  3.38376194e+02 -3.19916438e-03 -1.31641694e+07],222,1068.6516127982547
23,23,[-4.48428188e+03  3.36373767e+02 -4.24462474e-03 -1.31641694e+07],1066,1070.1194871260188
24,24,[-4.46693265e+03  3.36373852e+02 -4.20341251e-03 -1.31641694e+07],1058,1069.9352623564048
25,25,[-3.32555521e+03  3.39377179e+02 -3.16378276e-03 -1.31641694e+07],990,1070.1425945412427
26,26,[-4.80822416e+03  3.35372769e+02 -4.40717067e-03 -1.31641694e+07],980,1067.2026363730101
27,27,[-4.46997015e+03  3.36373982e+02 -4.21614305e-03 -1.31641694e+07],595,1069.5747623553455
28,28,[-4.45627178e+03  3.36374067e+02 -4.17491785e-03 -1.31641694e+07],893,1070.239620950311
29,29,[-4.76574477e+03  3.35372753e+02 -4.33220430e-03 -1.31641694e+07],959,1070.6122166657206
30,30,[-4.35180455e+03  3.36373750e+02 -4.01327349e-03 -1.31641694e+07],831,1070.4782696968866
31,31,[-4.62352978e+03  3.36373936e+02 -4.50401602e-03 -1.31641694e+07],1042,1070.3921020154105
32,32,[-3.98189792e+03  3.37374883e+02 -3.48153703e-03 -1.31641694e+07],559,1068.0108955123014
33,33,[-3.96400414e+03  3.37374880e+02 -3.70150756e-03 -1.31641694e+07],895,1068.6027223460749
34,34,[-5.30008349e+03  3.35372768e+02 -5.13065013e-03 -1.31641694e+07],1023,1069.5398552419692
35,35,[-4.54839988e+03  3.36373905e+02 -4.27117658e-03 -1.31641694e+07],195,1070.7354045438417
36,36,[-3.99250058e+03  3.37374973e+02 -3.48821334e-03 -1.31641694e+07],602,1069.492716624148
37,37,[-4.47146774e+03  3.36374133e+02 -4.16512742e-03 -1.31641694e+07],261,1071.277018278733
38,38,[-4.52796152e+03  3.36373795e+02 -4.25773466e-03 -1.31641694e+07],967,1070.154430240722
39,39,[-3.78836848e+03  3.37374952e+02 -3.08276856e-03 -1.31641694e+07],611,1051.2426883724938
40,40,[-5.15499987e+03  3.34371575e+02 -4.13770518e-03 -1.31641694e+07],118,1024.38576827146
41,41,[-4.19985444e+03  3.36373766e+02 -3.31316587e-03 -1.31641694e+07],969,1013.2460027198395
42,42,[-5.31029248e+03  3.34371702e+02 -4.96795139e-03 -1.31641694e+07],837,1068.7568532631105
43,43,[-4.57658527e+03  3.36373787e+02 -4.38805903e-03 -1.31641694e+07],992,1070.6180973824576
44,44,[-4.45945491e+03  3.36373769e+02 -4.08967833e-03 -1.31641694e+07],175,1070.7776980277963
45,45,[-5.31241833e+03  3.34371550e+02 -4.80894659e-03 -1.31641694e+07],148,1066.3463058106058
46,46,[-4.51406496e+03  3.36373862e+02 -4.27382633e-03 -1.31641694e+07],508,1070.449645802394
47,47,[-4.44375702e+03  3.36373810e+02 -4.05851094e-03 -1.31641694e+07],820,1071.094740984963
48,48,[-4.44939275e+03  3.36373877e+02 -4.09959577e-03 -1.31641694e+07],609,1071.3109051365216
49,49,[-4.49356239e+03  3.36373804e+02 -4.09559216e-03 -1.31641694e+07],128,1071.216954298075
50,50,[-4.52782992e+03  3.36373750e+02 -4.28049865e-03 -1.31641694e+07],338,1071.350588869086
51,51,[-4.45093159e+03  3.36373783e+02 -4.10858075e-03 -1.31641694e+07],982,1070.387507620605
52,52,[-4.51304863e+03  3.36374097e+02 -4.28137835e-03 -1.31641694e+07],259,1070.513874107792
53,53,[-3.32850758e+03  3.39377181e+02 -3.22012627e-03 -1.31641694e+07],1048,1069.9842587534763
54,54,[-4.44804215e+03  3.36373923e+02 -4.09414364e-03 -1.31641694e+07],411,1070.6022658354093
55,55,[-3.31316402e+03  3.39377424e+02 -3.15678837e-03 -1.31641694e+07],971,1070.6084744212335
56,56,[-4.81472773e+03  3.35372843e+02 -4.42396038e-03 -1.31641694e+07],908,1068.287576162981
57,57,[-3.97943988e+03  3.37374940e+02 -3.49520694e-03 -1.31641694e+07],862,1068.7990656301813
58,58,[-4.49935966e+03  3.36373806e+02 -4.24831038e-03 -1.31641694e+07],605,1071.4402575412755
59,59,[-4.44266570e+03  3.36373956e+02 -4.05825897e-03 -1.31641694e+07],1002,1071.0355043680581
60,60,[-4.83616720e+03  3.35372840e+02 -4.41046563e-03 -1.31641694e+07],739,1067.6143347388713
61,61,[-4.53955400e+03  3.36373826e+02 -4.37394989e-03 -1.31641694e+07],583,1069.5486255667702
62,62,[-4.45438584e+03  3.36373828e+02 -4.18400161e-03 -1.31641694e+07],847,1070.8612581336865
63,63,[-4.50102637e+03  3.36373861e+02 -4.23794490e-03 -1.31641694e+07],523,1071.2293707547851
64,64,[-5.33550507e+03  3.34371670e+02 -4.87144260e-03 -1.31641694e+07],952,1069.3134885507895
65,65,[-4.47072980e+03  3.36373991e+02 -4.21545245e-03 -1.31641694e+07],438,1070.4166848078376
66,66,[-4.57956530e+03  3.36373759e+02 -4.43778858e-03 -1.31641694e+07],134,1069.3463359703771
67,67,[-4.49329135e+03  3.36373815e+02 -4.19449105e-03 -1.31641694e+07],186,1067.0413269370258
68,68,[-4.43043502e+03  3.36373785e+02 -4.08101356e-03 -1.31641694e+07],914,1069.9509932602932
69,69,[-3.33271355e+03  3.39377307e+02 -3.19805804e-03 -1.31641694e+07],726,1070.4218569097848
70,70,[-3.95652643e+03  3.37374973e+02 -3.61129144e-03 -1.31641694e+07],240,1069.7557310261109
71,71,[-4.47201133e+03  3.36373879e+02 -4.15336595e-03 -1.31641694e+07],627,1071.0742001510293
72,72,[-4.45322133e+03  3.36373872e+02 -4.12516676e-03 -1.31641694e+07],214,1071.2311750851973
73,73,[-4.36934550e+03  3.36373780e+02 -4.04305503e-03 -1.31641694e+07],809,1070.0470047826702
74,74,[-4.02237912e+03  3.37374998e+02 -3.70643104e-03 -1.31641694e+07],215,1066.1484510156265
75,75,[-4.76716979e+03  3.35372654e+02 -4.40168279e-03 -1.31641694e+07],221,1066.216238953076
76,76,[-4.47478147e+03  3.36373750e+02 -4.22284748e-03 -1.31641694e+07],858,1070.4791615276758
77,77,[-4.50017305e+03  3.36373927e+02 -4.35267651e-03 -1.31641694e+07],388,1069.7987896359218
78,78,[-4.50122737e+03  3.36373777e+02 -4.20206620e-03 -1.31641694e+07],827,1070.8551616594448
79,79,[-3.90237155e+03  3.37374880e+02 -3.35086849e-03 -1.31641694e+07],363,1062.1980289679775
80,80,[-3.21433256e+03  3.39377307e+02 -2.89150879e-03 -1.31641694e+07],447,1060.5042850012467
81,81,[-4.51044903e+03  3.36373910e+02 -4.25650930e-03 -1.31641694e+07],751,1068.9365773798622
82,82,[-3.30125394e+03  3.39377088e+02 -3.12423472e-03 -1.31641694e+07],1046,1070.7327976635709
83,83,[-4.52484090e+03  3.36373853e+02 -4.29278761e-03 -1.31641694e+07],909,1071.3784700412377
84,84,[-4.50788987e+03  3.36373859e+02 -4.16671180e-03 -1.31641694e+07],120,1070.6485091950515
85,85,[-4.46568785e+03  3.36373823e+02 -4.12613185e-03 -1.31641694e+07],163,1071.07139520186
86,86,[-4.49240579e+03  3.36373911e+02 -4.16864390e-03 -1.31641694e+07],717,1070.425787087553
87,87,[-3.21718168e+03  3.39377110e+02 -2.88352816e-03 -1.31641694e+07],915,1062.7650194964237
88,88,[-3.53456234e+03  3.38376280e+02 -3.14517843e-03 -1.31641694e+07],400,1066.112933614776
89,89,[-4.49483150e+03  3.36373873e+02 -4.21454118e-03 -1.31641694e+07],801,1070.5098461883244
90,90,[-4.38707779e+03  3.36373897e+02 -4.02650612e-03 -1.31641694e+07],857,1070.9978909056097
91,91,[-4.02445737e+03  3.37374979e+02 -3.69480753e-03 -1.31641694e+07],1064,1068.3420665218637
92,92,[-4.43478502e+03  3.36373905e+02 -4.05566013e-03 -1.31641694e+07],585,1069.4039930211736
93,93,[-4.46783436e+03  3.36373855e+02 -4.14477790e-03 -1.31641694e+07],716,1071.5008741610789
94,94,[-5.31992520e+03  3.34371702e+02 -4.84452915e-03 -1.31641694e+07],429,1065.9921996190687
95,95,[-4.47508017e+03  3.36373763e+02 -4.24866753e-03 -1.31641694e+07],825,1070.312491030469
96,96,[-4.49367156e+03  3.36373901e+02 -4.34856740e-03 -1.31641694e+07],704,1070.5118375879786
97,97,[-5.01881402e+03  3.35372698e+02 -4.50367562e-03 -1.31641694e+07],230,1069.4522555180838
98,98,[-4.48779048e+03  3.36373902e+02 -4.20621630e-03 -1.31641694e+07],1000,1069.8234505362702
99,99,[-4.47139545e+03  3.36373862e+02 -4.20441002e-03 -1.31641694e+07],575,1071.1647945193133
100,100,[-5.30312518e+03  3.34371572e+02 -4.80718508e-03 -1.31641694e+07],382,1065.3452384810682
101,101,[-3.98098588e+03  3.37374868e+02 -3.50443500e-03 -1.31641694e+07],587,1067.9047994311059
102,102,[-4.45189640e+03  3.36373800e+02 -4.09611505e-03 -1.31641694e+07],604,1070.632529596298
103,103,[-3.89621229e+03  3.37374940e+02 -3.33852375e-03 -1.31641694e+07],535,1066.3581816285307
104,104,[-4.48153623e+03  3.36373862e+02 -4.23381034e-03 -1.31641694e+07],608,1070.492382494829
105,105,[-3.31009053e+03  3.39377258e+02 -3.14205630e-03 -1.31641694e+07],864,1071.3339154934963
106,106,[-4.75880824e+03  3.35372701e+02 -4.36392894e-03 -1.31641694e+07],335,1069.255679186202
107,107,[-4.49697565e+03  3.36373844e+02 -4.25271898e-03 -1.31641694e+07],275,1070.598887847446
108,108,[-4.45891449e+03  3.36373861e+02 -4.10353562e-03 -1.31641694e+07],93,1070.6823367842846
109,109,[-5.34522899e+03  3.34371554e+02 -4.82918643e-03 -1.31641694e+07],773,1069.9877309772708
110,110,[-4.35785319e+03  3.36373797e+02 -3.97906137e-03 -1.31641694e+07],271,1070.760890091834
111,111,[-4.60094409e+03  3.36373847e+02 -4.41787830e-03 -1.31641694e+07],817,1070.6498779158687
112,112,[-5.32943540e+03  3.34371572e+02 -4.84406671e-03 -1.31641694e+07],274,1069.2136657583424
113,113,[-4.51941586e+03  3.36373930e+02 -4.28495210e-03 -1.31641694e+07],955,1071.042516705107
114,114,[-4.44923615e+03  3.36373797e+02 -4.06263105e-03 -1.31641694e+07],374,1070.8524032217856
115,115,[-3.98998883e+03  3.37374973e+02 -3.47598024e-03 -1.31641694e+07],407,1070.9899320126983
116,116,[-4.03311226e+03  3.37375048e+02 -3.74151058e-03 -1.31641694e+07],1018,1069.4673101556414
117,117,[-4.43631901e+03  3.36373786e+02 -4.06769809e-03 -1.31641694e+07],797,1070.5791898289006
118,118,[-4.47229845e+03  3.36373872e+02 -4.18313207e-03 -1.31641694e+07],1022,1071.7433706377574
119,119,[-3.61169057e+03  3.38376096e+02 -3.21075484e-03 -1.31641694e+07],389,1069.7245693298012
120,120,[-4.45892520e+03  3.36373844e+02 -4.14649044e-03 -1.31641694e+07],988,1071.5577990769082
121,121,[-4.12351811e+03  3.37374990e+02 -4.00463270e-03 -1.31641694e+07],835,1070.7634775300282
122,122,[-3.95745797e+03  3.37374890e+02 -3.62504831e-03 -1.31641694e+07],285,1070.3175593790888
123,123,[-4.49252585e+03  3.36373801e+02 -4.14736906e-03 -1.31641694e+07],677,1069.3647028752614
124,124,[-4.62330991e+03  3.36373833e+02 -4.48508854e-03 -1.31641694e+07],656,1070.4246888096798
125,125,[-4.55324483e+03  3.36373777e+02 -4.31067356e-03 -1.31641694e+07],954,1070.693857289748
126,126,[-5.33453463e+03  3.34371666e+02 -4.84739602e-03 -1.31641694e+07],600,1068.7085673683457
127,127,[-3.31948838e+03  3.39377105e+02 -3.19039260e-03 -1.31641694e+07],688,1071.19470348733
128,128,[-4.49917917e+03  3.36374028e+02 -4.24480373e-03 -1.31641694e+07],736,1071.697384314165
129,129,[-5.33022083e+03  3.34371546e+02 -4.87500430e-03 -1.31641694e+07],554,1067.063789388783
130,130,[-4.58897586e+03  3.36373775e+02 -4.46556999e-03 -1.31641694e+07],58,1070.8866423184986
131,131,[-4.57017344e+03  3.36373795e+02 -4.40264338e-03 -1.31641694e+07],902,1071.02380229585
132,132,[-2.99466873e+03  3.40378303e+02 -2.78592676e-03 -1.31641694e+07],888,1069.5313174136024
133,133,[-4.47672371e+03  3.36373891e+02 -4.18480703e-03 -1.31641694e+07],975,1071.3967741090241
134,134,[-4.47121139e+03  3.36373993e+02 -4.18190320e-03 -1.31641694e+07],632,1071.6209101094364
135,135,[-4.78534771e+03  3.35372673e+02 -4.40903147e-03 -1.31641694e+07],598,1068.5741751486312
136,136,[-3.90737575e+03  3.37374900e+02 -3.36445327e-03 -1.31641694e+07],165,1059.739766518997
137,137,[-4.86311814e+03  3.35372658e+02 -4.40238484e-03 -1.31641694e+07],509,1057.430003103024
138,138,[-4.44025586e+03  3.36373764e+02 -4.17170364e-03 -1.31641694e+07],963,1069.4158613085472
139,139,[-5.12911792e+03  3.35372644e+02 -5.07269635e-03 -1.31641694e+07],530,1069.3302757316058
140,140,[-3.61668909e+03  3.38376169e+02 -3.24247271e-03 -1.31641694e+07],160,1069.0421693494516
141,141,[-4.45346579e+03  3.36374050e+02 -4.12232917e-03 -1.31641694e+07],162,1069.5251699450482
142,142,[-4.46223509e+03  3.36373787e+02 -4.21512834e-03 -1.31641694e+07],774,1070.223653353959
143,143,[-4.02442898e+03  3.37374959e+02 -3.72291490e-03 -1.31641694e+07],973,1069.1821262499693
144,144,[-4.01999506e+03  3.37374888e+02 -3.72105756e-03 -1.31641694e+07],133,1068.7740967681937
145,145,[-4.49309947e+03  3.36373814e+02 -4.27957039e-03 -1.31641694e+07],639,1070.4151671859697
146,146,[-3.99644667e+03  3.37374928e+02 -3.53974041e-03 -1.31641694e+07],945,1070.3034163879986
147,147,[-3.00273940e+03  3.40378270e+02 -2.80036166e-03 -1.31641694e+07],951,1070.72334632563
148,148,[-4.50236860e+03  3.36373796e+02 -4.27297587e-03 -1.31641694e+07],664,1071.718845761448
149,149,[-3.57189843e+03  3.38375981e+02 -3.26911246e-03 -1.31641694e+07],956,1066.7500474296003
150,150,[-5.30832187e+03  3.34371553e+02 -4.92831930e-03 -1.31641694e+07],1034,1059.4205776410963
151,151,[-5.27483434e+03  3.34371592e+02 -4.82781444e-03 -1.31641694e+07],265,1059.9058398118245
152,152,[-4.47616048e+03  3.36373811e+02 -4.28629947e-03 -1.31641694e+07],83,1068.3000301308787
153,153,[-4.45755958e+03  3.36373943e+02 -4.14334496e-03 -1.31641694e+07],278,1071.3460793628233
154,154,[-5.32391497e+03  3.34371551e+02 -4.79629918e-03 -1.31641694e+07],785,1068.266458749278
155,155,[-3.31829959e+03  3.39377306e+02 -3.11642324e-03 -1.31641694e+07],744,1070.9085812585813
156,156,[-4.46460401e+03  3.36373991e+02 -4.15840403e-03 -1.31641694e+07],50,1071.2167140645124
157,157,[-4.49732482e+03  3.36373906e+02 -4.16429712e-03 -1.31641694e+07],588,1070.2170776653509
158,158,[-4.50182080e+03  3.36373927e+02 -4.25284421e-03 -1.31641694e+07],289,1069.2766276087993
159,159,[-4.44933776e+03  3.36373796e+02 -4.11163610e-03 -1.31641694e+07],153,1070.882452406018
160,160,[-4.38917709e+03  3.36373908e+02 -4.02095906e-03 -1.31641694e+07],738,1071.4067841953668
161,161,[-3.95892738e+03  3.37375150e+02 -3.63720321e-03 -1.31641694e+07],1044,1070.489476793169
162,162,[-4.51380943e+03  3.36373831e+02 -4.28679427e-03 -1.31641694e+07],191,1071.4019883277201
163,163,[-4.48764333e+03  3.36374003e+02 -4.09541174e-03 -1.31641694e+07],777,1071.553309231831
164,164,[-3.98844977e+03  3.37374989e+02 -3.46855043e-03 -1.31641694e+07],105,1071.1384031777663
165,165,[-3.31756286e+03  3.39377118e+02 -3.14034359e-03 -1.31641694e+07],625,1071.4143699995248
166,166,[-4.01100898e+03  3.37375058e+02 -3.56580025e-03 -1.31641694e+07],330,1069.7529787601957
167,167,[-4.02099124e+03  3.37374928e+02 -3.71274523e-03 -1.31641694e+07],267,1067.9210585047017
168,168,[-4.48159995e+03  3.36373919e+02 -4.38093025e-03 -1.31641694e+07],805,1069.8934620794937
169,169,[-4.50196290e+03  3.36373817e+02 -4.17900247e-03 -1.31641694e+07],558,1070.5298092476685
170,170,[-3.61825901e+03  3.38376083e+02 -3.24176031e-03 -1.31641694e+07],768,1067.2835274732035
171,171,[-4.13005638e+03  3.37374931e+02 -4.04043132e-03 -1.31641694e+07],6,1069.8100954215683
172,172,[-4.50956754e+03  3.36373968e+02 -4.39841000e-03 -1.31641694e+07],597,1070.9241339482553
173,173,[-3.59772482e+03  3.38375997e+02 -3.17021500e-03 -1.31641694e+07],354,1069.4995757154938
174,174,[-4.47482637e+03  3.36373954e+02 -4.39896985e-03 -1.31641694e+07],537,1070.9862130713896
175,175,[-4.48047248e+03  3.36373840e+02 -4.12429489e-03 -1.31641694e+07],48,1071.726157739559
176,176,[-4.80013112e+03  3.35372737e+02 -4.33551122e-03 -1.31641694e+07],838,1069.6798322677114
177,177,[-5.76802804e+03  3.35372654e+02 -5.04829325e-03 -1.31641694e+07],811,1070.8644967214914
178,178,[-3.32461724e+03  3.39377333e+02 -3.18374501e-03 -1.31641694e+07],248,1071.2158030807389
179,179,[-3.96787081e+03  3.37374902e+02 -3.65035534e-03 -1.31641694e+07],948,1068.0270996161992
180,180,[-4.51822137e+03  3.36373817e+02 -4.35082502e-03 -1.31641694e+07],849,1071.1852754049964
181,181,[-4.47796854e+03  3.36373756e+02 -4.22495880e-03 -1.31641694e+07],391,1070.9417709494855
182,182,[-2.76598430e+03  3.41379523e+02 -2.77172351e-03 -1.31641694e+07],812,1069.019890583661
183,183,[-3.24049278e+03  3.39377487e+02 -2.90658241e-03 -1.31641694e+07],414,1063.094170759044
184,184,[-4.51819189e+03  3.36373871e+02 -4.34014734e-03 -1.31641694e+07],870,1070.633735482182
185,185,[-4.13646672e+03  3.37375103e+02 -4.03200806e-03 -1.31641694e+07],234,1070.3049790971295
186,186,[-4.46988241e+03  3.36373821e+02 -4.18861922e-03 -1.31641694e+07],37,1071.619705603127
187,187,[-5.30371345e+03  3.34371827e+02 -4.84761636e-03 -1.31641694e+07],591,1069.3457726617748
188,188,[-4.46582174e+03  3.36373985e+02 -4.18596956e-03 -1.31641694e+07],532,1071.2267914220363
189,189,[-3.05709410e+03  3.40378411e+02 -3.01173413e-03 -1.31641694e+07],417,1070.3215384153766
190,190,[-3.62435211e+03  3.38376021e+02 -3.22709950e-03 -1.31641694e+07],557,1070.144903243867
191,191,[-4.51366553e+03  3.36373884e+02 -4.28484128e-03 -1.31641694e+07],384,1071.3426017568577
192,192,[-4.38636672e+03  3.36373794e+02 -4.00935001e-03 -1.31641694e+07],538,1071.1721276760302
193,193,[-3.95732091e+03  3.37374897e+02 -3.64016188e-03 -1.31641694e+07],1032,1071.1662528089364
194,194,[-4.60233802e+03  3.36373771e+02 -4.49926104e-03 -1.31641694e+07],705,1071.1923379295306
195,195,[-4.51829223e+03  3.36373786e+02 -4.28200685e-03 -1.31641694e+07],543,1071.7743779281427
196,196,[-4.02404739e+03  3.37375109e+02 -3.72134073e-03 -1.31641694e+07],224,1069.6505252502677
197,197,[-4.56941027e+03  3.36374013e+02 -4.46102300e-03 -1.31641694e+07],584,1071.0529453927334
198,198,[-4.62172591e+03  3.36373889e+02 -4.47100010e-03 -1.31641694e+07],1031,1069.4741799480578
199,199,[-3.90708428e+03  3.37375037e+02 -3.33518647e-03 -1.31641694e+07],72,1068.7085254586616
200,200,[-4.62119811e+03  3.36373778e+02 -4.44886140e-03 -1.31641694e+07],63,1070.434051150814
201,201,[-4.46737758e+03  3.36373842e+02 -4.15574262e-03 -1.31641694e+07],188,1070.9774536135585
202,202,[-4.97529690e+03  3.35372773e+02 -4.41073212e-03 -1.31641694e+07],863,1070.393126904664
203,203,[-4.50342621e+03  3.36373761e+02 -4.21528570e-03 -1.31641694e+07],994,1070.6779207762538
204,204,[-4.49495574e+03  3.36373822e+02 -4.20218794e-03 -1.31641694e+07],49,1069.3050430558947
205,205,[-3.98456911e+03  3.37374891e+02 -3.61353332e-03 -1.31641694e+07],156,1070.9818560004717
206,206,[-4.04837289e+03  3.37375191e+02 -3.77847091e-03 -1.31641694e+07],416,1067.9024680255197
207,207,[-4.49356466e+03  3.36374011e+02 -4.29031539e-03 -1.31641694e+07],178,1070.6358033486495
208,208,[-4.44161080e+03  3.36373769e+02 -4.15389738e-03 -1.31641694e+07],357,1070.4955766136243
209,209,[-4.08792336e+03  3.37374887e+02 -3.78433596e-03 -1.31641694e+07],1050,1070.0000878873866
210,210,[-4.49400080e+03  3.36373761e+02 -4.22663292e-03 -1.31641694e+07],670,1070.8984333358258
211,211,[-3.30858859e+03  3.39377104e+02 -3.10895684e-03 -1.31641694e+07],21,1070.9054474805616
212,212,[-3.61650920e+03  3.38375975e+02 -3.19929909e-03 -1.31641694e+07],1065,1069.4701621643765
213,213,[-5.34075997e+03  3.34371558e+02 -4.83361390e-03 -1.31641694e+07],127,1065.8481524750127
214,214,[-4.50377886e+03  3.36373973e+02 -4.29144725e-03 -1.31641694e+07],401,1071.6051940124676
215,215,[-4.48402873e+03  3.36373780e+02 -4.31288574e-03 -1.31641694e+07],194,1071.6034448482728
216,216,[-3.60299192e+03  3.38376373e+02 -3.18287286e-03 -1.31641694e+07],264,1070.7835203591087
217,217,[-5.25963317e+03  3.34371610e+02 -4.75999796e-03 -1.31641694e+07],180,1068.5743533639509
218,218,[-4.45075910e+03  3.36373935e+02 -4.12179389e-03 -1.31641694e+07],599,1070.1385286329814
219,219,[-4.99249578e+03  3.35372710e+02 -4.42802914e-03 -1.31641694e+07],1025,1068.790881020015
220,220,[-4.50396366e+03  3.36373865e+02 -4.25580411e-03 -1.31641694e+07],732,1071.8437817485842
221,221,[-4.51940923e+03  3.36373766e+02 -4.32976472e-03 -1.31641694e+07],192,1071.5956030624209
222,222,[-4.53954100e+03  3.36374007e+02 -4.36833408e-03 -1.31641694e+07],255,1071.82747979806
223,223,[-4.02219498e+03  3.37374932e+02 -3.70253448e-03 -1.31641694e+07],193,1070.7910144636276
224,224,[-4.60856691e+03  3.36373799e+02 -4.48726747e-03 -1.31641694e+07],99,1071.2403917299225
225,225,[-3.96965591e+03  3.37374962e+02 -3.56868310e-03 -1.31641694e+07],848,1070.222616251661
226,226,[-4.56711796e+03  3.36373776e+02 -4.32073440e-03 -1.31641694e+07],752,1069.9866609115436
227,227,[-4.49637468e+03  3.36373947e+02 -4.35855026e-03 -1.31641694e+07],907,1070.913079858244
228,228,[-3.00357245e+03  3.40378354e+02 -2.79801946e-03 -1.31641694e+07],387,1070.4056061637216
229,229,[-4.82242612e+03  3.35372820e+02 -4.35585895e-03 -1.31641694e+07],277,1068.801667958788
230,230,[-4.51146612e+03  3.36373810e+02 -4.27626649e-03 -1.31641694e+07],633,1071.5288488678304
231,231,[-4.03528686e+03  3.37375259e+02 -3.69417346e-03 -1.31641694e+07],419,1068.8110622000625
232,232,[-3.60417531e+03  3.38376030e+02 -3.19046801e-03 -1.31641694e+07],356,1068.1859190002826
233,233,[-4.48562744e+03  3.36373870e+02 -4.37405759e-03 -1.31641694e+07],341,1070.986090416861
234,234,[-4.44936548e+03  3.36373868e+02 -4.13454126e-03 -1.31641694e+07],636,1071.2848050206221
235,235,[-4.02344149e+03  3.37374982e+02 -3.69865256e-03 -1.31641694e+07],353,1068.7557344001075
236,236,[-4.48974406e+03  3.36373806e+02 -4.18395914e-03 -1.31641694e+07],879,1070.2803341549904
237,237,[-3.30823872e+03  3.39377154e+02 -3.09455842e-03 -1.31641694e+07],164,1070.3631471803328
238,238,[-4.51019765e+03  3.36373876e+02 -4.20991703e-03 -1.31641694e+07],607,1069.843591522719
239,239,[-2.77036807e+03  3.41379972e+02 -2.78852284e-03 -1.31641694e+07],889,1067.3038645210966
240,240,[-4.45876373e+03  3.36373903e+02 -4.10152463e-03 -1.31641694e+07],695,1071.6147475009618
241,241,[-4.14439665e+03  3.37375062e+02 -4.01598430e-03 -1.31641694e+07],376,1069.9019778572865
242,242,[-4.05337914e+03  3.37374971e+02 -3.75220227e-03 -1.31641694e+07],404,1070.1109499969998
243,243,[-3.95222819e+03  3.37375020e+02 -3.62331926e-03 -1.31641694e+07],807,1071.075578036997
244,244,[-4.52957072e+03  3.36373774e+02 -4.27368953e-03 -1.31641694e+07],965,1069.8271670934723
245,245,[-4.55001940e+03  3.36373808e+02 -4.21824166e-03 -1.31641694e+07],405,1070.3251974272462
246,246,[-3.61955285e+03  3.38376067e+02 -3.18847509e-03 -1.31641694e+07],441,1066.423451908057
247,247,[-4.46470071e+03  3.36373772e+02 -4.16556314e-03 -1.31641694e+07],834,1071.908916727817
248,248,[-4.49600857e+03  3.36373914e+02 -4.25209550e-03 -1.31641694e+07],548,1071.3007608939347
249,249,[-4.59510498e+03  3.36373931e+02 -4.42609955e-03 -1.31641694e+07],440,1070.1641732159023
250,250,[-5.33526510e+03  3.34371703e+02 -4.83450092e-03 -1.31641694e+07],606,1068.886226471436
251,251,[-4.79308354e+03  3.35372728e+02 -4.44333329e-03 -1.31641694e+07],989,1068.8975833895877
252,252,[-3.04941764e+03  3.40378205e+02 -2.98027682e-03 -1.31641694e+07],347,1070.9965270295024
253,253,[-3.04920703e+03  3.40378576e+02 -2.96376850e-03 -1.31641694e+07],378,1067.1871581373582
254,254,[-2.99715904e+03  3.40378613e+02 -2.79456248e-03 -1.31641694e+07],655,1070.5909274704381
255,255,[-4.47667606e+03  3.36373858e+02 -4.16732680e-03 -1.31641694e+07],47,1071.1675050438118
256,256,[-4.13104731e+03  3.37375250e+02 -4.02864847e-03 -1.31641694e+07],1055,1070.879281359381
257,257,[-4.52725924e+03  3.36373790e+02 -4.32959758e-03 -1.31641694e+07],610,1071.9383988877441
258,258,[-4.77612533e+03  3.35372748e+02 -4.43255905e-03 -1.31641694e+07],430,1069.6854173886047
259,259,[-4.47459947e+03  3.36373749e+02 -4.25590869e-03 -1.31641694e+07],437,1071.6886100215115
260,260,[-4.13775780e+03  3.37374989e+02 -4.04828774e-03 -1.31641694e+07],316,1070.7577812955356
261,261,[-3.95628145e+03  3.37374884e+02 -3.63959766e-03 -1.31641694e+07],525,1071.7735088175368
262,262,[-4.79309175e+03  3.35372791e+02 -4.45431276e-03 -1.31641694e+07],243,1067.9925336492288
263,263,[-4.49143721e+03  3.36373824e+02 -4.26644394e-03 -1.31641694e+07],578,1071.9722400785863
264,264,[-5.80145921e+03  3.35372656e+02 -5.02138188e-03 -1.31641694e+07],71,1071.1916483470848
265,265,[-4.49972571e+03  3.36374177e+02 -4.25379046e-03 -1.31641694e+07],900,1071.3786206501702
266,266,[-3.61038276e+03  3.38376039e+02 -3.24064097e-03 -1.31641694e+07],798,1071.0428249147324
267,267,[-3.32169104e+03  3.39377247e+02 -3.20004184e-03 -1.31641694e+07],85,1071.3283329903138
268,268,[-4.55116551e+03  3.36373751e+02 -4.36091387e-03 -1.31641694e+07],368,1071.8300578835765
269,269,[-4.79370458e+03  3.35372695e+02 -4.48273342e-03 -1.31641694e+07],976,1069.1041182917966
270,270,[-3.33046662e+03  3.39377092e+02 -3.21787698e-03 -1.31641694e+07],1049,1071.0034363976065
271,271,[-4.47903241e+03  3.36373764e+02 -4.28160114e-03 -1.31641694e+07],544,1071.495645502649
272,272,[-4.80046956e+03  3.35372760e+02 -4.44556439e-03 -1.31641694e+07],966,1069.986231573919
273,273,[-4.80506139e+03  3.35372890e+02 -4.43762787e-03 -1.31641694e+07],842,1069.692052981128
274,274,[-3.32038901e+03  3.39377233e+02 -3.19984773e-03 -1.31641694e+07],1068,1071.4933888403502
275,275,[-4.53352629e+03  3.36373802e+02 -4.36466241e-03 -1.31641694e+07],197,1071.5027290910627
276,276,[-3.89850650e+03  3.37375075e+02 -3.37768140e-03 -1.31641694e+07],266,1067.2785525662657
277,277,[-4.46242986e+03  3.36373850e+02 -4.22306589e-03 -1.31641694e+07],113,1071.1530646579981
278,278,[-4.48820564e+03  3.36373816e+02 -4.28061075e-03 -1.31641694e+07],346,1071.375531514463
279,279,[-3.62406026e+03  3.38376289e+02 -3.26414748e-03 -1.31641694e+07],887,1070.627379273135
280,280,[-5.24184434e+03  3.34371563e+02 -4.88522296e-03 -1.31641694e+07],59,1066.554169739291
281,281,[-4.47980279e+03  3.36373819e+02 -4.26029232e-03 -1.31641694e+07],531,1070.5610111422345
282,282,[-4.49451075e+03  3.36373816e+02 -4.27570765e-03 -1.31641694e+07],443,1070.7304744005214
283,283,[-5.31449753e+03  3.34371584e+02 -4.89887344e-03 -1.31641694e+07],770,1065.8968893000679
284,284,[-4.35109727e+03  3.36373843e+02 -4.05091165e-03 -1.31641694e+07],131,1068.8694857804226
285,285,[-3.31191068e+03  3.39377365e+02 -3.14736633e-03 -1.31641694e+07],872,1071.4672601804311
286,286,[-4.02670344e+03  3.37374980e+02 -3.74519496e-03 -1.31641694e+07],675,1068.3706362647004
287,287,[-4.71672929e+03  3.35372786e+02 -4.27779500e-03 -1.31641694e+07],340,1065.4449524698332
288,288,[-4.50251540e+03  3.36373802e+02 -4.35138852e-03 -1.31641694e+07],403,1070.4737596407267
289,289,[-4.44864000e+03  3.36373867e+02 -4.17971593e-03 -1.31641694e+07],459,1071.3465860858626
290,290,[-4.80769749e+03  3.35372669e+02 -4.43742130e-03 -1.31641694e+07],679,1069.2587526405548
291,291,[-4.44343441e+03  3.36373955e+02 -4.13143381e-03 -1.31641694e+07],362,1069.2946132914842
292,292,[-4.48711297e+03  3.36374008e+02 -4.21297025e-03 -1.31641694e+07],445,1069.8933596760894
293,293,[-4.78555227e+03  3.35372654e+02 -4.47781197e-03 -1.31641694e+07],650,1064.3251688725534
294,294,[-3.32376758e+03  3.39377116e+02 -3.21156663e-03 -1.31641694e+07],719,1069.767684258925
295,295,[-3.31394312e+03  3.39377105e+02 -3.15248848e-03 -1.31641694e+07],270,1071.0005494349632
296,296,[-2.99769406e+03  3.40378602e+02 -2.81318569e-03 -1.31641694e+07],337,1069.8737538167495
297,297,[-3.55327860e+03  3.38376016e+02 -3.15039689e-03 -1.31641694e+07],295,1068.7220335090553
298,298,[-4.47083440e+03  3.36373777e+02 -4.23000203e-03 -1.31641694e+07],90,1070.8639506560137
299,299,[-4.50398051e+03  3.36373878e+02 -4.29135362e-03 -1.31641694e+07],252,1070.5238515187482
300,300,[-3.55911833e+03  3.38376208e+02 -3.18406339e-03 -1.31641694e+07],360,1066.9591774891373
301,301,[-4.52734456e+03  3.36373755e+02 -4.36670526e-03 -1.31641694e+07],696,1069.8318182011003
302,302,[-4.51527854e+03  3.36373939e+02 -4.30903713e-03 -1.31641694e+07],372,1070.5397972158248
303,303,[-3.96451741e+03  3.37374982e+02 -3.67478903e-03 -1.31641694e+07],958,1070.0278062806362
304,304,[-4.49827302e+03  3.36373856e+02 -4.21848853e-03 -1.31641694e+07],115,1068.6765025749405
305,305,[-4.44075362e+03  3.36373776e+02 -4.09276402e-03 -1.31641694e+07],947,1069.4844848714672
306,306,[-3.95747897e+03  3.37374938e+02 -3.65139159e-03 -1.31641694e+07],174,1069.839118140739
307,307,[-4.74539595e+03  3.35372674e+02 -4.29336665e-03 -1.31641694e+07],233,1064.9375507415123
308,308,[-4.44782512e+03  3.36373835e+02 -4.13048160e-03 -1.31641694e+07],205,1069.457323727608
309,309,[-4.61594794e+03  3.36373796e+02 -4.47729196e-03 -1.31641694e+07],201,1070.6847070003014
310,310,[-3.97689388e+03  3.37375079e+02 -3.69825115e-03 -1.31641694e+07],850,1068.7191044567603
311,311,[-4.02429223e+03  3.37374899e+02 -3.72788266e-03 -1.31641694e+07],731,1069.7719161860464
312,312,[-4.49941801e+03  3.36373780e+02 -4.27680483e-03 -1.31641694e+07],995,1070.693170137547
313,313,[-3.22058094e+03  3.39377225e+02 -2.91187015e-03 -1.31641694e+07],878,1068.935838263631
314,314,[-4.48779254e+03  3.36373754e+02 -4.17160065e-03 -1.31641694e+07],642,1069.2663112592418
315,315,[-3.31870167e+03  3.39377159e+02 -3.17120311e-03 -1.31641694e+07],979,1070.573526079474
316,316,[-4.49034939e+03  3.36373806e+02 -4.20989945e-03 -1.31641694e+07],343,1071.0875394021118
317,317,[-2.77154913e+03  3.41379384e+02 -2.79793199e-03 -1.31641694e+07],643,1068.8609600642542
318,318,[-4.45449868e+03  3.36373970e+02 -4.17293049e-03 -1.31641694e+07],894,1070.6128992260637
319,319,[-4.47235163e+03  3.36374002e+02 -4.21004845e-03 -1.31641694e+07],181,1070.649152176532
320,320,[-2.77236231e+03  3.41379414e+02 -2.80319414e-03 -1.31641694e+07],871,1067.6075670965124
321,321,[-4.49120801e+03  3.36373759e+02 -4.42763904e-03 -1.31641694e+07],542,1069.4894567271117
322,322,[-4.43969420e+03  3.36373851e+02 -4.12340034e-03 -1.31641694e+07],2,1070.0262600944116
323,323,[-4.02065247e+03  3.37374962e+02 -3.71553745e-03 -1.31641694e+07],172,1070.3024480346223
324,324,[-4.75455516e+03  3.35372884e+02 -4.40698818e-03 -1.31641694e+07],399,1068.7595984504862
325,325,[-5.46554316e+03  3.35372851e+02 -5.06276314e-03 -1.31641694e+07],524,1070.6165938470076
326,326,[-4.77642494e+03  3.35372695e+02 -4.41523007e-03 -1.31641694e+07],620,1067.9879817340359
327,327,[-4.46662827e+03  3.36373867e+02 -4.12707703e-03 -1.31641694e+07],996,1070.255141103723
328,328,[-4.51794839e+03  3.36373940e+02 -4.29282089e-03 -1.31641694e+07],813,1070.7938048664319
329,329,[-2.60658940e+03  3.42380734e+02 -2.90290188e-03 -1.31641694e+07],1059,1070.3786838735614
330,330,[-4.55413679e+03  3.36373875e+02 -4.35907803e-03 -1.31641694e+07],826,1071.3297417408226
331,331,[-4.45382129e+03  3.36373753e+02 -4.03777315e-03 -1.31641694e+07],227,1070.896223474991
332,332,[-3.55991098e+03  3.38376114e+02 -3.16512877e-03 -1.31641694e+07],349,1067.4469562756108
333,333,[-4.49102396e+03  3.36373960e+02 -4.23280203e-03 -1.31641694e+07],155,1069.2115093449172
334,334,[-4.57581955e+03  3.36373923e+02 -4.46306436e-03 -1.31641694e+07],211,1070.0753816806807
335,335,[-4.49770200e+03  3.36373855e+02 -4.24682171e-03 -1.31641694e+07],1035,1071.5034041852002
336,336,[-4.75751848e+03  3.35372646e+02 -4.17120584e-03 -1.31641694e+07],514,1068.8236665042796
337,337,[-4.57504452e+03  3.36373764e+02 -4.43409120e-03 -1.31641694e+07],210,1071.0014605132894
338,338,[-4.48224010e+03  3.36373801e+02 -4.18089623e-03 -1.31641694e+07],331,1071.6922105253557
339,339,[-3.99275735e+03  3.37375004e+02 -3.59060966e-03 -1.31641694e+07],522,1070.2363889811747
340,340,[-4.51576277e+03  3.36373788e+02 -4.33673687e-03 -1.31641694e+07],986,1071.0143091046546
341,341,[-4.37718547e+03  3.36373837e+02 -4.06902812e-03 -1.31641694e+07],130,1071.1461006165746
342,342,[-3.99060904e+03  3.37374966e+02 -3.63537334e-03 -1.31641694e+07],789,1069.0705259093163
343,343,[-3.32655393e+03  3.39377237e+02 -3.21485389e-03 -1.31641694e+07],159,1070.9507925001408
344,344,[-5.56900662e+03  3.35372714e+02 -5.03108891e-03 -1.31641694e+07],619,1070.847640080191
345,345,[-4.79922434e+03  3.35372661e+02 -4.39835751e-03 -1.31641694e+07],256,1070.2217647621915
346,346,[-4.51786907e+03  3.36373924e+02 -4.37305981e-03 -1.31641694e+07],852,1071.0394066631602
347,347,[-3.32304588e+03  3.39377087e+02 -3.16221867e-03 -1.31641694e+07],866,1071.102493224367
348,348,[-4.79216502e+03  3.35372702e+02 -4.39263588e-03 -1.31641694e+07],793,1070.4954273541478
349,349,[-4.49379348e+03  3.36373821e+02 -4.21483384e-03 -1.31641694e+07],394,1070.9126103956821
350,350,[-4.15359412e+03  3.37375104e+02 -3.99521789e-03 -1.31641694e+07],385,1069.3198433206544
351,351,[-4.56598045e+03  3.36373950e+02 -4.34658412e-03 -1.31641694e+07],177,1070.7705277259138
352,352,[-4.82070147e+03  3.35372782e+02 -4.36833600e-03 -1.31641694e+07],298,1070.1427526777284
353,353,[-4.51866685e+03  3.36373771e+02 -4.34456773e-03 -1.31641694e+07],62,1071.1429861825293
354,354,[-5.06153288e+03  3.36373804e+02 -4.45110215e-03 -1.31641694e+07],836,1071.3168695021432
355,355,[-3.98898177e+03  3.37374863e+02 -3.62870509e-03 -1.31641694e+07],829,1070.4661034907188
356,356,[-5.78391454e+03  3.35372712e+02 -5.03758222e-03 -1.31641694e+07],547,1071.1468849672974
357,357,[-4.50214867e+03  3.36373784e+02 -4.35704053e-03 -1.31641694e+07],601,1071.2078744838004
358,358,[-4.86225000e+03  3.35372706e+02 -4.43036314e-03 -1.31641694e+07],819,1069.2443457611655
359,359,[-4.57118249e+03  3.36373813e+02 -4.33901989e-03 -1.31641694e+07],78,1070.7821684380497
360,360,[-4.51494809e+03  3.36373823e+02 -4.25834967e-03 -1.31641694e+07],520,1070.995567546517
361,361,[-3.24577353e+03  3.39377279e+02 -2.91403761e-03 -1.31641694e+07],114,1069.0898937819882
362,362,[-3.95921463e+03  3.37375073e+02 -3.63774906e-03 -1.31641694e+07],800,1071.0089059394368
363,363,[-4.49123537e+03  3.36373954e+02 -4.34847538e-03 -1.31641694e+07],1036,1071.5834123776606
364,364,[-4.49790551e+03  3.36373982e+02 -4.25788537e-03 -1.31641694e+07],854,1071.9949119133748
365,365,[-4.43530127e+03  3.36373934e+02 -4.32795462e-03 -1.31641694e+07],528,1066.9466979353952
366,366,[-3.32690249e+03  3.39377246e+02 -3.21250123e-03 -1.31641694e+07],344,1070.4911732438477
367,367,[-4.45808795e+03  3.36373850e+02 -4.20257354e-03 -1.31641694e+07],622,1068.3884336918347
368,368,[-3.31986198e+03  3.39377134e+02 -3.19169049e-03 -1.31641694e+07],890,1071.0693677976196
369,369,[-3.91390213e+03  3.37374941e+02 -3.41974096e-03 -1.31641694e+07],409,1070.0592099401517
370,370,[-4.50100364e+03  3.36373791e+02 -4.25090180e-03 -1.31641694e+07],913,1070.5867908154473
371,371,[-4.58419484e+03  3.36373833e+02 -4.39218533e-03 -1.31641694e+07],3,1069.5139026377415
372,372,[-3.97420376e+03  3.37375156e+02 -3.57808464e-03 -1.31641694e+07],477,1070.99178595266
373,373,[-3.00298392e+03  3.40378258e+02 -2.80219120e-03 -1.31641694e+07],1014,1068.0503958486934
374,374,[-4.46209034e+03  3.36373750e+02 -4.16390223e-03 -1.31641694e+07],1026,1071.4917234466072
375,375,[-4.44723467e+03  3.36373818e+02 -4.13091545e-03 -1.31641694e+07],519,1070.3683228311784
376,376,[-4.03085080e+03  3.37374926e+02 -3.73533164e-03 -1.31641694e+07],815,1071.1272280858923
377,377,[-3.61519458e+03  3.38376015e+02 -3.25040034e-03 -1.31641694e+07],328,1069.6665556466241
378,378,[-4.50451427e+03  3.36373843e+02 -4.31258502e-03 -1.31641694e+07],223,1071.1003000763844
379,379,[-4.46098300e+03  3.36373767e+02 -4.08655136e-03 -1.31641694e+07],861,1070.1497895765103
380,380,[-5.34969693e+03  3.34371577e+02 -4.86013703e-03 -1.31641694e+07],723,1070.3008179445483
381,381,[-4.62054273e+03  3.36373787e+02 -4.46256701e-03 -1.31641694e+07],426,1070.5851467764378
382,382,[-4.58039442e+03  3.36373939e+02 -4.39941053e-03 -1.31641694e+07],791,1071.5204183571166
383,383,[-4.03453520e+03  3.37374960e+02 -3.70117813e-03 -1.31641694e+07],216,1069.3978379978976
384,384,[-4.50220669e+03  3.36373850e+02 -4.26353306e-03 -1.31641694e+07],452,1071.258340306187
385,385,[-4.58104791e+03  3.36373839e+02 -4.44192469e-03 -1.31641694e+07],359,1070.8646055630234
386,386,[-3.33776196e+03  3.39377717e+02 -3.10753945e-03 -1.31641694e+07],44,1070.1527129512967
387,387,[-4.55962835e+03  3.36373824e+02 -4.37275300e-03 -1.31641694e+07],767,1071.1540501485836
388,388,[-3.32170933e+03  3.39377195e+02 -3.17429760e-03 -1.31641694e+07],351,1071.5842965276456
389,389,[-4.59216078e+03  3.36373896e+02 -4.48553537e-03 -1.31641694e+07],436,1071.4757594167754
390,390,[-3.24837719e+03  3.39377304e+02 -2.92218914e-03 -1.31641694e+07],892,1068.304746592527
391,391,[-4.47453161e+03  3.36373795e+02 -4.24560701e-03 -1.31641694e+07],121,1071.2961389003876
392,392,[-5.85667297e+03  3.35372641e+02 -4.99647334e-03 -1.31641694e+07],844,1069.0233973789636
393,393,[-3.56471700e+03  3.38376081e+02 -3.13914397e-03 -1.31641694e+07],110,1070.1037874762178
394,394,[-5.52925396e+03  3.35372667e+02 -5.06870661e-03 -1.31641694e+07],260,1070.8684940860142
395,395,[-4.14644353e+03  3.37374967e+02 -4.03614185e-03 -1.31641694e+07],0,1070.7434038314052
396,396,[-4.04042199e+03  3.37374950e+02 -3.72133907e-03 -1.31641694e+07],669,1070.2141117079277
397,397,[-4.48425769e+03  3.36373789e+02 -4.20663342e-03 -1.31641694e+07],442,1071.9375956251124
398,398,[-4.45666262e+03  3.36373833e+02 -4.11691175e-03 -1.31641694e+07],395,1070.4489266631385
399,399,[-4.03837073e+03  3.37374975e+02 -3.70561149e-03 -1.31641694e+07],1045,1070.9235494202078
400,400,[-4.53271833e+03  3.36374060e+02 -4.30263664e-03 -1.31641694e+07],1071,1071.5497949878147
401,401,[-4.50227934e+03  3.36373842e+02 -4.25635329e-03 -1.31641694e+07],35,1071.1942305444843
402,402,[-4.51758989e+03  3.36373773e+02 -4.25823635e-03 -1.31641694e+07],82,1071.854236558206
403,403,[-3.98662376e+03  3.37374950e+02 -3.63718304e-03 -1.31641694e+07],449,1071.0118298169448
404,404,[-5.06217531e+03  3.36373831e+02 -4.40683651e-03 -1.31641694e+07],1033,1071.1270839048366
405,405,[-4.55682805e+03  3.36373908e+02 -4.33260596e-03 -1.31641694e+07],282,1071.1214235645796
406,406,[-3.98452661e+03  3.37374939e+02 -3.56231955e-03 -1.31641694e+07],457,1069.3807650150875
407,407,[-4.51123962e+03  3.36373957e+02 -4.27277484e-03 -1.31641694e+07],147,1071.488632229459
408,408,[-4.50610678e+03  3.36373898e+02 -4.24179453e-03 -1.31641694e+07],1060,1070.6808058219124
409,409,[-4.53959720e+03  3.36373982e+02 -4.28067372e-03 -1.31641694e+07],983,1070.8365836128276
410,410,[-5.30916232e+03  3.34371603e+02 -4.88408385e-03 -1.31641694e+07],521,1069.1924922321755
411,411,[-4.45865163e+03  3.36373881e+02 -4.12159386e-03 -1.31641694e+07],415,1071.6750944306007
412,412,[-4.17182891e+03  3.37374909e+02 -4.05997388e-03 -1.31641694e+07],125,1070.2020861352432
413,413,[-3.99160406e+03  3.37375190e+02 -3.61549494e-03 -1.31641694e+07],312,1070.1444072507009
414,414,[-3.95802148e+03  3.37375026e+02 -3.63021573e-03 -1.31641694e+07],1039,1071.2894525436893
415,415,[-4.51036514e+03  3.36373787e+02 -4.27508902e-03 -1.31641694e+07],884,1070.6958489010603
416,416,[-3.96072754e+03  3.37374910e+02 -3.60830189e-03 -1.31641694e+07],309,1071.2166275034388
417,417,[-4.02016995e+03  3.37374922e+02 -3.66565427e-03 -1.31641694e+07],568,1071.270206535942
418,418,[-4.51869162e+03  3.36373808e+02 -4.24129008e-03 -1.31641694e+07],108,1070.3382593126037
419,419,[-4.09380063e+03  3.37375161e+02 -3.80499005e-03 -1.31641694e+07],1,1071.1470133610783
420,420,[-3.55265052e+03  3.38376012e+02 -3.08450985e-03 -1.31641694e+07],408,1061.4849312859074
421,421,[-4.93417891e+03  3.34371627e+02 -4.00841020e-03 -1.31641694e+07],550,1023.7940338822408
422,422,[-4.53006677e+03  3.35372800e+02 -3.57540981e-03 -1.31641694e+07],203,1029.2521764980809
423,423,[-4.30430134e+03  3.36373839e+02 -4.01868179e-03 -1.31641694e+07],1005,1065.1900294948093
424,424,[-5.61770485e+03  3.35372643e+02 -5.00521704e-03 -1.31641694e+07],876,1069.08835206278
425,425,[-4.51176982e+03  3.36373861e+02 -4.29683796e-03 -1.31641694e+07],590,1069.6077464775321
426,426,[-3.32406205e+03  3.39377115e+02 -3.16492973e-03 -1.31641694e+07],686,1070.7846961272537
427,427,[-4.02863833e+03  3.37374946e+02 -3.75533387e-03 -1.31641694e+07],685,1071.9336519282617
428,428,[-3.56445737e+03  3.38376390e+02 -3.18660284e-03 -1.31641694e+07],536,1070.61033872267
429,429,[-4.57850689e+03  3.36373770e+02 -4.46612743e-03 -1.31641694e+07],526,1071.5362861118313
430,430,[-4.45011345e+03  3.36373785e+02 -4.19137006e-03 -1.31641694e+07],977,1071.091819588632
431,431,[-3.06430602e+03  3.40378218e+02 -3.01641145e-03 -1.31641694e+07],111,1070.069400887174
432,432,[-4.46429191e+03  3.36373799e+02 -4.20004202e-03 -1.31641694e+07],319,1070.6378222513436
433,433,[-3.99066066e+03  3.37374916e+02 -3.62571309e-03 -1.31641694e+07],737,1070.3425282663143
434,434,[-4.75677226e+03  3.35372711e+02 -4.31864422e-03 -1.31641694e+07],84,1068.9253759902329
435,435,[-4.52416616e+03  3.36373772e+02 -4.32199539e-03 -1.31641694e+07],1015,1071.9597311253217
436,436,[-3.06462704e+03  3.40378353e+02 -3.02837819e-03 -1.31641694e+07],964,1070.7686912069032
437,437,[-4.50122401e+03  3.36373809e+02 -4.28970962e-03 -1.31641694e+07],1072,1071.0913024193449
438,438,[-4.09339195e+03  3.37375225e+02 -3.85720436e-03 -1.31641694e+07],1067,1071.6251832366472
439,439,[-4.84447797e+03  3.35372876e+02 -4.52048821e-03 -1.31641694e+07],432,1069.2718408619771
440,440,[-4.48587696e+03  3.36373854e+02 -4.25925108e-03 -1.31641694e+07],708,1071.1190935041884
441,441,[-3.31980373e+03  3.39377344e+02 -3.20136713e-03 -1.31641694e+07],207,1071.121083501535
442,442,[-5.01441898e+03  3.36373865e+02 -4.43971959e-03 -1.31641694e+07],184,1070.7448018609089
443,443,[-3.00336492e+03  3.40378320e+02 -2.82712337e-03 -1.31641694e+07],102,1071.030420293357
444,444,[-4.44898036e+03  3.36373938e+02 -4.19214028e-03 -1.31641694e+07],638,1070.224207453397
445,445,[-5.02940692e+03  3.36373898e+02 -4.43186003e-03 -1.31641694e+07],446,1071.0088530559149
446,446,[-5.00778169e+03  3.36373777e+02 -4.43875923e-03 -1.31641694e+07],687,1070.630959989599
447,447,[-4.59034143e+03  3.36373831e+02 -4.50605254e-03 -1.31641694e+07],279,1071.5707303382603
448,448,[-2.61143860e+03  3.42380424e+02 -2.92148659e-03 -1.31641694e+07],1001,1069.6897795931695
449,449,[-4.51115969e+03  3.36373838e+02 -4.34266698e-03 -1.31641694e+07],961,1070.7327933620024
450,450,[-5.06508833e+03  3.35372703e+02 -5.09175466e-03 -1.31641694e+07],43,1070.421693316643
451,451,[-4.49887911e+03  3.36373856e+02 -4.35556553e-03 -1.31641694e+07],325,1070.3956751073363
452,452,[-5.57280879e+03  3.35372724e+02 -5.14236433e-03 -1.31641694e+07],318,1070.7823772710244
453,453,[-4.09787763e+03  3.37374989e+02 -3.88008094e-03 -1.31641694e+07],29,1070.5404447814608
454,454,[-4.57693900e+03  3.36373818e+02 -4.50915570e-03 -1.31641694e+07],428,1070.4439081901899
455,455,[-4.45048004e+03  3.36373873e+02 -4.16938688e-03 -1.31641694e+07],55,1070.4167690963768
456,456,[-3.00714812e+03  3.40378224e+02 -2.83570831e-03 -1.31641694e+07],886,1069.5878448082485
457,457,[-4.49494240e+03  3.36373790e+02 -4.31124407e-03 -1.31641694e+07],54,1070.724394947743
458,458,[-3.06545972e+03  3.40378389e+02 -3.03068830e-03 -1.31641694e+07],107,1069.9122287617174
459,459,[-4.49472281e+03  3.36373932e+02 -4.47615673e-03 -1.31641694e+07],898,1071.0114952973258
460,460,[-3.98437559e+03  3.37375067e+02 -3.70252305e-03 -1.31641694e+07],254,1068.7850979470666
461,461,[-4.44552356e+03  3.36373753e+02 -4.21963543e-03 -1.31641694e+07],370,1069.7476474503226
462,462,[-4.06792442e+03  3.38376040e+02 -3.47277893e-03 -1.31641694e+07],381,1070.2318943653079
463,463,[-2.60909967e+03  3.42380681e+02 -2.91600507e-03 -1.31641694e+07],117,1069.2255061188562
464,464,[-3.60017991e+03  3.38376122e+02 -3.24142592e-03 -1.31641694e+07],1073,1069.515028517165
465,465,[-3.32466217e+03  3.39377132e+02 -3.21598375e-03 -1.31641694e+07],1070,1070.1268085737847
466,466,[-4.47605369e+03  3.36373916e+02 -4.22721619e-03 -1.31641694e+07],843,1070.0205763754766
467,467,[-3.24212047e+03  3.39377122e+02 -2.96353286e-03 -1.31641694e+07],1012,1066.1797788314384
468,468,[-4.46393599e+03  3.36373786e+02 -4.28584967e-03 -1.31641694e+07],315,1068.3807382878383
469,469,[-4.43814218e+03  3.36373760e+02 -4.15597008e-03 -1.31641694e+07],758,1069.3006027713793
470,470,[-4.54454940e+03  3.36373936e+02 -4.35358897e-03 -1.31641694e+07],281,1070.5069435770906
471,471,[-4.04611801e+03  3.37374973e+02 -3.80051855e-03 -1.31641694e+07],453,1068.8182186966508
472,472,[-4.50949710e+03  3.36374009e+02 -4.33912386e-03 -1.31641694e+07],302,1070.179382595944
473,473,[-3.31740442e+03  3.39377147e+02 -3.17848775e-03 -1.31641694e+07],702,1069.7432313516329
474,474,[-3.00224144e+03  3.40378358e+02 -2.82417374e-03 -1.31641694e+07],169,1069.6536171626797
475,475,[-4.08512054e+03  3.37375229e+02 -3.84552795e-03 -1.31641694e+07],1003,1070.396501693328
476,476,[-4.51381142e+03  3.36374034e+02 -4.33462826e-03 -1.31641694e+07],574,1069.9873297667073
477,477,[-4.51142152e+03  3.36374056e+02 -4.31431919e-03 -1.31641694e+07],299,1070.8223034073117
478,478,[-4.35374520e+03  3.36373889e+02 -3.92407451e-03 -1.31641694e+07],592,1068.1768002234808
479,479,[-4.50458651e+03  3.36373820e+02 -4.34307447e-03 -1.31641694e+07],1063,1069.9002964191304
480,480,[-4.45803069e+03  3.36373752e+02 -4.19747758e-03 -1.31641694e+07],612,1069.9509816374289
481,481,[-4.09225593e+03  3.37374887e+02 -3.83901699e-03 -1.31641694e+07],52,1070.4349836013262
482,482,[-4.52696277e+03  3.36374124e+02 -4.39962185e-03 -1.31641694e+07],96,1069.9367351105398
483,483,[-3.33103645e+03  3.39377273e+02 -3.22304945e-03 -1.31641694e+07],648,1069.304894762419
484,484,[-3.34321045e+03  3.39377089e+02 -3.18936731e-03 -1.31641694e+07],89,1068.033074348683
485,485,[-3.94179639e+03  3.37375050e+02 -3.65543927e-03 -1.31641694e+07],1020,1068.1227070774473
486,486,[-4.44796823e+03  3.36373919e+02 -4.20126029e-03 -1.31641694e+07],13,1068.1397351084338
487,487,[-4.07271264e+03  3.37374899e+02 -3.87949818e-03 -1.31641694e+07],929,1069.5293642481759
488,488,[-3.93915729e+03  3.37374903e+02 -3.59153027e-03 -1.31641694e+07],470,1067.077608195397
489,489,[-4.47231217e+03  3.36373754e+02 -4.26966870e-03 -1.31641694e+07],208,1067.6634043736162
490,490,[-4.17303345e+03  3.37374965e+02 -3.99994778e-03 -1.31641694e+07],348,1064.7953737983064
491,491,[-3.25405635e+03  3.39377150e+02 -2.95043427e-03 -1.31641694e+07],613,1051.814392100367
492,492,[-5.79019356e+03  3.35372662e+02 -5.11559689e-03 -1.31641694e+07],104,1069.3042235582245
493,493,[-5.07433424e+03  3.36373851e+02 -4.42878563e-03 -1.31641694e+07],366,1069.0448548304214
494,494,[-3.01177524e+03  3.40378256e+02 -2.83713154e-03 -1.31641694e+07],161,1069.3741430043683
495,495,[-4.48438097e+03  3.36373753e+02 -4.24906726e-03 -1.31641694e+07],582,1068.482036635545
496,496,[-4.50077597e+03  3.36373965e+02 -4.30000748e-03 -1.31641694e+07],1028,1069.8231883568974
497,497,[-4.45735955e+03  3.36373831e+02 -4.13898648e-03 -1.31641694e+07],76,1069.5239901004352
498,498,[-4.00243715e+03  3.37374924e+02 -3.66511258e-03 -1.31641694e+07],30,1069.774602262106
499,499,[-4.45230854e+03  3.36373982e+02 -4.15120974e-03 -1.31641694e+07],874,1068.3561883900832
500,500,[-4.45344627e+03  3.36373784e+02 -4.17753758e-03 -1.31641694e+07],288,1069.9178260232434
501,501,[-4.04740997e+03  3.37374945e+02 -3.80485498e-03 -1.31641694e+07],703,1068.2022657775
502,502,[-3.96959132e+03  3.37374947e+02 -3.63928866e-03 -1.31641694e+07],776,1068.5797502959035
503,503,[-4.48230450e+03  3.36373784e+02 -4.26893086e-03 -1.31641694e+07],9,1069.418244912477
504,504,[-4.47881660e+03  3.36373807e+02 -4.22513891e-03 -1.31641694e+07],355,1070.0135543045208
505,505,[-4.83555262e+03  3.35372758e+02 -4.49398272e-03 -1.31641694e+07],596,1067.7460448191587
506,506,[-4.53196533e+03  3.36373844e+02 -4.40405247e-03 -1.31641694e+07],724,1069.3768256513715
507,507,[-4.49282316e+03  3.36373755e+02 -4.27076876e-03 -1.31641694e+07],999,1069.9769328987904
508,508,[-3.99670060e+03  3.37374887e+02 -3.64437864e-03 -1.31641694e+07],631,1071.7065595766926
509,509,[-4.48441834e+03  3.36374099e+02 -4.16801482e-03 -1.31641694e+07],46,1071.4135857057252
510,510,[-3.32457599e+03  3.39377087e+02 -3.17838165e-03 -1.31641694e+07],398,1070.3434489765862
511,511,[-4.02565753e+03  3.37374878e+02 -3.74400567e-03 -1.31641694e+07],454,1069.5686661784807
512,512,[-3.97613518e+03  3.37374889e+02 -3.62714536e-03 -1.31641694e+07],814,1067.7724574890178
513,513,[-4.50606629e+03  3.36373795e+02 -4.32200989e-03 -1.31641694e+07],1010,1068.9830412395054
514,514,[-4.51498279e+03  3.36373857e+02 -4.36395463e-03 -1.31641694e+07],1027,1070.903281879948
515,515,[-3.90831776e+03  3.37374926e+02 -3.34488740e-03 -1.31641694e+07],697,1066.9982215139607
516,516,[-4.76129077e+03  3.35372719e+02 -4.31837990e-03 -1.31641694e+07],481,1060.6226117176168
517,517,[-4.44177840e+03  3.36373939e+02 -4.19902319e-03 -1.31641694e+07],617,1066.4550503560924
518,518,[-4.47149750e+03  3.36373905e+02 -4.20322210e-03 -1.31641694e+07],200,1068.8533461454333
519,519,[-4.10234005e+03  3.37374930e+02 -3.82408148e-03 -1.31641694e+07],985,1070.7972303712693
520,520,[-4.51821412e+03  3.36373920e+02 -4.36036077e-03 -1.31641694e+07],714,1070.8528806971078
521,521,[-4.48384411e+03  3.36374133e+02 -4.21614369e-03 -1.31641694e+07],12,1070.7025684451028
522,522,[-4.04227281e+03  3.37375188e+02 -3.69995813e-03 -1.31641694e+07],581,1070.89148996066
523,523,[-4.51069996e+03  3.36373799e+02 -4.27854723e-03 -1.31641694e+07],86,1071.6289052220448
524,524,[-4.59703442e+03  3.36373797e+02 -4.46343690e-03 -1.31641694e+07],124,1070.921941479325
525,525,[-4.02536115e+03  3.37375006e+02 -3.72327475e-03 -1.31641694e+07],69,1071.0836989398529
526,526,[-3.96756120e+03  3.37375056e+02 -3.67941896e-03 -1.31641694e+07],450,1070.6513206591883
527,527,[-4.45948270e+03  3.36373805e+02 -4.16124887e-03 -1.31641694e+07],455,1070.2523248291086
528,528,[-4.50466247e+03  3.36374016e+02 -4.25311990e-03 -1.31641694e+07],65,1070.8492237992107
529,529,[-4.80450695e+03  3.35372660e+02 -4.28553148e-03 -1.31641694e+07],145,1069.9433869333716
530,530,[-3.33090908e+03  3.39377221e+02 -3.17525542e-03 -1.31641694e+07],20,1071.4113872143994
531,531,[-4.56072577e+03  3.36373915e+02 -4.38619626e-03 -1.31641694e+07],727,1071.0323587138585
532,532,[-4.03558487e+03  3.37374884e+02 -3.72834647e-03 -1.31641694e+07],228,1071.2702852135606
533,533,[-3.96411411e+03  3.37374872e+02 -3.57966109e-03 -1.31641694e+07],649,1070.3772505942543
534,534,[-4.56126099e+03  3.36373864e+02 -4.40169588e-03 -1.31641694e+07],883,1069.339352816019
535,535,[-4.45968177e+03  3.36373811e+02 -4.13284238e-03 -1.31641694e+07],475,1071.5149258407864
536,536,[-4.77159412e+03  3.35372759e+02 -4.39233018e-03 -1.31641694e+07],451,1070.6521952588369
537,537,[-4.59558945e+03  3.36373931e+02 -4.46256629e-03 -1.31641694e+07],662,1071.3132076318966
538,538,[-4.47348692e+03  3.36373834e+02 -4.14497993e-03 -1.31641694e+07],202,1071.256977872319
539,539,[-3.34371738e+03  3.39377132e+02 -3.17525261e-03 -1.31641694e+07],31,1069.7473020752852
540,540,[-5.65007339e+03  3.35372668e+02 -5.00988179e-03 -1.31641694e+07],51,1069.149640888639
541,541,[-4.52875766e+03  3.36373961e+02 -4.31709342e-03 -1.31641694e+07],821,1071.9189431461925
542,542,[-3.34454034e+03  3.39377115e+02 -3.15313379e-03 -1.31641694e+07],822,1070.9327338420326
543,543,[-4.49843288e+03  3.36374035e+02 -4.29960841e-03 -1.31641694e+07],616,1071.247732153147
544,544,[-4.48807055e+03  3.36373794e+02 -4.37175416e-03 -1.31641694e+07],792,1071.0646037506851
545,545,[-3.57596347e+03  3.38376230e+02 -3.19615841e-03 -1.31641694e+07],329,1070.308666501112
546,546,[-4.17688913e+03  3.37374890e+02 -4.05863052e-03 -1.31641694e+07],533,1069.5406772446142
547,547,[-4.02588746e+03  3.37374922e+02 -3.66394772e-03 -1.31641694e+07],937,1070.8583812942973
548,548,[-4.58909572e+03  3.36373814e+02 -4.45768674e-03 -1.31641694e+07],375,1071.119971041466
549,549,[-4.46318727e+03  3.36373911e+02 -4.13067255e-03 -1.31641694e+07],869,1070.0178058003692
550,550,[-4.01349425e+03  3.37374920e+02 -3.64245061e-03 -1.31641694e+07],237,1070.6804648974671
551,551,[-4.47325807e+03  3.36373796e+02 -4.16729472e-03 -1.31641694e+07],790,1069.817020041379
552,552,[-4.47221144e+03  3.36373914e+02 -4.12952319e-03 -1.31641694e+07],630,1069.7239621326357
553,553,[-3.58841545e+03  3.38376048e+02 -3.24054506e-03 -1.31641694e+07],859,1070.3075476499562
554,554,[-4.50658680e+03  3.36373782e+02 -4.30851797e-03 -1.31641694e+07],510,1071.445811686826
555,555,[-4.19009103e+03  3.37375086e+02 -4.07131986e-03 -1.31641694e+07],433,1066.7817676095933
556,556,[-4.11282722e+03  3.37375291e+02 -3.83221667e-03 -1.31641694e+07],646,1069.7969787858578
557,557,[-4.47335906e+03  3.36373780e+02 -4.17980372e-03 -1.31641694e+07],418,1071.2678480720829
558,558,[-4.50125121e+03  3.36373825e+02 -4.36885018e-03 -1.31641694e+07],1047,1071.3234854885711
559,559,[-4.51694990e+03  3.36373888e+02 -4.42329038e-03 -1.31641694e+07],778,1071.791758767395
560,560,[-4.53791205e+03  3.36373812e+02 -4.35482328e-03 -1.31641694e+07],808,1072.0156363547085
561,561,[-4.49780015e+03  3.36373931e+02 -4.28336308e-03 -1.31641694e+07],678,1070.14319403267
562,562,[-4.18238423e+03  3.37375014e+02 -4.07899725e-03 -1.31641694e+07],968,1069.8466927994475
563,563,[-2.61610868e+03  3.42380590e+02 -2.92393887e-03 -1.31641694e+07],245,1068.8791297915939
564,564,[-5.65857168e+03  3.35372658e+02 -5.03699756e-03 -1.31641694e+07],949,1069.0644713613885
565,565,[-4.53889658e+03  3.36373787e+02 -4.30077879e-03 -1.31641694e+07],978,1070.1917905693342
566,566,[-3.33785504e+03  3.39377205e+02 -3.12975377e-03 -1.31641694e+07],189,1071.869570776783
567,567,[-4.51859183e+03  3.36373816e+02 -4.31991558e-03 -1.31641694e+07],991,1071.8613489583781
568,568,[-5.49645122e+03  3.35372752e+02 -5.07556578e-03 -1.31641694e+07],122,1070.6831052696493
569,569,[-3.01484506e+03  3.40378442e+02 -2.82524217e-03 -1.31641694e+07],95,1069.5944114709541
570,570,[-5.45326459e+03  3.35372799e+02 -5.05450106e-03 -1.31641694e+07],545,1068.984605029953
571,571,[-4.51124873e+03  3.36373807e+02 -4.35342944e-03 -1.31641694e+07],690,1070.021715661235
572,572,[-4.10640781e+03  3.37374887e+02 -3.82154189e-03 -1.31641694e+07],553,1069.8766053809914
573,573,[-4.60651917e+03  3.36374122e+02 -4.46993939e-03 -1.31641694e+07],185,1069.3235996009262
574,574,[-3.32980062e+03  3.39377203e+02 -3.08038455e-03 -1.31641694e+07],146,1070.5252809269746
575,575,[-4.03092533e+03  3.37375118e+02 -3.73651087e-03 -1.31641694e+07],323,1071.5206252253754
576,576,[-4.20025769e+03  3.37375203e+02 -4.12418187e-03 -1.31641694e+07],380,1068.1969264984887
577,577,[-3.98810350e+03  3.37374933e+02 -3.60031464e-03 -1.31641694e+07],804,1070.1017117091844
578,578,[-3.97232209e+03  3.37374997e+02 -3.61980146e-03 -1.31641694e+07],896,1071.0751305206422
579,579,[-4.47899044e+03  3.36373816e+02 -4.21727687e-03 -1.31641694e+07],1037,1068.5864846947184
580,580,[-4.57035817e+03  3.36373998e+02 -4.35542958e-03 -1.31641694e+07],236,1069.4177514053504
581,581,[-4.53851832e+03  3.36373844e+02 -4.32085480e-03 -1.31641694e+07],803,1070.4300591620927
582,582,[-4.49360216e+03  3.36373805e+02 -4.37045948e-03 -1.31641694e+07],745,1070.4880388182485
583,583,[-3.01036959e+03  3.40378527e+02 -2.83168127e-03 -1.31641694e+07],867,1071.6337970932702
584,584,[-3.95604421e+03  3.37375358e+02 -3.67041874e-03 -1.31641694e+07],746,1071.238588437898
585,585,[-3.32094674e+03  3.39377212e+02 -3.17251956e-03 -1.31641694e+07],733,1071.5383393415896
586,586,[-3.92946088e+03  3.37375034e+02 -3.50571216e-03 -1.31641694e+07],327,1069.3580155574382
587,587,[-4.49875641e+03  3.36373877e+02 -4.33790318e-03 -1.31641694e+07],885,1071.5183609657302
588,588,[-4.50883678e+03  3.36373872e+02 -4.32495936e-03 -1.31641694e+07],527,1071.3467713625164
589,589,[-2.81457127e+03  3.41379461e+02 -2.88982483e-03 -1.31641694e+07],28,1069.3509865282144
590,590,[-3.08290316e+03  3.40378845e+02 -3.07412000e-03 -1.31641694e+07],339,1070.6599110871532
591,591,[-4.10007329e+03  3.37375095e+02 -3.84240926e-03 -1.31641694e+07],462,1071.2742210341855
592,592,[-4.51647421e+03  3.36373750e+02 -4.35417082e-03 -1.31641694e+07],830,1070.5208809499027
593,593,[-4.16754499e+03  3.37374881e+02 -4.01905139e-03 -1.31641694e+07],444,1066.647060339982
594,594,[-3.59205722e+03  3.38376066e+02 -3.21747511e-03 -1.31641694e+07],142,1069.7923702222834
595,595,[-4.51978829e+03  3.36374010e+02 -4.31885527e-03 -1.31641694e+07],1043,1071.8018661544663
596,596,[-2.81715360e+03  3.41379323e+02 -2.88919127e-03 -1.31641694e+07],225,1070.453866962328
597,597,[-5.59361912e+03  3.35372644e+02 -5.16962067e-03 -1.31641694e+07],345,1071.3201099381624
598,598,[-4.04090768e+03  3.37374924e+02 -3.78451039e-03 -1.31641694e+07],157,1071.4165507449254
599,599,[-4.51283442e+03  3.36373855e+02 -4.37053017e-03 -1.31641694e+07],711,1071.1845400512166
600,600,[-4.58392458e+03  3.36373803e+02 -4.49577344e-03 -1.31641694e+07],396,1071.4548023844932
601,601,[-2.61657356e+03  3.42380603e+02 -2.93367040e-03 -1.31641694e+07],759,1070.8568743669646
602,602,[-4.53204660e+03  3.36373774e+02 -4.38421818e-03 -1.31641694e+07],722,1071.773790990939
603,603,[-3.06423575e+03  3.40378300e+02 -3.02048605e-03 -1.31641694e+07],761,1070.1480515924127
604,604,[-4.54855844e+03  3.36373794e+02 -4.40635045e-03 -1.31641694e+07],412,1071.518331104384
605,605,[-4.02702079e+03  3.37374899e+02 -3.73841243e-03 -1.31641694e+07],960,1071.6526004698815
606,606,[-4.51249434e+03  3.36373863e+02 -4.33006947e-03 -1.31641694e+07],851,1071.1182981312834
607,607,[-4.47347178e+03  3.36373749e+02 -4.22527083e-03 -1.31641694e+07],565,1071.1363804974035
608,608,[-4.03606569e+03  3.37374986e+02 -3.72961632e-03 -1.31641694e+07],868,1071.5101530587347
609,609,[-4.53448478e+03  3.36373752e+02 -4.41855351e-03 -1.31641694e+07],944,1071.6991927270522
610,610,[-4.48285049e+03  3.36373781e+02 -4.25009389e-03 -1.31641694e+07],472,1071.0918778064336
611,611,[-3.01424335e+03  3.40378250e+02 -2.82633150e-03 -1.31641694e+07],840,1071.7487304717536
612,612,[-3.01270432e+03  3.40378411e+02 -2.82250628e-03 -1.31641694e+07],824,1070.513950830685
613,613,[-4.51026338e+03  3.36373885e+02 -4.37277100e-03 -1.31641694e+07],249,1070.4936643229769
614,614,[-4.50347108e+03  3.36373859e+02 -4.27847832e-03 -1.31641694e+07],38,1071.9840001919397
615,615,[-4.04674046e+03  3.37375107e+02 -3.80163945e-03 -1.31641694e+07],993,1068.1940915412167
616,616,[-4.17686626e+03  3.37375215e+02 -4.02145517e-03 -1.31641694e+07],386,1070.3815060838203
617,617,[-4.46203805e+03  3.36373805e+02 -4.23672516e-03 -1.31641694e+07],379,1070.4341157696676
618,618,[-4.89155173e+03  3.35372733e+02 -4.51486620e-03 -1.31641694e+07],665,1069.5980967996472
619,619,[-3.32944366e+03  3.39377397e+02 -3.17365850e-03 -1.31641694e+07],603,1070.8814157507363
620,620,[-4.52288375e+03  3.36373753e+02 -4.28673926e-03 -1.31641694e+07],190,1070.9186347151
621,621,[-3.25825654e+03  3.39377697e+02 -2.91049375e-03 -1.31641694e+07],413,1069.5388934982805
622,622,[-4.53164749e+03  3.36373805e+02 -4.31125223e-03 -1.31641694e+07],561,1070.8455958485638
623,623,[-4.53155009e+03  3.36373810e+02 -4.37109209e-03 -1.31641694e+07],352,1072.0161320243787
624,624,[-3.99919644e+03  3.37374905e+02 -3.65703155e-03 -1.31641694e+07],25,1070.069256724345
625,625,[-4.18787541e+03  3.37375096e+02 -3.98988963e-03 -1.31641694e+07],938,1071.3317288375993
626,626,[-4.01831173e+03  3.37374877e+02 -3.71997673e-03 -1.31641694e+07],218,1071.8581143930476
627,627,[-4.54286846e+03  3.36373909e+02 -4.41643859e-03 -1.31641694e+07],1017,1071.6124874969903
628,628,[-4.45895913e+03  3.36373905e+02 -4.18585904e-03 -1.31641694e+07],465,1069.8811605487606
629,629,[-3.57602430e+03  3.38376035e+02 -3.16858514e-03 -1.31641694e+07],23,1069.70418967306
630,630,[-4.58445541e+03  3.36373760e+02 -4.41331427e-03 -1.31641694e+07],668,1070.3505962448578
631,631,[-2.81782974e+03  3.41379654e+02 -2.88931992e-03 -1.31641694e+07],242,1070.4499690899104
632,632,[-4.09548090e+03  3.37374976e+02 -3.85910211e-03 -1.31641694e+07],393,1071.4194586723252
633,633,[-3.95505962e+03  3.37374939e+02 -3.68698582e-03 -1.31641694e+07],577,1071.151749369701
634,634,[-4.16458575e+03  3.37374896e+02 -4.14459489e-03 -1.31641694e+07],1024,1069.9517797318595
635,635,[-5.45738924e+03  3.35372807e+02 -5.09429417e-03 -1.31641694e+07],922,1069.3128399074324
636,636,[-4.04079189e+03  3.37375094e+02 -3.73309731e-03 -1.31641694e+07],8,1071.144956945688
637,637,[-5.52639933e+03  3.35372709e+02 -5.05702267e-03 -1.31641694e+07],846,1069.6694693864197
638,638,[-3.33971050e+03  3.39377541e+02 -3.10727910e-03 -1.31641694e+07],334,1070.6311425151448
639,639,[-4.49003851e+03  3.36373763e+02 -4.22322304e-03 -1.31641694e+07],906,1071.3922661152485
640,640,[-4.56425920e+03  3.36373754e+02 -4.39384464e-03 -1.31641694e+07],431,1069.3654152545482
641,641,[-5.18216294e+03  3.35372687e+02 -5.04314211e-03 -1.31641694e+07],624,1069.768239878604
642,642,[-4.09629361e+03  3.37374938e+02 -3.80576552e-03 -1.31641694e+07],369,1070.9515381081624
643,643,[-4.50039611e+03  3.36373782e+02 -4.36133255e-03 -1.31641694e+07],73,1070.950533990475
644,644,[-5.67742001e+03  3.35372752e+02 -5.03783366e-03 -1.31641694e+07],654,1067.9134267551183
645,645,[-4.04048558e+03  3.37375009e+02 -3.70384555e-03 -1.31641694e+07],771,1069.9685007014466
646,646,[-4.54510966e+03  3.36373757e+02 -4.33457281e-03 -1.31641694e+07],303,1070.341515545015
647,647,[-3.32956857e+03  3.39377097e+02 -3.16347009e-03 -1.31641694e+07],1057,1069.401164134825
648,648,[-4.10049165e+03  3.37374945e+02 -3.82297733e-03 -1.31641694e+07],322,1070.5110111336312
649,649,[-4.05007575e+03  3.37374906e+02 -3.75796958e-03 -1.31641694e+07],571,1070.401127510037
650,650,[-4.51401791e+03  3.36373828e+02 -4.32645030e-03 -1.31641694e+07],466,1071.0047632865433
651,651,[-5.61631861e+03  3.35372763e+02 -5.03566904e-03 -1.31641694e+07],549,1069.9520398752124
652,652,[-4.01521503e+03  3.37374896e+02 -3.65568607e-03 -1.31641694e+07],779,1069.308660382861
653,653,[-4.47886875e+03  3.36373941e+02 -4.21648073e-03 -1.31641694e+07],504,1069.3748957890928
654,654,[-4.18153977e+03  3.37374872e+02 -4.08278943e-03 -1.31641694e+07],209,1070.0299265701346
655,655,[-4.03293810e+03  3.37375087e+02 -3.70246551e-03 -1.31641694e+07],946,1071.0955710493904
656,656,[-4.52711475e+03  3.36373808e+02 -4.36391232e-03 -1.31641694e+07],1053,1071.460153221617
657,657,[-3.06946544e+03  3.40378225e+02 -3.01781243e-03 -1.31641694e+07],962,1067.0283256118964
658,658,[-3.57782573e+03  3.38376237e+02 -3.16319533e-03 -1.31641694e+07],109,1068.5848492822774
659,659,[-5.13819595e+03  3.35372839e+02 -5.03862298e-03 -1.31641694e+07],476,1068.3807122635217
660,660,[-3.33273082e+03  3.39377319e+02 -3.08577680e-03 -1.31641694e+07],671,1069.6802286873976
661,661,[-4.84095354e+03  3.35372819e+02 -4.47497254e-03 -1.31641694e+07],226,1069.7343577472454
662,662,[-3.06999573e+03  3.40378445e+02 -3.03005346e-03 -1.31641694e+07],272,1070.3941057332502
663,663,[-3.78947554e+03  3.38376113e+02 -3.72976238e-03 -1.31641694e+07],53,1069.1545157193063
664,664,[-3.01389216e+03  3.40378829e+02 -2.83043935e-03 -1.31641694e+07],750,1071.3904430433481
665,665,[-5.07036836e+03  3.36373883e+02 -4.45882607e-03 -1.31641694e+07],507,1070.1492502603435
666,666,[-4.55685792e+03  3.36373930e+02 -4.39442044e-03 -1.31641694e+07],645,1067.2727199224362
667,667,[-2.62076613e+03  3.42380570e+02 -2.93091428e-03 -1.31641694e+07],865,1068.661119623011
668,668,[-4.50770302e+03  3.36373801e+02 -4.30669826e-03 -1.31641694e+07],927,1070.1138101097256
669,669,[-5.44507043e+03  3.35372651e+02 -5.06690560e-03 -1.31641694e+07],1006,1070.7503711861225
670,670,[-4.10637514e+03  3.37375110e+02 -3.87180662e-03 -1.31641694e+07],762,1071.203765508571
671,671,[-5.05516990e+03  3.36373752e+02 -4.45029630e-03 -1.31641694e+07],810,1069.9871081757556
672,672,[-4.49993955e+03  3.36374047e+02 -4.28719104e-03 -1.31641694e+07],799,1069.3526399372006
673,673,[-2.99401198e+03  3.40378252e+02 -2.79361468e-03 -1.31641694e+07],841,1067.3966637332442
674,674,[-4.53801456e+03  3.36373956e+02 -4.33911890e-03 -1.31641694e+07],651,1069.4605300735032
675,675,[-4.51776567e+03  3.36373811e+02 -4.22040573e-03 -1.31641694e+07],634,1071.0180724335173
676,676,[-3.59356911e+03  3.38376227e+02 -3.25089381e-03 -1.31641694e+07],997,1069.2217377404277
677,677,[-4.50025409e+03  3.36373777e+02 -4.32073503e-03 -1.31641694e+07],68,1071.4607266965452
678,678,[-3.32284591e+03  3.39377545e+02 -3.16696311e-03 -1.31641694e+07],480,1070.3308729941227
679,679,[-3.01552384e+03  3.40378409e+02 -2.83730581e-03 -1.31641694e+07],529,1071.0094455252815
680,680,[-3.07035469e+03  3.40378709e+02 -3.02067101e-03 -1.31641694e+07],482,1069.377770479281
681,681,[-4.20146150e+03  3.37374896e+02 -4.11670802e-03 -1.31641694e+07],24,1068.5600588280677
682,682,[-4.78277622e+03  3.35372640e+02 -4.30003619e-03 -1.31641694e+07],806,1067.5205716565313
683,683,[-4.45963994e+03  3.36373905e+02 -4.13559267e-03 -1.31641694e+07],500,1068.0618712514154
684,684,[-4.09025972e+03  3.37374872e+02 -3.77600778e-03 -1.31641694e+07],458,1069.5083148743818
685,685,[-4.55341011e+03  3.36373754e+02 -4.27875193e-03 -1.31641694e+07],925,1070.6525683353475
686,686,[-4.51349869e+03  3.36373841e+02 -4.33952372e-03 -1.31641694e+07],241,1070.6577741788894
687,687,[-4.48785658e+03  3.36373769e+02 -4.34779180e-03 -1.31641694e+07],479,1070.630898068773
688,688,[-4.06512101e+03  3.37375015e+02 -3.83816625e-03 -1.31641694e+07],168,1071.4520726221044
689,689,[-4.63984378e+03  3.35372783e+02 -3.94102606e-03 -1.31641694e+07],292,1059.8984491507915
690,690,[-3.96646769e+03  3.37374948e+02 -3.61373286e-03 -1.31641694e+07],628,1070.3079666644906
691,691,[-4.17422588e+03  3.37375006e+02 -4.10554145e-03 -1.31641694e+07],877,1065.7415479359772
692,692,[-4.48220724e+03  3.36373932e+02 -4.13962352e-03 -1.31641694e+07],735,1068.3352909772548
693,693,[-5.46293664e+03  3.35372713e+02 -5.04100602e-03 -1.31641694e+07],572,1067.242606937894
694,694,[-5.62820001e+03  3.35372762e+02 -5.09776243e-03 -1.31641694e+07],296,1068.2171829308675
695,695,[-3.01458037e+03  3.40378459e+02 -2.82857683e-03 -1.31641694e+07],5,1071.1279950392307
696,696,[-4.51616719e+03  3.36373782e+02 -4.34618799e-03 -1.31641694e+07],950,1070.994144176966
697,697,[-4.50453859e+03  3.36373754e+02 -4.35686964e-03 -1.31641694e+07],1030,1070.4352617810991
698,698,[-4.10971937e+03  3.37375008e+02 -3.85637150e-03 -1.31641694e+07],1016,1067.6606713130566
699,699,[-4.50001961e+03  3.36373783e+02 -4.34398746e-03 -1.31641694e+07],562,1068.2883796457775
700,700,[-4.52442002e+03  3.36373839e+02 -4.28556554e-03 -1.31641694e+07],238,1067.0593250930592
701,701,[-3.57088859e+03  3.38376160e+02 -3.19523112e-03 -1.31641694e+07],306,1069.100000089434
702,702,[-3.33666443e+03  3.39377235e+02 -3.19934176e-03 -1.31641694e+07],987,1070.5358002315504
703,703,[-4.51325274e+03  3.36374000e+02 -4.35293557e-03 -1.31641694e+07],957,1070.472808787502
704,704,[-4.52478165e+03  3.36373785e+02 -4.33947033e-03 -1.31641694e+07],301,1071.531954648639
705,705,[-4.04569508e+03  3.37374979e+02 -3.79917624e-03 -1.31641694e+07],244,1071.251583783258
706,706,[-5.48303670e+03  3.35372682e+02 -5.04646389e-03 -1.31641694e+07],98,1065.2335977322305
707,707,[-4.01991063e+03  3.37374899e+02 -3.65460662e-03 -1.31641694e+07],496,1069.4383150148908
708,708,[-3.97257804e+03  3.37374868e+02 -3.59247732e-03 -1.31641694e+07],14,1070.6361487036684
709,709,[-2.82725472e+03  3.41379436e+02 -2.91820276e-03 -1.31641694e+07],551,1068.6652864754235
710,710,[-3.98321935e+03  3.37374905e+02 -3.60618651e-03 -1.31641694e+07],904,1069.2591365133312
711,711,[-4.55453269e+03  3.36373884e+02 -4.39782902e-03 -1.31641694e+07],171,1070.2156089216026
712,712,[-3.75092791e+03  3.38376056e+02 -3.63888184e-03 -1.31641694e+07],77,1066.5819974897286
713,713,[-3.01699246e+03  3.40378410e+02 -2.82432613e-03 -1.31641694e+07],556,1069.094356807641
714,714,[-3.33133722e+03  3.39377321e+02 -3.18354342e-03 -1.31641694e+07],594,1070.4318337481964
715,715,[-4.56173365e+03  3.36373823e+02 -4.41982952e-03 -1.31641694e+07],721,1069.4415572541982
716,716,[-4.03218150e+03  3.37374915e+02 -3.76853477e-03 -1.31641694e+07],796,1071.538275976778
717,717,[-4.53648913e+03  3.36373756e+02 -4.40753149e-03 -1.31641694e+07],832,1071.5521421025005
718,718,[-4.18881975e+03  3.37374895e+02 -4.13987700e-03 -1.31641694e+07],498,1069.1957125501863
719,719,[-4.01827341e+03  3.37374986e+02 -3.73538922e-03 -1.31641694e+07],311,1071.003878321696
720,720,[-3.07471953e+03  3.40378354e+02 -3.02588844e-03 -1.31641694e+07],641,1066.3360573357693
721,721,[-4.49596924e+03  3.36373799e+02 -4.34496732e-03 -1.31641694e+07],294,1069.7919825461827
722,722,[-4.04376399e+03  3.37375131e+02 -3.75988730e-03 -1.31641694e+07],972,1070.2133173924276
723,723,[-4.16721920e+03  3.37375084e+02 -4.11346282e-03 -1.31641694e+07],70,1070.787250631458
724,724,[-4.56701232e+03  3.36373777e+02 -4.47841765e-03 -1.31641694e+07],166,1070.452088884351
725,725,[-3.33882029e+03  3.39377182e+02 -3.14449795e-03 -1.31641694e+07],461,1071.9180769204468
726,726,[-3.01056249e+03  3.40378592e+02 -2.83870492e-03 -1.31641694e+07],539,1071.6162701254996
727,727,[-5.53641877e+03  3.35372675e+02 -5.09567111e-03 -1.31641694e+07],473,1070.4057771536482
728,728,[-4.54254034e+03  3.36373845e+02 -4.33718781e-03 -1.31641694e+07],833,1068.3578825369002
729,729,[-4.03449235e+03  3.37375116e+02 -3.68279452e-03 -1.31641694e+07],661,1069.7235395599378
730,730,[-4.58428740e+03  3.36373787e+02 -4.43860707e-03 -1.31641694e+07],119,1069.3381995510592
731,731,[-4.47697376e+03  3.36373758e+02 -4.15705871e-03 -1.31641694e+07],552,1070.967755965075
732,732,[-4.00137388e+03  3.37374887e+02 -3.66624358e-03 -1.31641694e+07],729,1071.1753650343298
733,733,[-4.51121521e+03  3.36373913e+02 -4.31582786e-03 -1.31641694e+07],921,1070.2639218381728
734,734,[-4.48982838e+03  3.36373803e+02 -4.21974752e-03 -1.31641694e+07],882,1067.9041173804578
735,735,[-3.58668353e+03  3.38375981e+02 -3.20899039e-03 -1.31641694e+07],629,1069.8772485302661
736,736,[-4.48374492e+03  3.36373839e+02 -4.25480195e-03 -1.31641694e+07],273,1071.4461683537086
737,737,[-4.56319573e+03  3.36373827e+02 -4.48582214e-03 -1.31641694e+07],1021,1070.6485181825992
738,738,[-4.57929299e+03  3.36373861e+02 -4.45939151e-03 -1.31641694e+07],448,1071.3437482628353
739,739,[-4.03414112e+03  3.37374916e+02 -3.74673900e-03 -1.31641694e+07],258,1071.6419444637265
740,740,[-3.79275208e+03  3.38375974e+02 -3.73953754e-03 -1.31641694e+07],660,1067.8300353750653
741,741,[-4.52655431e+03  3.36373855e+02 -4.31828637e-03 -1.31641694e+07],176,1069.2841160327282
742,742,[-4.57985522e+03  3.36373794e+02 -4.41523866e-03 -1.31641694e+07],880,1069.1733758243847
743,743,[-4.55815793e+03  3.36373920e+02 -4.36666577e-03 -1.31641694e+07],637,1067.990394523858
744,744,[-3.33879535e+03  3.39377414e+02 -3.11648334e-03 -1.31641694e+07],377,1071.3585659262963
745,745,[-3.34112564e+03  3.39377158e+02 -3.14421722e-03 -1.31641694e+07],953,1070.2745096718957
746,746,[-4.46771112e+03  3.36373810e+02 -4.38287508e-03 -1.31641694e+07],875,1070.2642086307737
747,747,[-4.54288075e+03  3.36373752e+02 -4.34110685e-03 -1.31641694e+07],474,1067.0368101259246
748,748,[-3.25626992e+03  3.39377188e+02 -2.90304139e-03 -1.31641694e+07],196,1068.251697060945
749,749,[-4.46886544e+03  3.36373887e+02 -4.17842857e-03 -1.31641694e+07],769,1068.313665919459
750,750,[-4.50051422e+03  3.36373883e+02 -4.27251549e-03 -1.31641694e+07],425,1069.9783922617207
751,751,[-4.55027166e+03  3.36373787e+02 -4.44227330e-03 -1.31641694e+07],618,1071.5696760127637
752,752,[-3.96989796e+03  3.37374863e+02 -3.62536565e-03 -1.31641694e+07],569,1071.1593073582678
753,753,[-3.32054670e+03  3.39377097e+02 -3.16805046e-03 -1.31641694e+07],456,1069.4234704033775
754,754,[-4.09838668e+03  3.37375027e+02 -3.82674449e-03 -1.31641694e+07],1007,1067.8041662134158
755,755,[-3.33848373e+03  3.39377157e+02 -3.19508066e-03 -1.31641694e+07],930,1068.687345813522
756,756,[-4.52957847e+03  3.36373938e+02 -4.30580169e-03 -1.31641694e+07],860,1067.2029234373974
757,757,[-3.35461970e+03  3.39377222e+02 -3.13372867e-03 -1.31641694e+07],27,1068.68279965728
758,758,[-3.96819024e+03  3.37375135e+02 -3.58478505e-03 -1.31641694e+07],511,1070.5657894301196
759,759,[-3.32659665e+03  3.39377239e+02 -3.18377287e-03 -1.31641694e+07],912,1070.2136276975546
760,760,[-4.52575250e+03  3.36373791e+02 -4.31948511e-03 -1.31641694e+07],61,1068.9222813789386
761,761,[-3.59487425e+03  3.38375994e+02 -3.20819264e-03 -1.31641694e+07],546,1070.20683593468
762,762,[-4.53056962e+03  3.36373781e+02 -4.30546298e-03 -1.31641694e+07],34,1069.9626161588712
763,763,[-4.19168401e+03  3.37374916e+02 -4.09709830e-03 -1.31641694e+07],621,1068.705486620514
764,764,[-3.58871339e+03  3.38376422e+02 -3.22427692e-03 -1.31641694e+07],132,1069.4703507312174
765,765,[-4.59051643e+03  3.36373865e+02 -4.44965331e-03 -1.31641694e+07],487,1069.1140733143154
766,766,[-4.48116653e+03  3.36373783e+02 -4.20325938e-03 -1.31641694e+07],141,1068.4565448814972
767,767,[-4.03226767e+03  3.37374871e+02 -3.70004127e-03 -1.31641694e+07],497,1070.7722144585337
768,768,[-4.56629107e+03  3.36373833e+02 -4.46322826e-03 -1.31641694e+07],772,1071.3217710730569
769,769,[-4.20395281e+03  3.37374963e+02 -4.14781728e-03 -1.31641694e+07],464,1069.6218430306972
770,770,[-4.53029978e+03  3.36374166e+02 -4.22785729e-03 -1.31641694e+07],371,1071.0238621293809
771,771,[-4.52779095e+03  3.36373839e+02 -4.23579953e-03 -1.31641694e+07],684,1070.0289019602926
772,772,[-4.48070073e+03  3.36373858e+02 -4.22268761e-03 -1.31641694e+07],891,1069.518148372494
773,773,[-3.02008649e+03  3.40378468e+02 -2.83461879e-03 -1.31641694e+07],173,1071.4987936716084
774,774,[-4.50484837e+03  3.36373804e+02 -4.29793147e-03 -1.31641694e+07],853,1071.4004552403437
775,775,[-5.43175666e+03  3.35372729e+02 -5.05947083e-03 -1.31641694e+07],36,1069.0852199382102
776,776,[-4.51074888e+03  3.36373798e+02 -4.19983489e-03 -1.31641694e+07],321,1070.4688288019934
777,777,[-4.02573989e+03  3.37374888e+02 -3.70399541e-03 -1.31641694e+07],305,1071.342077284772
778,778,[-4.57833741e+03  3.36373793e+02 -4.46107988e-03 -1.31641694e+07],198,1070.331882330527
779,779,[-3.26788909e+03  3.39377260e+02 -2.96088877e-03 -1.31641694e+07],764,1070.017668502682
780,780,[-4.63839138e+03  3.35372674e+02 -3.91331509e-03 -1.31641694e+07],212,1054.104147775427
781,781,[-4.51733799e+03  3.35372744e+02 -3.61783662e-03 -1.31641694e+07],981,1021.8422929860518
782,782,[-4.74031810e+03  3.35372710e+02 -4.10479424e-03 -1.31641694e+07],116,1063.1852255494177
783,783,[-4.15964678e+03  3.37374904e+02 -4.07209304e-03 -1.31641694e+07],674,1066.8356486245918
784,784,[-4.46153397e+03  3.36374075e+02 -4.20977118e-03 -1.31641694e+07],308,1067.5820106571687
785,785,[-4.50549925e+03  3.36373775e+02 -4.26889116e-03 -1.31641694e+07],97,1071.3688768833488
786,786,[-4.47190020e+03  3.36373967e+02 -4.15349455e-03 -1.31641694e+07],715,1067.0750771709977
787,787,[-4.60345027e+03  3.36374002e+02 -4.45544456e-03 -1.31641694e+07],707,1067.9437514885094
788,788,[-3.35759732e+03  3.39377324e+02 -3.17174551e-03 -1.31641694e+07],917,1069.3730704035288
789,789,[-4.48582112e+03  3.36373966e+02 -4.21087568e-03 -1.31641694e+07],753,1070.8851632141043
790,790,[-5.49629709e+03  3.35372928e+02 -5.09706717e-03 -1.31641694e+07],503,1070.363071155484
791,791,[-5.48121970e+03  3.35372662e+02 -5.13354085e-03 -1.31641694e+07],580,1070.7842711266956
792,792,[-3.98169935e+03  3.37375049e+02 -3.64174840e-03 -1.31641694e+07],138,1070.3808052516015
793,793,[-4.57400671e+03  3.36373794e+02 -4.46603010e-03 -1.31641694e+07],942,1070.8712534658994
794,794,[-4.57726727e+03  3.36374044e+02 -4.42602307e-03 -1.31641694e+07],1061,1068.2933467892326
795,795,[-4.59280345e+03  3.36373801e+02 -4.43601090e-03 -1.31641694e+07],92,1067.3808764144708
796,796,[-3.01713253e+03  3.40378445e+02 -2.81913665e-03 -1.31641694e+07],998,1069.7836783815242
797,797,[-4.50680299e+03  3.36373920e+02 -4.28482755e-03 -1.31641694e+07],647,1071.4813803292077
798,798,[-4.55519621e+03  3.36373779e+02 -4.43104833e-03 -1.31641694e+07],383,1071.071589704911
799,799,[-4.09430676e+03  3.37374874e+02 -3.83622605e-03 -1.31641694e+07],802,1069.9603626679973
800,800,[-4.49199970e+03  3.36373926e+02 -4.38820331e-03 -1.31641694e+07],406,1070.852336217924
801,801,[-4.49932580e+03  3.36373892e+02 -4.27306581e-03 -1.31641694e+07],680,1071.5485381866824
802,802,[-3.60510787e+03  3.38376201e+02 -3.25026771e-03 -1.31641694e+07],506,1069.3855730911998
803,803,[-3.96705336e+03  3.37375108e+02 -3.60850399e-03 -1.31641694e+07],653,1070.2773304596014
804,804,[-4.44422169e+03  3.36373986e+02 -4.18256162e-03 -1.31641694e+07],494,1070.2854454125297
805,805,[-4.52756313e+03  3.36373882e+02 -4.34300302e-03 -1.31641694e+07],788,1071.3265666050568
806,806,[-2.62650780e+03  3.42380713e+02 -2.95254920e-03 -1.31641694e+07],640,1069.9229173327449
807,807,[-4.01109852e+03  3.37375074e+02 -3.68504123e-03 -1.31641694e+07],123,1071.126204605832
808,808,[-4.18046162e+03  3.37375084e+02 -3.97781491e-03 -1.31641694e+07],586,1070.331198505782
809,809,[-4.54794146e+03  3.36373803e+02 -4.35468656e-03 -1.31641694e+07],672,1071.6036651022991
810,810,[-4.04901770e+03  3.37374880e+02 -3.74898109e-03 -1.31641694e+07],589,1069.9616373428667
811,811,[-5.38314852e+03  3.35372836e+02 -5.08616398e-03 -1.31641694e+07],66,1071.3018908356769
812,812,[-3.32350612e+03  3.39377098e+02 -3.16568554e-03 -1.31641694e+07],187,1071.293011159973
813,813,[-4.00863248e+03  3.37374865e+02 -3.67473380e-03 -1.31641694e+07],901,1070.9170928119026
814,814,[-4.83484097e+03  3.35372830e+02 -4.48691315e-03 -1.31641694e+07],534,1070.4417374737727
815,815,[-3.32319862e+03  3.39377312e+02 -3.17912096e-03 -1.31641694e+07],730,1070.794742315173
816,816,[-3.32807694e+03  3.39377178e+02 -3.16222559e-03 -1.31641694e+07],139,1068.8920960145022
817,817,[-4.00037095e+03  3.37375047e+02 -3.65291361e-03 -1.31641694e+07],1040,1071.4954368329577
818,818,[-4.48073507e+03  3.36373855e+02 -4.23157284e-03 -1.31641694e+07],573,1072.019093586886
819,819,[-4.47919894e+03  3.36373991e+02 -4.26354943e-03 -1.31641694e+07],350,1070.8564001979476
820,820,[-3.33658957e+03  3.39377173e+02 -3.20035452e-03 -1.31641694e+07],64,1071.700769626018
821,821,[-3.57534070e+03  3.38376093e+02 -3.21361624e-03 -1.31641694e+07],635,1070.384134088708
822,822,[-3.07466529e+03  3.40378206e+02 -3.04813676e-03 -1.31641694e+07],652,1070.3824450680502
823,823,[-4.46627710e+03  3.36373782e+02 -4.19377140e-03 -1.31641694e+07],204,1068.8823646971803
824,824,[-2.62826299e+03  3.42380793e+02 -2.95601627e-03 -1.31641694e+07],483,1070.1749024961339
825,825,[-4.18331258e+03  3.37375126e+02 -4.01115375e-03 -1.31641694e+07],492,1071.5327124711262
826,826,[-2.81790143e+03  3.41379435e+02 -2.88450674e-03 -1.31641694e+07],469,1070.9131476015143
827,827,[-3.35427418e+03  3.39377224e+02 -3.25051470e-03 -1.31641694e+07],291,1071.583676721281
828,828,[-3.91117981e+03  3.37374976e+02 -3.49030016e-03 -1.31641694e+07],741,1068.0913095653425
829,829,[-5.58646061e+03  3.35372781e+02 -5.12128328e-03 -1.31641694e+07],15,1070.859602554972
830,830,[-5.07424908e+03  3.36373859e+02 -4.44744898e-03 -1.31641694e+07],158,1070.2281111468428
831,831,[-4.54651197e+03  3.36373775e+02 -4.26946841e-03 -1.31641694e+07],439,1071.797822422939
832,832,[-4.51909600e+03  3.36373860e+02 -4.37718142e-03 -1.31641694e+07],314,1069.7758301218232
833,833,[-4.46784906e+03  3.36373932e+02 -4.13427732e-03 -1.31641694e+07],920,1069.7409145997497
834,834,[-3.34874332e+03  3.39377110e+02 -3.12947044e-03 -1.31641694e+07],710,1071.1210259903633
835,835,[-4.47599353e+03  3.36374181e+02 -4.21852783e-03 -1.31641694e+07],290,1071.4706259635943
836,836,[-4.47632708e+03  3.36374007e+02 -4.22999333e-03 -1.31641694e+07],106,1070.8602273997762
837,837,[-4.02821262e+03  3.37375018e+02 -3.74668639e-03 -1.31641694e+07],358,1071.738482310228
838,838,[-4.02282470e+03  3.37375048e+02 -3.77142910e-03 -1.31641694e+07],463,1071.3105322355232
839,839,[-4.19926547e+03  3.37374907e+02 -4.11088301e-03 -1.31641694e+07],676,1067.0951161096966
840,840,[-3.25758163e+03  3.39377289e+02 -2.92000454e-03 -1.31641694e+07],112,1070.1766722957937
841,841,[-5.41788021e+03  3.35372638e+02 -5.06172457e-03 -1.31641694e+07],333,1069.9573620329134
842,842,[-4.55895942e+03  3.36373954e+02 -4.23904806e-03 -1.31641694e+07],1004,1071.0586423474433
843,843,[-4.10226175e+03  3.37375022e+02 -3.81568799e-03 -1.31641694e+07],718,1070.5758083109506
844,844,[-5.84299463e+03  3.35372691e+02 -5.14704294e-03 -1.31641694e+07],410,1070.7625583549834
845,845,[-5.56454473e+03  3.35372648e+02 -5.09590168e-03 -1.31641694e+07],143,1067.0558357039083
846,846,[-3.02198505e+03  3.40378252e+02 -2.83784683e-03 -1.31641694e+07],1051,1070.0779504603956
847,847,[-4.56442049e+03  3.36373808e+02 -4.45748610e-03 -1.31641694e+07],742,1071.6314924603253
848,848,[-5.38965702e+03  3.35372761e+02 -5.07909124e-03 -1.31641694e+07],663,1071.1626327811766
849,849,[-3.34924767e+03  3.39377260e+02 -3.14786495e-03 -1.31641694e+07],540,1071.2988896918619
850,850,[-3.97157369e+03  3.37375161e+02 -3.62568931e-03 -1.31641694e+07],4,1070.9763800174294
851,851,[-3.32253476e+03  3.39377386e+02 -3.14339929e-03 -1.31641694e+07],765,1070.1973007051884
852,852,[-5.39044154e+03  3.35372735e+02 -5.07189699e-03 -1.31641694e+07],269,1070.8755394777156
853,853,[-4.10050055e+03  3.37374911e+02 -3.86518094e-03 -1.31641694e+07],701,1069.4973487267791
854,854,[-3.07486536e+03  3.40378436e+02 -3.04032066e-03 -1.31641694e+07],713,1070.8501269891292
855,855,[-4.19513270e+03  3.37375100e+02 -4.12140647e-03 -1.31641694e+07],361,1068.1993844463038
856,856,[-4.48021519e+03  3.36373886e+02 -4.19753317e-03 -1.31641694e+07],424,1068.9050247386158
857,857,[-3.35042443e+03  3.39377509e+02 -3.15163551e-03 -1.31641694e+07],775,1071.54775209145
858,858,[-3.34740618e+03  3.39377122e+02 -3.14237375e-03 -1.31641694e+07],342,1071.5898587547465
859,859,[-4.50234588e+03  3.36373812e+02 -4.27861640e-03 -1.31641694e+07],564,1070.3461582808834
860,860,[-5.53753077e+03  3.35372737e+02 -5.10349202e-03 -1.31641694e+07],493,1069.5757530084445
861,861,[-5.48920094e+03  3.35372667e+02 -5.15029552e-03 -1.31641694e+07],899,1070.7887178355288
862,862,[-3.35251919e+03  3.39377150e+02 -3.17639747e-03 -1.31641694e+07],140,1071.6592446665757
863,863,[-4.57436448e+03  3.36373749e+02 -4.45765762e-03 -1.31641694e+07],905,1071.2213848531403
864,864,[-4.52861352e+03  3.36373913e+02 -4.35670171e-03 -1.31641694e+07],392,1071.506589954145
865,865,[-4.00048872e+03  3.37374886e+02 -3.64276369e-03 -1.31641694e+07],182,1069.9654088129075
866,866,[-4.46571903e+03  3.36373838e+02 -4.21335472e-03 -1.31641694e+07],897,1070.874080871843
867,867,[-5.54773912e+03  3.35372639e+02 -5.09404199e-03 -1.31641694e+07],570,1070.271443171553
868,868,[-3.01874517e+03  3.40378711e+02 -2.82394690e-03 -1.31641694e+07],513,1070.1847788526493
869,869,[-4.05581530e+03  3.37374974e+02 -3.76983923e-03 -1.31641694e+07],881,1070.363242214379
870,870,[-4.50918935e+03  3.36373840e+02 -4.30177459e-03 -1.31641694e+07],81,1071.288733351345
871,871,[-4.45705674e+03  3.36373772e+02 -4.15707616e-03 -1.31641694e+07],313,1070.9371964577192
872,872,[-4.03309641e+03  3.37374897e+02 -3.74215047e-03 -1.31641694e+07],434,1071.0213654064223
873,873,[-2.99903386e+03  3.40378201e+02 -2.82036121e-03 -1.31641694e+07],760,1066.4519145629026
874,874,[-4.51361565e+03  3.36373882e+02 -4.34843899e-03 -1.31641694e+07],919,1070.4740566998892
875,875,[-4.47997319e+03  3.36373797e+02 -4.23656958e-03 -1.31641694e+07],856,1069.6552883007437
876,876,[-4.03872926e+03  3.37374953e+02 -3.68302419e-03 -1.31641694e+07],251,1070.6694504917664
877,877,[-4.00134743e+03  3.37374897e+02 -3.65146685e-03 -1.31641694e+07],816,1069.87970347518
878,878,[-4.47633043e+03  3.36373822e+02 -4.26433970e-03 -1.31641694e+07],250,1070.955111587174
879,879,[-4.57122132e+03  3.36374059e+02 -4.47440752e-03 -1.31641694e+07],823,1071.1393996987415
880,880,[-4.03950967e+03  3.37375070e+02 -3.79831651e-03 -1.31641694e+07],563,1069.6704412649083
881,881,[-3.58301838e+03  3.38376015e+02 -3.24230860e-03 -1.31641694e+07],918,1068.955178929137
882,882,[-4.18754630e+03  3.37374925e+02 -4.16397539e-03 -1.31641694e+07],284,1069.706939107833
883,883,[-4.03442420e+03  3.37374972e+02 -3.71933168e-03 -1.31641694e+07],317,1070.4000866884073
884,884,[-4.58066554e+03  3.36373774e+02 -4.42717711e-03 -1.31641694e+07],518,1070.689733092416
885,885,[-4.57770466e+03  3.36373856e+02 -4.41126351e-03 -1.31641694e+07],970,1070.2524890531777
886,886,[-2.63023896e+03  3.42380664e+02 -2.96061797e-03 -1.31641694e+07],336,1070.6077838770966
887,887,[-5.57726501e+03  3.35372653e+02 -5.10626724e-03 -1.31641694e+07],471,1071.0370814581481
888,888,[-4.50990601e+03  3.36373852e+02 -4.18528825e-03 -1.31641694e+07],231,1071.4342402271627
889,889,[-4.00354182e+03  3.37374958e+02 -3.63794766e-03 -1.31641694e+07],229,1071.13279724636
890,890,[-4.56710272e+03  3.36373890e+02 -4.44429590e-03 -1.31641694e+07],57,1070.8373786582742
891,891,[-4.50387270e+03  3.36373803e+02 -4.32229531e-03 -1.31641694e+07],219,1069.5046491400942
892,892,[-4.10108191e+03  3.37375016e+02 -3.80081364e-03 -1.31641694e+07],460,1070.7673807247693
893,893,[-4.56750347e+03  3.36373754e+02 -4.43870373e-03 -1.31641694e+07],144,1071.7987264481328
894,894,[-5.08118609e+03  3.36374006e+02 -4.46653534e-03 -1.31641694e+07],324,1070.942790062398
895,895,[-5.08216043e+03  3.35372863e+02 -5.08406254e-03 -1.31641694e+07],42,1071.788032841089
896,896,[-4.11209408e+03  3.37374974e+02 -3.90302517e-03 -1.31641694e+07],235,1070.2830145275182
897,897,[-3.32268162e+03  3.39377323e+02 -3.12349217e-03 -1.31641694e+07],297,1069.0197907158195
898,898,[-4.53019596e+03  3.36373807e+02 -4.22649648e-03 -1.31641694e+07],310,1070.593117923833
899,899,[-4.01232794e+03  3.37374886e+02 -3.62029909e-03 -1.31641694e+07],126,1069.0434974279758
900,900,[-5.41426153e+03  3.35372715e+02 -5.09372894e-03 -1.31641694e+07],199,1071.07343756593
901,901,[-4.20406877e+03  3.37374993e+02 -4.20642808e-03 -1.31641694e+07],763,1069.3397628018415
902,902,[-4.53472522e+03  3.36373790e+02 -4.38542402e-03 -1.31641694e+07],755,1071.436528376818
903,903,[-4.53954780e+03  3.36373782e+02 -4.39130435e-03 -1.31641694e+07],757,1068.3917392083347
904,904,[-4.49875321e+03  3.36373782e+02 -4.31459141e-03 -1.31641694e+07],304,1069.8109367851948
905,905,[-3.99044965e+03  3.37374927e+02 -3.58311188e-03 -1.31641694e+07],923,1069.0253976959316
906,906,[-4.17887576e+03  3.37374923e+02 -4.09356818e-03 -1.31641694e+07],709,1070.0701276314635
907,907,[-4.57058829e+03  3.36373876e+02 -4.43769080e-03 -1.31641694e+07],667,1071.1581581599442
908,908,[-4.04799218e+03  3.37375160e+02 -3.76295441e-03 -1.31641694e+07],22,1071.667497887822
909,909,[-4.53631859e+03  3.36373906e+02 -4.42467311e-03 -1.31641694e+07],974,1071.5640391127222
910,910,[-4.19576685e+03  3.37375008e+02 -4.13124417e-03 -1.31641694e+07],936,1068.1430252178463
911,911,[-4.04129567e+03  3.37374912e+02 -3.71921666e-03 -1.31641694e+07],7,1068.4786912919215
912,912,[-5.49347465e+03  3.35372732e+02 -5.10950522e-03 -1.31641694e+07],33,1069.5647679442152
913,913,[-5.39715036e+03  3.35372789e+02 -5.08030107e-03 -1.31641694e+07],579,1070.833409724593
914,914,[-4.04068913e+03  3.37375116e+02 -3.76634484e-03 -1.31641694e+07],658,1071.6183182334582
915,915,[-4.09179325e+03  3.37374913e+02 -3.84297006e-03 -1.31641694e+07],502,1071.5518528510102
916,916,[-4.19515806e+03  3.37374866e+02 -4.12460642e-03 -1.31641694e+07],217,1063.4263326760545
917,917,[-4.03829781e+03  3.37375123e+02 -3.70615188e-03 -1.31641694e+07],135,1069.4330564686945
918,918,[-4.83023050e+03  3.35372864e+02 -4.42025252e-03 -1.31641694e+07],681,1068.8777348383915
919,919,[-4.54781922e+03  3.36373814e+02 -4.34792932e-03 -1.31641694e+07],1054,1068.9129871539587
920,920,[-4.58129816e+03  3.36373887e+02 -4.38440235e-03 -1.31641694e+07],934,1069.264757534285
921,921,[-3.60223582e+03  3.38376059e+02 -3.21339820e-03 -1.31641694e+07],495,1069.7231974043173
922,922,[-3.32874841e+03  3.39377485e+02 -3.15510090e-03 -1.31641694e+07],911,1070.082837706695
923,923,[-4.55422620e+03  3.36374019e+02 -4.39254901e-03 -1.31641694e+07],1056,1068.676178418664
924,924,[-4.11482305e+03  3.37375140e+02 -3.82628380e-03 -1.31641694e+07],766,1068.172547678936
925,925,[-4.48422536e+03  3.36373766e+02 -4.23936364e-03 -1.31641694e+07],903,1069.911569797201
926,926,[-5.73871318e+03  3.35372707e+02 -5.07743674e-03 -1.31641694e+07],367,1065.4067751831712
927,927,[-3.35193002e+03  3.39377366e+02 -3.12888544e-03 -1.31641694e+07],468,1069.9640360948536
928,928,[-3.26818284e+03  3.39377503e+02 -2.96492902e-03 -1.31641694e+07],659,1068.1855890072723
929,929,[-5.68090358e+03  3.35372640e+02 -5.16084655e-03 -1.31641694e+07],286,1070.5082342891953
930,930,[-5.07809114e+03  3.36373753e+02 -4.45202814e-03 -1.31641694e+07],935,1069.5807188339704
931,931,[-4.02973997e+03  3.37375019e+02 -3.66791300e-03 -1.31641694e+07],728,1067.9168516470888
932,932,[-4.19318691e+03  3.37375207e+02 -4.08807312e-03 -1.31641694e+07],499,1067.529414602985
933,933,[-4.56680229e+03  3.36373767e+02 -4.39251106e-03 -1.31641694e+07],91,1067.8780324215265
934,934,[-4.02580106e+03  3.37374911e+02 -3.65388467e-03 -1.31641694e+07],692,1068.485029869215
935,935,[-5.62128927e+03  3.35372646e+02 -5.04212803e-03 -1.31641694e+07],749,1068.3678207542762
936,936,[-3.02056372e+03  3.40378527e+02 -2.81945949e-03 -1.31641694e+07],390,1068.6155688175868
937,937,[-4.00496039e+03  3.37375104e+02 -3.65819575e-03 -1.31641694e+07],152,1070.3737976379252
938,938,[-4.49486825e+03  3.36373985e+02 -4.34889277e-03 -1.31641694e+07],794,1070.1402511145916
939,939,[-4.09245214e+03  3.37375001e+02 -3.76777595e-03 -1.31641694e+07],699,1067.2130532009867
940,940,[-3.59559147e+03  3.38375976e+02 -3.24085984e-03 -1.31641694e+07],56,1067.2884317160729
941,941,[-3.01846655e+03  3.40378485e+02 -2.83938918e-03 -1.31641694e+07],17,1068.079316340465
942,942,[-4.47580234e+03  3.36373966e+02 -4.26377533e-03 -1.31641694e+07],154,1069.4141589529638
943,943,[-5.51672130e+03  3.35372734e+02 -5.33714346e-03 -1.31641694e+07],11,1060.151438797835
944,944,[-4.39120418e+03  3.36373832e+02 -4.01553176e-03 -1.31641694e+07],748,1070.1825320535463
945,945,[-4.01620048e+03  3.37375003e+02 -3.71649123e-03 -1.31641694e+07],694,1071.3922580599394
946,946,[-3.69019961e+03  3.38376098e+02 -3.45598499e-03 -1.31641694e+07],501,1069.9982410184996
947,947,[-4.03244035e+03  3.37375019e+02 -3.73197570e-03 -1.31641694e+07],855,1070.9879186929984
948,948,[-4.00491076e+03  3.37375124e+02 -3.67321963e-03 -1.31641694e+07],576,1071.298923446815
949,949,[-5.57911378e+03  3.35372688e+02 -5.12002796e-03 -1.31641694e+07],615,1070.324041657988
950,950,[-4.56314976e+03  3.36373828e+02 -4.39813253e-03 -1.31641694e+07],232,1069.8690824634662
951,951,[-4.02120941e+03  3.37374867e+02 -3.69338167e-03 -1.31641694e+07],928,1071.3918433770336
952,952,[-4.02458532e+03  3.37374947e+02 -3.72899803e-03 -1.31641694e+07],478,1071.6268753418717
953,953,[-4.46533262e+03  3.36373875e+02 -4.20223222e-03 -1.31641694e+07],924,1069.6557577873543
954,954,[-3.34383641e+03  3.39377203e+02 -3.14049809e-03 -1.31641694e+07],984,1071.4550362607217
955,955,[-4.00480616e+03  3.37375007e+02 -3.65399387e-03 -1.31641694e+07],910,1071.4928155080809
956,956,[-4.50078738e+03  3.36374006e+02 -4.38836541e-03 -1.31641694e+07],486,1071.3897300803312
957,957,[-4.51379633e+03  3.36374093e+02 -4.30751835e-03 -1.31641694e+07],16,1069.836390550353
958,958,[-3.02253767e+03  3.40378486e+02 -2.83808239e-03 -1.31641694e+07],485,1070.9900393185658
959,959,[-4.10091703e+03  3.37374933e+02 -3.85873704e-03 -1.31641694e+07],828,1071.7987078330273
960,960,[-4.19023427e+03  3.37374879e+02 -4.11859530e-03 -1.31641694e+07],941,1070.1986672012588
961,961,[-5.41905519e+03  3.35372700e+02 -5.09957988e-03 -1.31641694e+07],683,1070.6232791028958
962,962,[-4.58921665e+03  3.36373764e+02 -4.51170063e-03 -1.31641694e+07],373,1069.9886148263497
963,963,[-5.40111157e+03  3.35372676e+02 -5.14811824e-03 -1.31641694e+07],484,1071.4115554949499
964,964,[-5.59275931e+03  3.35372673e+02 -5.10687315e-03 -1.31641694e+07],179,1070.644256712465
965,965,[-4.47955349e+03  3.36373880e+02 -4.22809113e-03 -1.31641694e+07],32,1071.1234069035916
966,966,[-3.61041058e+03  3.38376032e+02 -3.26875865e-03 -1.31641694e+07],262,1071.063045665035
967,967,[-4.52132876e+03  3.36373763e+02 -4.36374711e-03 -1.31641694e+07],743,1071.754119955514
968,968,[-5.54591869e+03  3.35372693e+02 -5.11392131e-03 -1.31641694e+07],326,1070.3274853728187
969,969,[-3.02192703e+03  3.40378255e+02 -2.83586813e-03 -1.31641694e+07],1052,1071.7424859370456
970,970,[-2.80344528e+03  3.41379788e+02 -2.79998791e-03 -1.31641694e+07],787,1068.8365239127236
971,971,[-4.55388955e+03  3.36373864e+02 -4.44147537e-03 -1.31641694e+07],167,1071.6705765019578
972,972,[-4.45722496e+03  3.36373865e+02 -4.15410194e-03 -1.31641694e+07],931,1069.7646726629048
973,973,[-3.99120445e+03  3.37375115e+02 -3.62239429e-03 -1.31641694e+07],644,1071.400188897325
974,974,[-4.74790156e+03  3.35372675e+02 -4.33022028e-03 -1.31641694e+07],101,1068.6230171260115
975,975,[-4.50831863e+03  3.36373779e+02 -4.35838964e-03 -1.31641694e+07],734,1071.4301304612688
976,976,[-4.47645929e+03  3.36373872e+02 -4.21757899e-03 -1.31641694e+07],206,1071.0681418537517
977,977,[-4.11501802e+03  3.37375022e+02 -3.88542203e-03 -1.31641694e+07],933,1070.6505424567008
978,978,[-4.09640887e+03  3.37374870e+02 -3.85334003e-03 -1.31641694e+07],740,1070.322292575356
979,979,[-4.49262664e+03  3.36373994e+02 -4.30834761e-03 -1.31641694e+07],754,1070.9509314757076
980,980,[-4.52239002e+03  3.36373879e+02 -4.20736191e-03 -1.31641694e+07],512,1071.806241817038
981,981,[-3.60822750e+03  3.38376003e+02 -3.25117212e-03 -1.31641694e+07],505,1069.469986646605
982,982,[-4.48560270e+03  3.36373803e+02 -4.26758282e-03 -1.31641694e+07],489,1071.6913381308602
983,983,[-4.46338237e+03  3.36373795e+02 -4.20879918e-03 -1.31641694e+07],698,1070.7043974337892
984,984,[-4.02599466e+03  3.37375101e+02 -3.60070610e-03 -1.31641694e+07],1038,1068.156513002286
985,985,[-4.47075674e+03  3.36373985e+02 -4.17146220e-03 -1.31641694e+07],60,1070.4340033032656
986,986,[-4.19782701e+03  3.37375067e+02 -4.10106158e-03 -1.31641694e+07],320,1070.8912207487224
987,987,[-4.06681170e+03  3.37374911e+02 -3.81526740e-03 -1.31641694e+07],784,1069.8371973359247
988,988,[-4.51429813e+03  3.36373983e+02 -4.35065115e-03 -1.31641694e+07],932,1071.4711351545016
989,989,[-5.10653228e+03  3.36373779e+02 -4.46668057e-03 -1.31641694e+07],682,1071.1142816737406
990,990,[-4.57326547e+03  3.36374037e+02 -4.46511269e-03 -1.31641694e+07],332,1071.8072573424713
991,991,[-4.01455885e+03  3.37375277e+02 -3.67908781e-03 -1.31641694e+07],673,1070.3195847844759
992,992,[-4.51243315e+03  3.36373828e+02 -4.34777834e-03 -1.31641694e+07],1013,1071.7305791428332
993,993,[-4.46488807e+03  3.36373941e+02 -4.21714107e-03 -1.31641694e+07],795,1070.1542806141651
994,994,[-5.49127963e+03  3.35372642e+02 -5.18229469e-03 -1.31641694e+07],239,1071.2176530937836
995,995,[-3.58410450e+03  3.38376070e+02 -3.21973465e-03 -1.31641694e+07],940,1070.9553192408425
996,996,[-4.47478685e+03  3.36373883e+02 -4.23796871e-03 -1.31641694e+07],170,1070.9175690006298
997,997,[-4.46375203e+03  3.36373821e+02 -4.19944513e-03 -1.31641694e+07],276,1069.951249015609
998,998,[-3.58602082e+03  3.38376180e+02 -3.17065160e-03 -1.31641694e+07],666,1069.4025832439997
999,999,[-4.57357741e+03  3.36373856e+02 -4.41021251e-03 -1.31641694e+07],693,1070.4513640296989
1000,1000,[-5.10519589e+03  3.35372786e+02 -4.99980497e-03 -1.31641694e+07],939,1071.5246812046094
1001,1001,[-3.35966014e+03  3.39377212e+02 -3.17268831e-03 -1.31641694e+07],756,1070.623951594605
1002,1002,[-4.03558343e+03  3.37374862e+02 -3.77450860e-03 -1.31641694e+07],26,1071.6431067746266
1003,1003,[-4.16669702e+03  3.37374966e+02 -4.01337448e-03 -1.31641694e+07],253,1070.5297624592001
1004,1004,[-3.99002393e+03  3.37375046e+02 -3.60278903e-03 -1.31641694e+07],839,1069.2053262112252
1005,1005,[-4.52447234e+03  3.36373817e+02 -4.29267716e-03 -1.31641694e+07],488,1070.6752615105831
1006,1006,[-4.47099625e+03  3.36373889e+02 -4.16967338e-03 -1.31641694e+07],786,1069.9638063215261
1007,1007,[-4.05032940e+03  3.37374863e+02 -3.70703349e-03 -1.31641694e+07],129,1069.5837213329173
1008,1008,[-3.56947017e+03  3.38376223e+02 -3.12523222e-03 -1.31641694e+07],700,1062.1754580543059
1009,1009,[-3.54253732e+03  3.38376275e+02 -3.04227692e-03 -1.31641694e+07],845,1058.2123944963146
1010,1010,[-4.45735636e+03  3.36373793e+02 -4.19041736e-03 -1.31641694e+07],67,1070.4404711612567
1011,1011,[-4.48157819e+03  3.36373754e+02 -4.28959773e-03 -1.31641694e+07],747,1065.3399576034565
1012,1012,[-4.05106857e+03  3.37375039e+02 -3.73993692e-03 -1.31641694e+07],657,1070.5758038712363
1013,1013,[-3.61181663e+03  3.38376086e+02 -3.23127008e-03 -1.31641694e+07],515,1067.3928610933913
1014,1014,[-3.98392539e+03  3.37374995e+02 -3.58650197e-03 -1.31641694e+07],300,1070.8016692128865
1015,1015,[-2.82699214e+03  3.41379615e+02 -2.90207450e-03 -1.31641694e+07],365,1070.6484845006644
1016,1016,[-3.33396220e+03  3.39377220e+02 -3.17157636e-03 -1.31641694e+07],1062,1069.8470314283118
1017,1017,[-4.52353181e+03  3.36373782e+02 -4.32080213e-03 -1.31641694e+07],1069,1070.1340728134733
1018,1018,[-3.38488176e+03  3.39377205e+02 -3.23593032e-03 -1.31641694e+07],783,1071.488484780942
1019,1019,[-4.05418778e+03  3.37374954e+02 -3.79413852e-03 -1.31641694e+07],555,1071.912366583953
1020,1020,[-5.63522611e+03  3.35372829e+02 -5.12980210e-03 -1.31641694e+07],149,1070.5092488658127
1021,1021,[-4.48916472e+03  3.36373750e+02 -4.24677556e-03 -1.31641694e+07],593,1069.6912753427819
1022,1022,[-3.35915840e+03  3.39377291e+02 -3.18289875e-03 -1.31641694e+07],712,1071.4768769510313
1023,1023,[-4.03167922e+03  3.37375048e+02 -3.74966244e-03 -1.31641694e+07],280,1071.7873482305638
1024,1024,[-4.52771699e+03  3.36373776e+02 -4.31669524e-03 -1.31641694e+07],19,1070.084736744672
1025,1025,[-5.54295593e+03  3.35372715e+02 -5.15046727e-03 -1.31641694e+07],517,1071.1758770371086
1026,1026,[-4.11913700e+03  3.37375230e+02 -3.88375934e-03 -1.31641694e+07],873,1070.798419472465
1027,1027,[-4.19395720e+03  3.37375077e+02 -4.13850746e-03 -1.31641694e+07],246,1070.436259511913
1028,1028,[-4.56058778e+03  3.36373876e+02 -4.41678350e-03 -1.31641694e+07],103,1070.4800331192416
1029,1029,[-4.04465470e+03  3.37374890e+02 -3.77032853e-03 -1.31641694e+07],45,1071.9328697606572
1030,1030,[-3.00721946e+03  3.40378978e+02 -2.83126724e-03 -1.31641694e+07],720,1069.8686188498457
1031,1031,[-3.32670647e+03  3.39377120e+02 -3.17483927e-03 -1.31641694e+07],75,1071.231393151094
1032,1032,[-5.50864606e+03  3.35372814e+02 -5.08639797e-03 -1.31641694e+07],467,1071.2526127818937
1033,1033,[-4.95448251e+03  3.35372680e+02 -4.61853711e-03 -1.31641694e+07],74,1070.7317755878378
1034,1034,[-4.09348551e+03  3.37375302e+02 -3.85625606e-03 -1.31641694e+07],88,1071.3894810025367
1035,1035,[-4.54849811e+03  3.36374133e+02 -4.38889157e-03 -1.31641694e+07],94,1070.9037280580192
1036,1036,[-4.53852642e+03  3.36373756e+02 -4.38255466e-03 -1.31641694e+07],283,1070.851147403981
1037,1037,[-3.35932398e+03  3.39377359e+02 -3.20855693e-03 -1.31641694e+07],213,1070.2817777539915
1038,1038,[-4.03338026e+03  3.37375246e+02 -3.72897977e-03 -1.31641694e+07],691,1067.6552324833176
1039,1039,[-5.58596448e+03  3.35372658e+02 -5.13037313e-03 -1.31641694e+07],287,1070.6928720280634
1040,1040,[-4.47704806e+03  3.36373771e+02 -4.24249257e-03 -1.31641694e+07],926,1069.329224343467
1041,1041,[-3.34930346e+03  3.39377157e+02 -3.13757792e-03 -1.31641694e+07],100,1071.8530743216302
1042,1042,[-4.05145548e+03  3.37375004e+02 -3.79021752e-03 -1.31641694e+07],1011,1071.792379797035
1043,1043,[-3.32890163e+03  3.39377296e+02 -3.18039620e-03 -1.31641694e+07],706,1070.2236285696683
1044,1044,[-5.49042881e+03  3.35372782e+02 -5.14277027e-03 -1.31641694e+07],423,1071.343545883031
1045,1045,[-4.00997732e+03  3.37375142e+02 -3.65043761e-03 -1.31641694e+07],307,1070.7413130915168
1046,1046,[-4.47571822e+03  3.36373851e+02 -4.21541743e-03 -1.31641694e+07],490,1071.5642934162943
1047,1047,[-4.47892687e+03  3.36373761e+02 -4.23483001e-03 -1.31641694e+07],293,1070.334997100232
1048,1048,[-4.03503350e+03  3.37375093e+02 -3.75354304e-03 -1.31641694e+07],916,1071.6818560622598
1049,1049,[-4.06099704e+03  3.37375293e+02 -3.82041030e-03 -1.31641694e+07],782,1071.0660307086828
1050,1050,[-4.46957939e+03  3.36373832e+02 -4.23247209e-03 -1.31641694e+07],183,1071.2047195103457
1051,1051,[-4.50985516e+03  3.36373825e+02 -4.36592604e-03 -1.31641694e+07],87,1069.1794011550135
1052,1052,[-5.15472071e+03  3.35372692e+02 -5.07020945e-03 -1.31641694e+07],79,1067.9573851289201
1053,1053,[-4.51535676e+03  3.36373903e+02 -4.27034315e-03 -1.31641694e+07],1008,1069.98936757411
1054,1054,[-4.73520639e+03  3.35372660e+02 -4.34499079e-03 -1.31641694e+07],10,1068.5083326636272
1055,1055,[-4.56313104e+03  3.36373767e+02 -4.42623428e-03 -1.31641694e+07],420,1071.0945723237153
1056,1056,[-4.57063414e+03  3.36373977e+02 -4.37764018e-03 -1.31641694e+07],516,1068.461188628034
1057,1057,[-3.62158657e+03  3.38376052e+02 -3.22178726e-03 -1.31641694e+07],80,1070.0277064533195
1058,1058,[-4.52154802e+03  3.36373818e+02 -4.29364621e-03 -1.31641694e+07],943,1071.8146387266468
1059,1059,[-5.33862144e+03  3.35372641e+02 -5.03569171e-03 -1.31641694e+07],18,1070.9156174494858
1060,1060,[-4.12052405e+03  3.37374953e+02 -3.87968683e-03 -1.31641694e+07],151,1070.708607049586
1061,1061,[-4.04464205e+03  3.37375027e+02 -3.76871557e-03 -1.31641694e+07],689,1069.412310736954
1062,1062,[-4.17795739e+03  3.37374970e+02 -4.07891424e-03 -1.31641694e+07],136,1066.8921475848185
1063,1063,[-3.59605131e+03  3.38376348e+02 -3.21784686e-03 -1.31641694e+07],150,1070.5166336717048
1064,1064,[-3.34111523e+03  3.39377476e+02 -3.11484956e-03 -1.31641694e+07],1009,1071.5426310841979
1065,1065,[-4.53746878e+03  3.36373818e+02 -4.36141534e-03 -1.31641694e+07],137,1071.198915785445
1066,1066,[-4.55373576e+03  3.36373806e+02 -4.40831701e-03 -1.31641694e+07],780,1071.8264987169043
1067,1067,[-3.58967295e+03  3.38375982e+02 -3.22892220e-03 -1.31641694e+07],491,1070.6396709696762
1068,1068,[-5.45462870e+03  3.35372812e+02 -5.13287194e-03 -1.31641694e+07],39,1071.0573693112058
1069,1069,[-4.49050084e+03  3.36373819e+02 -4.24963017e-03 -1.31641694e+07],422,1066.8487987855376
1070,1070,[-3.34761511e+03  3.39377465e+02 -3.12913268e-03 -1.31641694e+07],40,1070.5768013839843
1071,1071,[-4.55323530e+03  3.36373771e+02 -4.37217189e-03 -1.31641694e+07],421,1070.740336155034
1072,1072,[-4.51503140e+03  3.36373787e+02 -4.23642303e-03 -1.31641694e+07],781,1070.643835173189
1073,1073,[-4.11828067e+03  3.37374884e+02 -3.82635494e-03 -1.31641694e+07],41,1070.5770562873602
1074,1074,[-5.14122893e+03  3.36373874e+02 -4.45619822e-03 -1.31641694e+07],1074,963.1452419693574
