,0,1,2,3
0,0,[-5.49739623e+03  3.33370548e+02 -4.57063928e-03 -1.31641694e+07],567,1281.8928722570233
1,1,[-5.08591842e+03  3.33370447e+02 -4.69678126e-03 -1.31641694e+07],665,1310.9721754232646
2,2,[-6.66548719e+03  3.32369480e+02 -5.76578885e-03 -1.31641694e+07],472,1308.9716686371014
3,3,[-5.54047002e+03  3.33370599e+02 -4.65884608e-03 -1.31641694e+07],925,1311.7437910209164
4,4,[-5.50425322e+03  3.33370447e+02 -4.64476692e-03 -1.31641694e+07],342,1316.1678090000569
5,5,[-6.02635614e+03  3.33370414e+02 -4.71779666e-03 -1.31641694e+07],291,1315.9906721175162
6,6,[-5.57780364e+03  3.33370433e+02 -4.53227661e-03 -1.31641694e+07],1163,1310.3424772242909
7,7,[-4.41317324e+03  3.35372843e+02 -3.45656166e-03 -1.31641694e+07],1235,1313.6402455583075
8,8,[-5.87652304e+03  3.32369304e+02 -5.20599418e-03 -1.31641694e+07],849,1314.5187753495625
9,9,[-6.32665308e+03  3.32369314e+02 -5.43629982e-03 -1.31641694e+07],335,1317.060148255326
10,10,[-4.80508597e+03  3.33370454e+02 -4.63509815e-03 -1.31641694e+07],733,1312.424064331117
11,11,[-5.33723766e+03  3.34371662e+02 -4.04364922e-03 -1.31641694e+07],734,1311.113425349141
12,12,[-5.10232609e+03  3.32369453e+02 -4.93586239e-03 -1.31641694e+07],463,1313.8824294414678
13,13,[-4.62127607e+03  3.33370463e+02 -4.28004860e-03 -1.31641694e+07],913,1316.2565539923394
14,14,[-6.51129639e+03  3.32369355e+02 -5.75598165e-03 -1.31641694e+07],779,1318.4941124265044
15,15,[-5.62281928e+03  3.34371786e+02 -3.95931719e-03 -1.31641694e+07],970,1317.4126824438226
16,16,[-5.60535620e+03  3.33370487e+02 -4.54066230e-03 -1.31641694e+07],1047,1313.5446161799066
17,17,[-4.82605452e+03  3.33370496e+02 -4.62685705e-03 -1.31641694e+07],967,1314.9222372472602
18,18,[-5.33450394e+03  3.33370437e+02 -4.73663199e-03 -1.31641694e+07],764,1314.7993520900225
19,19,[-5.64299465e+03  3.32369356e+02 -5.08190340e-03 -1.31641694e+07],359,1313.3734329215226
20,20,[-5.62733879e+03  3.33370485e+02 -4.59287795e-03 -1.31641694e+07],837,1316.8293245260102
21,21,[-4.42578660e+03  3.34371596e+02 -4.33185459e-03 -1.31641694e+07],1102,1314.0694736051366
22,22,[-5.30640952e+03  3.33370418e+02 -4.74403486e-03 -1.31641694e+07],347,1315.8677404724558
23,23,[-5.54591675e+03  3.33370434e+02 -4.64442734e-03 -1.31641694e+07],878,1318.6200782059352
24,24,[-5.71482154e+03  3.33370430e+02 -4.55960183e-03 -1.31641694e+07],319,1320.8787767001534
25,25,[-4.05410501e+03  3.36373777e+02 -3.04374639e-03 -1.31641694e+07],704,1317.2673409929735
26,26,[-5.64463672e+03  3.32369422e+02 -5.02904515e-03 -1.31641694e+07],346,1319.0228101958883
27,27,[-5.27029810e+03  3.33370521e+02 -4.79712924e-03 -1.31641694e+07],771,1321.4985201762152
28,28,[-4.59617138e+03  3.34371647e+02 -4.07092691e-03 -1.31641694e+07],664,1320.476069215459
29,29,[-4.35703232e+03  3.34371581e+02 -4.27805462e-03 -1.31641694e+07],550,1317.9169701989729
30,30,[-4.35255087e+03  3.35373093e+02 -4.08946007e-03 -1.31641694e+07],640,1318.3636147774298
31,31,[-5.07226682e+03  3.33370470e+02 -4.78690976e-03 -1.31641694e+07],1270,1319.2166217814174
32,32,[-5.48922469e+03  3.33370561e+02 -4.64515783e-03 -1.31641694e+07],618,1321.1772297832804
33,33,[-5.10905013e+03  3.33370443e+02 -4.64799561e-03 -1.31641694e+07],481,1317.9013190539633
34,34,[-5.00892142e+03  3.33370542e+02 -4.87156058e-03 -1.31641694e+07],372,1318.1996111467365
35,35,[-4.69917959e+03  3.33370525e+02 -4.26329506e-03 -1.31641694e+07],695,1319.4945689212032
36,36,[-5.49410656e+03  3.33370464e+02 -4.54421676e-03 -1.31641694e+07],511,1318.980274745924
37,37,[-4.34260997e+03  3.35372711e+02 -4.12153120e-03 -1.31641694e+07],1221,1321.4624527709618
38,38,[-5.01966141e+03  3.33370441e+02 -4.80376315e-03 -1.31641694e+07],944,1320.6348014176945
39,39,[-6.54954013e+03  3.32369309e+02 -5.68373574e-03 -1.31641694e+07],936,1321.8757883154135
40,40,[-5.48614086e+03  3.33370528e+02 -4.52633913e-03 -1.31641694e+07],647,1318.4812010030228
41,41,[-5.99797461e+03  3.33370833e+02 -4.92990774e-03 -1.31641694e+07],1033,1318.0231287336735
42,42,[-5.87962177e+03  3.33370424e+02 -4.52760314e-03 -1.31641694e+07],656,1318.8879984933135
43,43,[-5.53041489e+03  3.33370464e+02 -4.60228656e-03 -1.31641694e+07],412,1322.886313506468
44,44,[-5.07642606e+03  3.33370419e+02 -4.71702472e-03 -1.31641694e+07],398,1320.2941378497762
45,45,[-5.60614442e+03  3.32369358e+02 -5.08209060e-03 -1.31641694e+07],150,1318.5575720920972
46,46,[-5.50097324e+03  3.33370486e+02 -4.65681026e-03 -1.31641694e+07],645,1322.4161960151357
47,47,[-5.01052235e+03  3.33370517e+02 -4.79908545e-03 -1.31641694e+07],1032,1323.5771222387966
48,48,[-5.38327200e+03  3.33370629e+02 -4.62120710e-03 -1.31641694e+07],658,1321.7772089503865
49,49,[-5.64895730e+03  3.34371536e+02 -3.95278566e-03 -1.31641694e+07],947,1320.683165801087
50,50,[-5.63042072e+03  3.32369365e+02 -5.04778647e-03 -1.31641694e+07],863,1321.2596456774875
51,51,[-6.87920804e+03  3.32369343e+02 -5.55383675e-03 -1.31641694e+07],949,1321.3240735914683
52,52,[-5.67653123e+03  3.32369382e+02 -5.01896385e-03 -1.31641694e+07],1152,1312.9660330558013
53,53,[-5.10230770e+03  3.33370559e+02 -4.54813524e-03 -1.31641694e+07],364,1306.004726254133
54,54,[-5.53351092e+03  3.34371538e+02 -3.83181830e-03 -1.31641694e+07],1174,1308.2636852439964
55,55,[-5.62327621e+03  3.33370435e+02 -4.57168131e-03 -1.31641694e+07],790,1314.8383912368743
56,56,[-5.39467786e+03  3.33370538e+02 -4.72094655e-03 -1.31641694e+07],416,1319.842170869429
57,57,[-5.74271127e+03  3.31368304e+02 -5.71587690e-03 -1.31641694e+07],566,1320.7758694430368
58,58,[-6.06718818e+03  3.31368252e+02 -6.95392502e-03 -1.31641694e+07],886,1320.6764581969323
59,59,[-5.27298484e+03  3.33370472e+02 -4.66536367e-03 -1.31641694e+07],314,1319.840229494938
60,60,[-5.70083684e+03  3.33370528e+02 -4.50230271e-03 -1.31641694e+07],956,1319.7907540201202
61,61,[-5.47966875e+03  3.33370563e+02 -4.67607705e-03 -1.31641694e+07],755,1322.1000273438156
62,62,[-5.32279379e+03  3.33370468e+02 -4.64499174e-03 -1.31641694e+07],402,1321.837465703335
63,63,[-5.03711708e+03  3.33370442e+02 -4.65590749e-03 -1.31641694e+07],336,1316.0529097705753
64,64,[-5.02521054e+03  3.33370412e+02 -4.75606200e-03 -1.31641694e+07],765,1320.3414775062577
65,65,[-5.59172320e+03  3.32369365e+02 -5.10345203e-03 -1.31641694e+07],1090,1319.6612409613572
66,66,[-4.71575154e+03  3.33370759e+02 -4.81715951e-03 -1.31641694e+07],338,1323.7158631199302
67,67,[-5.07920685e+03  3.33370431e+02 -4.62466264e-03 -1.31641694e+07],1156,1319.5914430921703
68,68,[-5.47805556e+03  3.33370425e+02 -4.58850314e-03 -1.31641694e+07],940,1321.289583256603
69,69,[-5.16836367e+03  3.32369543e+02 -4.77256856e-03 -1.31641694e+07],428,1317.72910898392
70,70,[-6.01591252e+03  3.31368289e+02 -7.05442982e-03 -1.31641694e+07],869,1323.5337776428826
71,71,[-4.36444879e+03  3.34371755e+02 -4.26604716e-03 -1.31641694e+07],959,1318.6703768442103
72,72,[-5.48648200e+03  3.33370468e+02 -4.64290951e-03 -1.31641694e+07],1167,1319.712224931816
73,73,[-5.02716005e+03  3.33370449e+02 -4.80829808e-03 -1.31641694e+07],862,1320.0927396751727
74,74,[-5.01641156e+03  3.33370659e+02 -4.74362968e-03 -1.31641694e+07],271,1321.632083712423
75,75,[-5.08334364e+03  3.33370485e+02 -4.61717128e-03 -1.31641694e+07],575,1321.8932153966
76,76,[-5.01285191e+03  3.33370564e+02 -4.80462113e-03 -1.31641694e+07],189,1322.3271049117254
77,77,[-5.00516191e+03  3.33370453e+02 -4.77156619e-03 -1.31641694e+07],554,1322.7183746882363
78,78,[-5.08851710e+03  3.33370475e+02 -4.64918734e-03 -1.31641694e+07],285,1321.241431498304
79,79,[-5.80194299e+03  3.33370488e+02 -4.51361346e-03 -1.31641694e+07],864,1319.8974421417158
80,80,[-6.08710099e+03  3.32369367e+02 -5.52086349e-03 -1.31641694e+07],304,1320.4098384312467
81,81,[-5.10911080e+03  3.33370550e+02 -4.70938717e-03 -1.31641694e+07],1248,1323.7414960499736
82,82,[-5.53603575e+03  3.33370461e+02 -4.53774899e-03 -1.31641694e+07],523,1321.4796691328208
83,83,[-5.97897289e+03  3.33370422e+02 -4.57783493e-03 -1.31641694e+07],142,1322.5739452316614
84,84,[-6.37742725e+03  3.32369304e+02 -5.48547108e-03 -1.31641694e+07],1146,1322.7866782389008
85,85,[-4.79110462e+03  3.33370454e+02 -4.69071054e-03 -1.31641694e+07],649,1321.6285474704343
86,86,[-3.98285770e+03  3.35372665e+02 -3.96839411e-03 -1.31641694e+07],1193,1319.8793215049425
87,87,[-6.52933618e+03  3.33370593e+02 -4.94414442e-03 -1.31641694e+07],866,1321.813141190816
88,88,[-5.01051523e+03  3.33370554e+02 -4.77809023e-03 -1.31641694e+07],943,1324.3071391576348
89,89,[-5.53223714e+03  3.33370594e+02 -4.50882953e-03 -1.31641694e+07],462,1320.691790426092
90,90,[-5.35405192e+03  3.33370514e+02 -4.65682822e-03 -1.31641694e+07],571,1322.41661104627
91,91,[-5.28066681e+03  3.33370512e+02 -4.74216614e-03 -1.31641694e+07],787,1323.9212544796856
92,92,[-5.55748754e+03  3.33370442e+02 -4.56997796e-03 -1.31641694e+07],1171,1323.2812627685746
93,93,[-4.33998837e+03  3.35372783e+02 -4.05125985e-03 -1.31641694e+07],1002,1321.5765335385152
94,94,[-5.65221977e+03  3.33370459e+02 -4.54422179e-03 -1.31641694e+07],494,1323.1765171853156
95,95,[-5.30259040e+03  3.33370447e+02 -4.74666846e-03 -1.31641694e+07],503,1322.8516485140208
96,96,[-5.63404297e+03  3.33370586e+02 -4.55759043e-03 -1.31641694e+07],458,1323.0476316801276
97,97,[-4.74645922e+03  3.33370536e+02 -4.67880417e-03 -1.31641694e+07],1168,1322.4205356886482
98,98,[-4.91736540e+03  3.33370468e+02 -4.76827821e-03 -1.31641694e+07],1161,1322.983384837213
99,99,[-5.42790643e+03  3.33370433e+02 -4.65503790e-03 -1.31641694e+07],1078,1323.788047477702
100,100,[-4.93151499e+03  3.33370626e+02 -4.74407179e-03 -1.31641694e+07],1147,1321.818163011746
101,101,[-5.32442846e+03  3.33370572e+02 -4.60613029e-03 -1.31641694e+07],545,1321.769179748842
102,102,[-5.40940688e+03  3.32369531e+02 -4.92483397e-03 -1.31641694e+07],316,1321.9037790284676
103,103,[-5.35763006e+03  3.34371627e+02 -4.02964629e-03 -1.31641694e+07],756,1317.0546841327805
104,104,[-5.41962841e+03  3.33370451e+02 -4.58906774e-03 -1.31641694e+07],718,1319.7297720622196
105,105,[-5.29176280e+03  3.33370419e+02 -4.64478080e-03 -1.31641694e+07],509,1322.4116206245776
106,106,[-5.99859237e+03  3.33370441e+02 -4.57145188e-03 -1.31641694e+07],651,1321.850187008075
107,107,[-5.49782950e+03  3.33370458e+02 -4.62117369e-03 -1.31641694e+07],712,1323.7489055228612
108,108,[-5.42078609e+03  3.33370608e+02 -4.56171308e-03 -1.31641694e+07],667,1319.725805400765
109,109,[-4.76749716e+03  3.33370535e+02 -4.69208233e-03 -1.31641694e+07],134,1322.699915577771
110,110,[-5.00566780e+03  3.33370478e+02 -4.79099116e-03 -1.31641694e+07],250,1322.1936218838596
111,111,[-5.50217658e+03  3.33370474e+02 -4.60930475e-03 -1.31641694e+07],705,1321.4674887877554
112,112,[-5.52327541e+03  3.33370557e+02 -4.50080213e-03 -1.31641694e+07],557,1322.2948871569595
113,113,[-5.04736595e+03  3.33370453e+02 -4.73751112e-03 -1.31641694e+07],741,1322.9196498127951
114,114,[-4.96938850e+03  3.33370421e+02 -4.86960429e-03 -1.31641694e+07],350,1323.1502752150059
115,115,[-4.59789506e+03  3.34371546e+02 -4.22098065e-03 -1.31641694e+07],631,1320.083950684543
116,116,[-5.31345708e+03  3.34371572e+02 -3.87653143e-03 -1.31641694e+07],655,1312.6249860888693
117,117,[-5.70993047e+03  3.33370441e+02 -4.46586807e-03 -1.31641694e+07],691,1311.298501253413
118,118,[-4.95419129e+03  3.33370414e+02 -4.67736020e-03 -1.31641694e+07],1249,1318.626218194225
119,119,[-5.61860311e+03  3.32369405e+02 -4.99057503e-03 -1.31641694e+07],657,1319.8781997093893
120,120,[-5.36556526e+03  3.33370547e+02 -4.67319797e-03 -1.31641694e+07],735,1323.362766209126
121,121,[-5.36245917e+03  3.33370507e+02 -4.64473337e-03 -1.31641694e+07],1241,1321.9510293106457
122,122,[-5.09651829e+03  3.33370519e+02 -4.67502689e-03 -1.31641694e+07],1112,1320.4917920836901
123,123,[-4.80724668e+03  3.33370602e+02 -5.11772265e-03 -1.31641694e+07],923,1323.2255779909585
124,124,[-5.35240037e+03  3.34371632e+02 -4.02592561e-03 -1.31641694e+07],699,1324.2522808438293
125,125,[-5.31994487e+03  3.34371614e+02 -3.99371242e-03 -1.31641694e+07],407,1324.157677010956
126,126,[-4.35409685e+03  3.34371569e+02 -4.18004136e-03 -1.31641694e+07],381,1323.3349663069785
127,127,[-5.40402997e+03  3.33370490e+02 -4.53484533e-03 -1.31641694e+07],728,1321.5673208847325
128,128,[-6.35261933e+03  3.32369478e+02 -5.37102300e-03 -1.31641694e+07],1034,1322.9273612592626
129,129,[-6.58827716e+03  3.32369444e+02 -5.66009379e-03 -1.31641694e+07],310,1323.6549203605616
130,130,[-5.92307384e+03  3.33370440e+02 -4.47652756e-03 -1.31641694e+07],1159,1322.932661253476
131,131,[-4.38901505e+03  3.34371858e+02 -4.23547869e-03 -1.31641694e+07],966,1321.961929504809
132,132,[-5.04366193e+03  3.33370420e+02 -4.70935100e-03 -1.31641694e+07],1027,1323.5536821665278
133,133,[-5.29979085e+03  3.33370538e+02 -4.73068700e-03 -1.31641694e+07],518,1324.1005927443439
134,134,[-6.27650829e+03  3.32369508e+02 -5.39868554e-03 -1.31641694e+07],376,1324.9861293388412
135,135,[-5.26919311e+03  3.33370412e+02 -4.66254543e-03 -1.31641694e+07],568,1322.9468921672
136,136,[-5.92370828e+03  3.33370414e+02 -4.56421140e-03 -1.31641694e+07],606,1322.5464193855958
137,137,[-6.28574147e+03  3.32369309e+02 -5.44368627e-03 -1.31641694e+07],276,1324.2056656572893
138,138,[-4.80585856e+03  3.33370424e+02 -5.15899251e-03 -1.31641694e+07],1199,1324.2746263377753
139,139,[-5.28905887e+03  3.33370555e+02 -4.61555707e-03 -1.31641694e+07],922,1322.899978186638
140,140,[-4.42000367e+03  3.35372664e+02 -3.42489289e-03 -1.31641694e+07],440,1323.35791248349
141,141,[-5.32470639e+03  3.34371729e+02 -4.04519957e-03 -1.31641694e+07],946,1323.6114697069136
142,142,[-4.91029616e+03  3.33370504e+02 -4.78586020e-03 -1.31641694e+07],1081,1325.0597638006532
143,143,[-5.59671405e+03  3.33370421e+02 -4.47641355e-03 -1.31641694e+07],1246,1321.6339759128882
144,144,[-5.35704569e+03  3.33370448e+02 -4.59305700e-03 -1.31641694e+07],794,1323.8086239243853
145,145,[-4.11120612e+03  3.35372644e+02 -3.59001446e-03 -1.31641694e+07],1289,1324.125140995499
146,146,[-5.37084601e+03  3.33370425e+02 -4.66871441e-03 -1.31641694e+07],1041,1324.815137494662
147,147,[-5.69954026e+03  3.32369376e+02 -5.41084887e-03 -1.31641694e+07],833,1323.5644606931435
148,148,[-4.78168047e+03  3.33370438e+02 -4.66301871e-03 -1.31641694e+07],1213,1322.820605046262
149,149,[-5.01384895e+03  3.33370446e+02 -4.75343797e-03 -1.31641694e+07],639,1324.7213726484993
150,150,[-5.32872459e+03  3.33370483e+02 -4.67342965e-03 -1.31641694e+07],634,1325.2547609559035
151,151,[-4.75026092e+03  3.33370556e+02 -4.68719416e-03 -1.31641694e+07],363,1323.8689610588103
152,152,[-4.35342429e+03  3.34371532e+02 -4.27322528e-03 -1.31641694e+07],818,1322.0396776616428
153,153,[-5.48017555e+03  3.33370444e+02 -4.59694003e-03 -1.31641694e+07],596,1322.6518078226375
154,154,[-6.78947040e+03  3.32369407e+02 -5.65919443e-03 -1.31641694e+07],711,1320.9604985070202
155,155,[-4.91413911e+03  3.33370415e+02 -4.73777671e-03 -1.31641694e+07],329,1323.440975613056
156,156,[-5.04550829e+03  3.33370515e+02 -4.56140564e-03 -1.31641694e+07],948,1321.9761422910765
157,157,[-4.72597844e+03  3.33370438e+02 -4.70645266e-03 -1.31641694e+07],861,1324.1727752218858
158,158,[-5.00828647e+03  3.33370482e+02 -4.73489247e-03 -1.31641694e+07],687,1323.9922831063986
159,159,[-5.06019463e+03  3.33370520e+02 -4.64801254e-03 -1.31641694e+07],146,1322.2761342771335
160,160,[-5.39733981e+03  3.33370463e+02 -4.55029870e-03 -1.31641694e+07],325,1322.990200638421
161,161,[-4.99662956e+03  3.33370422e+02 -4.71897760e-03 -1.31641694e+07],499,1324.5646083015133
162,162,[-4.71059747e+03  3.33370514e+02 -4.75846860e-03 -1.31641694e+07],801,1321.907134486926
163,163,[-4.33650328e+03  3.34371621e+02 -4.33323859e-03 -1.31641694e+07],309,1318.7417607253144
164,164,[-4.76970775e+03  3.33370485e+02 -4.69552566e-03 -1.31641694e+07],965,1322.1791931615046
165,165,[-5.48458046e+03  3.33370481e+02 -4.59520018e-03 -1.31641694e+07],876,1322.8553905955573
166,166,[-5.34805728e+03  3.33370456e+02 -4.59280125e-03 -1.31641694e+07],1058,1324.7338729890066
167,167,[-5.94618777e+03  3.31368269e+02 -7.05776216e-03 -1.31641694e+07],1084,1323.4644025626274
168,168,[-5.98678783e+03  3.33370451e+02 -4.53768043e-03 -1.31641694e+07],841,1320.5460010488725
169,169,[-5.92022723e+03  3.32369304e+02 -5.90192332e-03 -1.31641694e+07],490,1323.1128521760543
170,170,[-5.41322102e+03  3.33370469e+02 -4.53935442e-03 -1.31641694e+07],775,1323.8163909435777
171,171,[-5.03434374e+03  3.33370492e+02 -4.63244324e-03 -1.31641694e+07],666,1322.9390427581043
172,172,[-5.33923112e+03  3.32369424e+02 -5.45706037e-03 -1.31641694e+07],321,1323.1622125674648
173,173,[-5.98983555e+03  3.32369605e+02 -5.83341567e-03 -1.31641694e+07],792,1322.335017347678
174,174,[-5.00153018e+03  3.33370608e+02 -4.68880795e-03 -1.31641694e+07],455,1322.9637565966782
175,175,[-3.86767615e+03  3.36373864e+02 -3.95608794e-03 -1.31641694e+07],204,1322.1561266828762
176,176,[-4.71526475e+03  3.33370537e+02 -4.76835795e-03 -1.31641694e+07],659,1323.3738822346465
177,177,[-5.80032072e+03  3.33370443e+02 -4.60561948e-03 -1.31641694e+07],1240,1323.849735301526
178,178,[-4.34325055e+03  3.34371591e+02 -4.25281297e-03 -1.31641694e+07],166,1320.9395159728897
179,179,[-5.29196967e+03  3.33370519e+02 -4.62945480e-03 -1.31641694e+07],570,1320.5114646511397
180,180,[-5.97281677e+03  3.32369558e+02 -5.86323772e-03 -1.31641694e+07],330,1323.3109854542374
181,181,[-5.96436167e+03  3.33370511e+02 -4.55696431e-03 -1.31641694e+07],1218,1324.4341183017818
182,182,[-5.27231234e+03  3.32369405e+02 -5.42045664e-03 -1.31641694e+07],149,1322.90839467302
183,183,[-4.95283183e+03  3.33370687e+02 -4.67533729e-03 -1.31641694e+07],272,1323.3238994196058
184,184,[-6.14730367e+03  3.32369346e+02 -5.41947631e-03 -1.31641694e+07],569,1323.8921282959486
185,185,[-5.56443725e+03  3.32369368e+02 -4.98622687e-03 -1.31641694e+07],255,1322.1529918886993
186,186,[-5.31511198e+03  3.32369306e+02 -5.42044110e-03 -1.31641694e+07],629,1320.5098798135589
187,187,[-5.98122320e+03  3.31368243e+02 -7.05519720e-03 -1.31641694e+07],1244,1322.1408404062186
188,188,[-6.33546050e+03  3.32369311e+02 -5.35478718e-03 -1.31641694e+07],312,1323.2604815083162
189,189,[-5.27883555e+03  3.33370512e+02 -4.73687638e-03 -1.31641694e+07],614,1325.1104472064349
190,190,[-5.30428891e+03  3.33370469e+02 -4.58861183e-03 -1.31641694e+07],791,1323.1143645950742
191,191,[-5.04322530e+03  3.33370436e+02 -4.70850437e-03 -1.31641694e+07],1164,1324.2542873788736
192,192,[-5.68786257e+03  3.33370462e+02 -4.61757025e-03 -1.31641694e+07],873,1323.4312468547894
193,193,[-4.41540359e+03  3.34371788e+02 -4.35587043e-03 -1.31641694e+07],427,1320.6665465119356
194,194,[-5.19565782e+03  3.32369358e+02 -5.58447559e-03 -1.31641694e+07],425,1319.204168730573
195,195,[-4.08920330e+03  3.35372763e+02 -3.56885003e-03 -1.31641694e+07],710,1321.0741912166504
196,196,[-5.37856433e+03  3.33370425e+02 -4.63187543e-03 -1.31641694e+07],1157,1322.0755901811137
197,197,[-4.33167656e+03  3.34371625e+02 -4.42739372e-03 -1.31641694e+07],1125,1321.5040181494835
198,198,[-4.78757456e+03  3.33370417e+02 -4.89480665e-03 -1.31641694e+07],860,1320.000451252741
199,199,[-4.94984970e+03  3.33370486e+02 -4.79325428e-03 -1.31641694e+07],729,1322.6860816157873
200,200,[-5.91498304e+03  3.32369334e+02 -5.91051240e-03 -1.31641694e+07],464,1323.328842253828
201,201,[-4.29101781e+03  3.34371565e+02 -4.32659634e-03 -1.31641694e+07],636,1323.360819327035
202,202,[-4.49350619e+03  3.34371622e+02 -4.45230600e-03 -1.31641694e+07],760,1322.6324703393514
203,203,[-5.49899438e+03  3.33370455e+02 -4.56556729e-03 -1.31641694e+07],406,1324.1693443310307
204,204,[-6.06944082e+03  3.32369336e+02 -5.75455976e-03 -1.31641694e+07],370,1324.7520750565773
205,205,[-4.33066687e+03  3.34371577e+02 -4.30357213e-03 -1.31641694e+07],932,1321.2124599970994
206,206,[-4.72373259e+03  3.33370579e+02 -4.71062465e-03 -1.31641694e+07],1026,1322.1129534505992
207,207,[-5.04196031e+03  3.33370546e+02 -4.66464330e-03 -1.31641694e+07],380,1323.5036798201518
208,208,[-4.96193987e+03  3.33370533e+02 -4.72803570e-03 -1.31641694e+07],318,1324.00098760422
209,209,[-4.95995349e+03  3.33370716e+02 -4.68601357e-03 -1.31641694e+07],535,1318.4232645474835
210,210,[-5.82832144e+03  3.33370508e+02 -4.41834904e-03 -1.31641694e+07],394,1313.1078009060311
211,211,[-5.61525837e+03  3.33370441e+02 -4.47778128e-03 -1.31641694e+07],256,1314.3330330297806
212,212,[-5.85062237e+03  3.33370428e+02 -4.55929496e-03 -1.31641694e+07],574,1319.6165311928155
213,213,[-6.13167361e+03  3.32369403e+02 -5.39862249e-03 -1.31641694e+07],308,1322.4625307411804
214,214,[-5.40865767e+03  3.33370480e+02 -4.59804461e-03 -1.31641694e+07],577,1322.6986682557417
215,215,[-5.24624192e+03  3.32369332e+02 -5.43883467e-03 -1.31641694e+07],1046,1321.9535626215854
216,216,[-4.75106831e+03  3.33370438e+02 -4.85845903e-03 -1.31641694e+07],1201,1321.8062628794482
217,217,[-5.25985662e+03  3.33370506e+02 -4.63712140e-03 -1.31641694e+07],326,1322.7126162985899
218,218,[-6.61139599e+03  3.32369425e+02 -5.66206560e-03 -1.31641694e+07],939,1321.9759607383564
219,219,[-5.28413511e+03  3.33370478e+02 -4.60704751e-03 -1.31641694e+07],901,1321.7845410147718
220,220,[-5.37030389e+03  3.33370415e+02 -4.51959551e-03 -1.31641694e+07],351,1320.1370944477103
221,221,[-5.34068436e+03  3.33370437e+02 -4.61105691e-03 -1.31641694e+07],753,1321.2193217618412
222,222,[-5.29583926e+03  3.33370577e+02 -4.66210993e-03 -1.31641694e+07],689,1324.0589669600643
223,223,[-4.86484943e+03  3.33370506e+02 -4.80532975e-03 -1.31641694e+07],243,1324.5254730583024
224,224,[-5.28532594e+03  3.32369384e+02 -5.42769413e-03 -1.31641694e+07],497,1322.9492560988242
225,225,[-4.74365198e+03  3.33370415e+02 -4.92476624e-03 -1.31641694e+07],1049,1324.0989662037282
226,226,[-4.56208344e+03  3.34371573e+02 -4.26630478e-03 -1.31641694e+07],754,1323.863981744461
227,227,[-5.50888353e+03  3.33370467e+02 -4.55567351e-03 -1.31641694e+07],1160,1323.2739341021502
228,228,[-3.90823183e+03  3.36373978e+02 -3.87792555e-03 -1.31641694e+07],812,1321.5879627067786
229,229,[-5.24392398e+03  3.33370471e+02 -4.62782368e-03 -1.31641694e+07],926,1322.5284292377246
230,230,[-5.22432038e+03  3.33370463e+02 -4.71389905e-03 -1.31641694e+07],805,1323.8479813188599
231,231,[-6.37543130e+03  3.31368360e+02 -6.73186908e-03 -1.31641694e+07],921,1324.529908305157
232,232,[-4.86381950e+03  3.33370534e+02 -5.11325855e-03 -1.31641694e+07],1141,1323.902276125913
233,233,[-5.22425876e+03  3.32369428e+02 -5.50437745e-03 -1.31641694e+07],473,1322.6940168872634
234,234,[-5.25967751e+03  3.33370615e+02 -4.67230629e-03 -1.31641694e+07],977,1323.053532970244
235,235,[-5.18142892e+03  3.33370440e+02 -4.78890152e-03 -1.31641694e+07],1194,1321.1789204158617
236,236,[-5.59924859e+03  3.32369338e+02 -5.46748007e-03 -1.31641694e+07],607,1321.5165937520678
237,237,[-4.57624176e+03  3.34371536e+02 -4.48903579e-03 -1.31641694e+07],365,1323.6136425314078
238,238,[-5.50470776e+03  3.33370508e+02 -4.55848905e-03 -1.31641694e+07],269,1323.2349552682942
239,239,[-5.61076094e+03  3.33370484e+02 -4.52459057e-03 -1.31641694e+07],893,1323.289735577759
240,240,[-4.70497529e+03  3.33370519e+02 -4.63275716e-03 -1.31641694e+07],536,1321.2503468066568
241,241,[-5.96394293e+03  3.31368285e+02 -7.06357092e-03 -1.31641694e+07],161,1322.017910667408
242,242,[-6.01737850e+03  3.32369321e+02 -5.75710186e-03 -1.31641694e+07],1028,1321.6880096040238
243,243,[-5.56382250e+03  3.33370430e+02 -4.52798376e-03 -1.31641694e+07],622,1324.6006536372845
244,244,[-4.71874317e+03  3.33370678e+02 -4.64122263e-03 -1.31641694e+07],1036,1323.7046895594156
245,245,[-6.01640483e+03  3.31368293e+02 -7.04140685e-03 -1.31641694e+07],1166,1322.845133862924
246,246,[-4.93769823e+03  3.33370423e+02 -4.79845537e-03 -1.31641694e+07],937,1321.5687422415588
247,247,[-5.43174336e+03  3.33370432e+02 -4.52573691e-03 -1.31641694e+07],846,1322.8768129988973
248,248,[-4.55374464e+03  3.34371553e+02 -4.23895582e-03 -1.31641694e+07],1048,1322.2964485830792
249,249,[-5.49105267e+03  3.33370425e+02 -4.50800991e-03 -1.31641694e+07],739,1324.2069866009492
250,250,[-5.54066716e+03  3.33370557e+02 -4.53560586e-03 -1.31641694e+07],489,1324.9854861035813
251,251,[-6.03459536e+03  3.31368240e+02 -7.02284002e-03 -1.31641694e+07],1062,1323.9745912286742
252,252,[-5.00370159e+03  3.33370424e+02 -4.63229293e-03 -1.31641694e+07],768,1322.61071485486
253,253,[-5.29934732e+03  3.33370471e+02 -4.63224054e-03 -1.31641694e+07],808,1324.0576942965683
254,254,[-4.90778291e+03  3.33370447e+02 -4.77758781e-03 -1.31641694e+07],420,1323.815135798596
255,255,[-5.57327613e+03  3.33370435e+02 -4.51248735e-03 -1.31641694e+07],721,1324.716530165905
256,256,[-5.29226314e+03  3.32369505e+02 -5.44868116e-03 -1.31641694e+07],650,1324.6475105036156
257,257,[-6.56191473e+03  3.32369308e+02 -5.39919921e-03 -1.31641694e+07],231,1323.958869616759
258,258,[-5.22068556e+03  3.33370591e+02 -4.73401978e-03 -1.31641694e+07],963,1323.2685866407198
259,259,[-4.33857885e+03  3.34371635e+02 -4.38291930e-03 -1.31641694e+07],757,1324.329026180488
260,260,[-4.51792656e+03  3.34371867e+02 -4.42168959e-03 -1.31641694e+07],223,1323.1973661172347
261,261,[-4.76410456e+03  3.33370509e+02 -4.96322283e-03 -1.31641694e+07],857,1323.7920093298032
262,262,[-5.80093543e+03  3.33370437e+02 -4.57415318e-03 -1.31641694e+07],1088,1323.4032635040996
263,263,[-5.40854043e+03  3.32369378e+02 -5.12300757e-03 -1.31641694e+07],1200,1324.0333289705372
264,264,[-4.41547841e+03  3.34371715e+02 -4.34071720e-03 -1.31641694e+07],1100,1323.0722319010388
265,265,[-5.50919904e+03  3.33370503e+02 -4.51819476e-03 -1.31641694e+07],278,1322.9651605864392
266,266,[-4.95411211e+03  3.33370422e+02 -4.77243088e-03 -1.31641694e+07],836,1324.183571414905
267,267,[-5.21255794e+03  3.33370431e+02 -4.68393279e-03 -1.31641694e+07],1198,1324.0371583235988
268,268,[-4.35410712e+03  3.34371605e+02 -4.30883556e-03 -1.31641694e+07],437,1322.9224876955795
269,269,[-5.31998213e+03  3.33370419e+02 -4.59413959e-03 -1.31641694e+07],450,1324.5686498403566
270,270,[-4.80185422e+03  3.33370450e+02 -5.14963736e-03 -1.31641694e+07],515,1324.4223956272517
271,271,[-5.35833547e+03  3.33370531e+02 -4.57267862e-03 -1.31641694e+07],842,1325.113811133103
272,272,[-5.27322099e+03  3.32369313e+02 -5.45680506e-03 -1.31641694e+07],486,1324.7199803510828
273,273,[-3.83750360e+03  3.36374112e+02 -4.02028830e-03 -1.31641694e+07],382,1323.1276348345439
274,274,[-4.85660659e+03  3.33370534e+02 -5.15387373e-03 -1.31641694e+07],877,1324.3016846387884
275,275,[-5.22603589e+03  3.33370425e+02 -4.71221609e-03 -1.31641694e+07],441,1323.966166485557
276,276,[-4.85986148e+03  3.33370440e+02 -4.78592135e-03 -1.31641694e+07],1153,1324.8908351157825
277,277,[-4.37387870e+03  3.34371589e+02 -4.25663078e-03 -1.31641694e+07],1051,1323.1291380470175
278,278,[-4.75816975e+03  3.33370430e+02 -4.88712024e-03 -1.31641694e+07],986,1324.5133534911463
279,279,[-5.43724593e+03  3.33370453e+02 -4.56721723e-03 -1.31641694e+07],1055,1324.0622064528752
280,280,[-6.00098919e+03  3.32369328e+02 -5.73306438e-03 -1.31641694e+07],553,1323.0908313350042
281,281,[-6.27547728e+03  3.32369306e+02 -5.28877922e-03 -1.31641694e+07],564,1323.0783482274376
282,282,[-4.53722384e+03  3.34371609e+02 -4.21006932e-03 -1.31641694e+07],293,1322.6295776131115
283,283,[-4.79160286e+03  3.33370438e+02 -4.82126967e-03 -1.31641694e+07],641,1324.0137239144308
284,284,[-5.37013979e+03  3.33370504e+02 -4.60465074e-03 -1.31641694e+07],476,1323.4430754481807
285,285,[-5.35221031e+03  3.33370424e+02 -4.58777133e-03 -1.31641694e+07],971,1325.0978247361488
286,286,[-5.21200706e+03  3.33370475e+02 -4.62491794e-03 -1.31641694e+07],1190,1322.2019008481477
287,287,[-5.32735807e+03  3.33370439e+02 -4.53225463e-03 -1.31641694e+07],1121,1322.6101119046878
288,288,[-4.97638902e+03  3.33370525e+02 -4.66361292e-03 -1.31641694e+07],742,1321.533458749271
289,289,[-5.51461144e+03  3.32369308e+02 -5.05371753e-03 -1.31641694e+07],763,1320.8296947523934
290,290,[-5.19235313e+03  3.32369311e+02 -5.48015979e-03 -1.31641694e+07],942,1323.7825065032462
291,291,[-4.75158200e+03  3.33370483e+02 -5.22569405e-03 -1.31641694e+07],344,1325.6133136123096
292,292,[-4.77060143e+03  3.33370504e+02 -5.21390375e-03 -1.31641694e+07],1176,1324.2934164486387
293,293,[-4.94372738e+03  3.33370484e+02 -4.69527489e-03 -1.31641694e+07],181,1324.464719284601
294,294,[-5.75857112e+03  3.33370466e+02 -4.45096281e-03 -1.31641694e+07],581,1320.340463834455
295,295,[-5.66833842e+03  3.32369341e+02 -5.31955806e-03 -1.31641694e+07],682,1314.3844893929343
296,296,[-3.81557729e+03  3.36373779e+02 -4.07781779e-03 -1.31641694e+07],270,1319.9708323860752
297,297,[-5.24125154e+03  3.33370429e+02 -4.67221029e-03 -1.31641694e+07],747,1321.4151420096123
298,298,[-5.99640802e+03  3.32369356e+02 -5.45069332e-03 -1.31641694e+07],690,1318.1548370322441
299,299,[-4.33984062e+03  3.34371561e+02 -4.26733767e-03 -1.31641694e+07],1082,1323.331922176356
300,300,[-5.35669169e+03  3.33370456e+02 -4.50836799e-03 -1.31641694e+07],426,1324.2276036299645
301,301,[-6.16031569e+03  3.32369393e+02 -5.35589896e-03 -1.31641694e+07],1069,1322.6152491619655
302,302,[-6.14561613e+03  3.32369323e+02 -5.37655238e-03 -1.31641694e+07],367,1323.7481897292132
303,303,[-5.24810617e+03  3.33370680e+02 -4.59029677e-03 -1.31641694e+07],562,1321.304619713648
304,304,[-4.72471218e+03  3.33370423e+02 -4.88893542e-03 -1.31641694e+07],1113,1325.0846970304974
305,305,[-5.89018879e+03  3.31368248e+02 -7.16635985e-03 -1.31641694e+07],1039,1320.920265327032
306,306,[-5.32019934e+03  3.33370475e+02 -4.60431029e-03 -1.31641694e+07],432,1322.8893711323885
307,307,[-4.54219688e+03  3.34371539e+02 -4.20534360e-03 -1.31641694e+07],850,1321.413314511193
308,308,[-5.25712873e+03  3.32369457e+02 -5.50518876e-03 -1.31641694e+07],752,1324.642666007282
309,309,[-5.20660086e+03  3.33370498e+02 -4.73515606e-03 -1.31641694e+07],767,1324.7895998816546
310,310,[-5.19109837e+03  3.32369305e+02 -5.55959049e-03 -1.31641694e+07],360,1324.912252181157
311,311,[-4.91506431e+03  3.33370540e+02 -4.63290613e-03 -1.31641694e+07],1045,1322.7004906831385
312,312,[-5.24523146e+03  3.33370469e+02 -4.63573951e-03 -1.31641694e+07],774,1324.703500100754
313,313,[-4.70048117e+03  3.33370460e+02 -4.78494929e-03 -1.31641694e+07],1101,1323.2887758118502
314,314,[-4.98031944e+03  3.33370593e+02 -4.70174032e-03 -1.31641694e+07],1321,1325.166978416634
315,315,[-4.38744913e+03  3.34371742e+02 -4.30475439e-03 -1.31641694e+07],1262,1323.5886140067885
316,316,[-5.17446479e+03  3.32369300e+02 -5.52506097e-03 -1.31641694e+07],1299,1324.9985531830682
317,317,[-5.28717076e+03  3.32369378e+02 -5.46117403e-03 -1.31641694e+07],1162,1323.0848161980111
318,318,[-5.74995627e+03  3.33370432e+02 -4.55143807e-03 -1.31641694e+07],810,1324.6574927310828
319,319,[-4.84095041e+03  3.33370483e+02 -4.78459293e-03 -1.31641694e+07],322,1325.4649738895723
320,320,[-3.66944582e+03  3.37374878e+02 -3.75935541e-03 -1.31641694e+07],1259,1322.671376965918
321,321,[-4.79629082e+03  3.33370468e+02 -5.01539685e-03 -1.31641694e+07],349,1324.76255211539
322,322,[-5.30899166e+03  3.33370519e+02 -4.60385784e-03 -1.31641694e+07],339,1324.3471031116085
323,323,[-5.33636981e+03  3.33370639e+02 -4.60335523e-03 -1.31641694e+07],259,1320.9943887668962
324,324,[-4.30687851e+03  3.34371583e+02 -4.33376750e-03 -1.31641694e+07],887,1323.2934475177688
325,325,[-4.72368970e+03  3.33370478e+02 -4.88962496e-03 -1.31641694e+07],811,1324.8063601189622
326,326,[-5.32469655e+03  3.33370464e+02 -4.52770983e-03 -1.31641694e+07],88,1324.6183921617571
327,327,[-4.74713498e+03  3.33370624e+02 -5.26620177e-03 -1.31641694e+07],274,1322.480319381401
328,328,[-4.77407818e+03  3.33370478e+02 -5.20133295e-03 -1.31641694e+07],964,1323.5724545290589
329,329,[-4.88917667e+03  3.33370496e+02 -4.67202657e-03 -1.31641694e+07],586,1324.8283107421664
330,330,[-4.80913340e+03  3.33370512e+02 -4.78410342e-03 -1.31641694e+07],591,1324.729262967603
331,331,[-4.92646784e+03  3.33370514e+02 -4.73304098e-03 -1.31641694e+07],802,1316.8320857734252
332,332,[-5.21383271e+03  3.33370492e+02 -4.72068930e-03 -1.31641694e+07],292,1318.8325743242317
333,333,[-4.99429337e+03  3.33370502e+02 -4.61101296e-03 -1.31641694e+07],703,1322.106529934223
334,334,[-4.41757662e+03  3.34371525e+02 -4.19545250e-03 -1.31641694e+07],660,1323.9418830844115
335,335,[-4.83140790e+03  3.33370427e+02 -4.77073775e-03 -1.31641694e+07],804,1325.5614451637523
336,336,[-4.94815348e+03  3.33370517e+02 -4.70208082e-03 -1.31641694e+07],803,1325.1556381744217
337,337,[-4.31286466e+03  3.34371618e+02 -4.28598819e-03 -1.31641694e+07],838,1323.6512072929136
338,338,[-4.64742206e+03  3.33370675e+02 -4.70187294e-03 -1.31641694e+07],138,1325.143133845734
339,339,[-5.20866919e+03  3.32369341e+02 -5.49889874e-03 -1.31641694e+07],482,1324.3316391894018
340,340,[-5.32506196e+03  3.33370446e+02 -4.58825698e-03 -1.31641694e+07],654,1320.8913027712526
341,341,[-5.19236019e+03  3.32369330e+02 -5.44446610e-03 -1.31641694e+07],870,1323.2561609321933
342,342,[-4.93706444e+03  3.33370451e+02 -4.66328520e-03 -1.31641694e+07],1133,1325.6556843458882
343,343,[-5.69753073e+03  3.33370446e+02 -4.56700394e-03 -1.31641694e+07],884,1323.2787882192133
344,344,[-5.17409126e+03  3.33370419e+02 -4.73530860e-03 -1.31641694e+07],1008,1324.438944777593
345,345,[-5.35396156e+03  3.33370545e+02 -4.48956840e-03 -1.31641694e+07],950,1323.9590290550811
346,346,[-5.16224438e+03  3.32369399e+02 -5.52222719e-03 -1.31641694e+07],1037,1325.455360283001
347,347,[-4.67549634e+03  3.33370510e+02 -4.71930585e-03 -1.31641694e+07],368,1325.4865740448827
348,348,[-5.17292220e+03  3.33370571e+02 -4.72730518e-03 -1.31641694e+07],191,1324.0178921332333
349,349,[-5.23175316e+03  3.33370440e+02 -4.57922174e-03 -1.31641694e+07],124,1324.3371831155507
350,350,[-4.97095297e+03  3.33370667e+02 -4.54136775e-03 -1.31641694e+07],938,1324.9728311587648
351,351,[-4.90309508e+03  3.33370447e+02 -4.77936605e-03 -1.31641694e+07],1145,1324.6138607475514
352,352,[-4.85118152e+03  3.33370466e+02 -4.77790395e-03 -1.31641694e+07],858,1323.322317745857
353,353,[-4.73895424e+03  3.33370428e+02 -4.89515698e-03 -1.31641694e+07],448,1324.1894526575966
354,354,[-4.95514607e+03  3.33370643e+02 -4.52432696e-03 -1.31641694e+07],709,1322.3398477947824
355,355,[-4.77063436e+03  3.33370472e+02 -5.20377671e-03 -1.31641694e+07],300,1323.662630282833
356,356,[-4.86166046e+03  3.33370435e+02 -4.74847768e-03 -1.31641694e+07],560,1323.0864000958122
357,357,[-5.74358843e+03  3.33370519e+02 -4.53977709e-03 -1.31641694e+07],1266,1322.0958835435679
358,358,[-4.28700048e+03  3.35372684e+02 -3.45233227e-03 -1.31641694e+07],680,1323.7946808501126
359,359,[-4.82801527e+03  3.33370489e+02 -4.65883855e-03 -1.31641694e+07],1209,1325.4905114760475
360,360,[-4.79339383e+03  3.33370418e+02 -4.78891752e-03 -1.31641694e+07],563,1324.3852207953319
361,361,[-5.33472946e+03  3.33370413e+02 -4.58075020e-03 -1.31641694e+07],793,1317.2358203198066
362,362,[-5.24110230e+03  3.33370535e+02 -4.56086961e-03 -1.31641694e+07],727,1319.2605619613926
363,363,[-4.74995915e+03  3.33370439e+02 -4.85648334e-03 -1.31641694e+07],778,1324.8355580344848
364,364,[-5.18060352e+03  3.32369377e+02 -5.62238080e-03 -1.31641694e+07],982,1325.2288039029925
365,365,[-4.21997667e+03  3.35373316e+02 -4.13051400e-03 -1.31641694e+07],814,1324.5694196151187
366,366,[-4.91821857e+03  3.33370461e+02 -4.67360394e-03 -1.31641694e+07],928,1322.703023491179
367,367,[-4.96255178e+03  3.33370488e+02 -4.63558098e-03 -1.31641694e+07],249,1324.406429344686
368,368,[-4.28721308e+03  3.34371572e+02 -4.24802560e-03 -1.31641694e+07],137,1324.2578429658474
369,369,[-4.95524175e+03  3.33370669e+02 -4.67604892e-03 -1.31641694e+07],1035,1323.6571010630437
370,370,[-4.95243596e+03  3.33370438e+02 -4.68092018e-03 -1.31641694e+07],972,1324.6688094332112
371,371,[-4.65350491e+03  3.34371534e+02 -4.37377752e-03 -1.31641694e+07],854,1323.7055387432943
372,372,[-5.14292009e+03  3.33370414e+02 -4.71956457e-03 -1.31641694e+07],556,1325.3553206131132
373,373,[-4.84560181e+03  3.33370414e+02 -4.76480809e-03 -1.31641694e+07],1253,1323.5808580238772
374,374,[-4.76430153e+03  3.33370415e+02 -4.93953670e-03 -1.31641694e+07],1128,1322.1838210465914
375,375,[-4.55339237e+03  3.34371621e+02 -4.21483753e-03 -1.31641694e+07],1004,1323.4707839604998
376,376,[-4.39221954e+03  3.35372670e+02 -3.37995588e-03 -1.31641694e+07],475,1324.8995003260886
377,377,[-5.40987233e+03  3.33370526e+02 -4.55729554e-03 -1.31641694e+07],353,1323.4993923876414
378,378,[-5.53160416e+03  3.33370608e+02 -4.49429879e-03 -1.31641694e+07],411,1322.977734430125
379,379,[-3.86692575e+03  3.36374038e+02 -3.93058214e-03 -1.31641694e+07],418,1323.7080266225125
380,380,[-5.15356892e+03  3.33370471e+02 -4.64326095e-03 -1.31641694e+07],681,1324.664948794646
381,381,[-4.77591504e+03  3.33370592e+02 -5.21986473e-03 -1.31641694e+07],485,1324.9236754055923
382,382,[-5.91280209e+03  3.31368209e+02 -7.09896258e-03 -1.31641694e+07],266,1324.4943327156454
383,383,[-5.20577782e+03  3.33370430e+02 -4.55371014e-03 -1.31641694e+07],1242,1323.2587076841746
384,384,[-3.97296481e+03  3.35372685e+02 -4.04471721e-03 -1.31641694e+07],157,1323.4919378244365
385,385,[-3.93430626e+03  3.35372763e+02 -3.97739945e-03 -1.31641694e+07],203,1323.5082373198015
386,386,[-4.44105763e+03  3.34371525e+02 -4.28146011e-03 -1.31641694e+07],995,1320.4003270374596
387,387,[-3.94772690e+03  3.35372816e+02 -3.75187625e-03 -1.31641694e+07],738,1322.627907020968
388,388,[-3.66412712e+03  3.37375029e+02 -3.74175334e-03 -1.31641694e+07],1079,1321.6372495998387
389,389,[-3.62332245e+03  3.37375014e+02 -3.83468843e-03 -1.31641694e+07],573,1321.2073835142419
390,390,[-5.92264923e+03  3.32369346e+02 -5.75872538e-03 -1.31641694e+07],125,1321.1938476152102
391,391,[-5.07803504e+03  3.33370510e+02 -4.72940648e-03 -1.31641694e+07],1188,1319.5850937709856
392,392,[-5.19031569e+03  3.33370509e+02 -4.60452928e-03 -1.31641694e+07],1132,1322.9683512338713
393,393,[-4.65342253e+03  3.34371715e+02 -4.44378795e-03 -1.31641694e+07],1180,1323.4292453461144
394,394,[-4.95885362e+03  3.33370513e+02 -4.67097069e-03 -1.31641694e+07],1053,1324.6492826490655
395,395,[-4.86215084e+03  3.33370415e+02 -4.79633914e-03 -1.31641694e+07],644,1322.4707651937276
396,396,[-5.78073826e+03  3.33370434e+02 -4.49555832e-03 -1.31641694e+07],1077,1323.5492861339885
397,397,[-4.63891806e+03  3.34371642e+02 -4.33743943e-03 -1.31641694e+07],1003,1322.832496658171
398,398,[-3.81039102e+03  3.36373894e+02 -4.08701371e-03 -1.31641694e+07],580,1325.2745361597995
399,399,[-6.05172199e+03  3.32369396e+02 -5.38239521e-03 -1.31641694e+07],424,1323.8832387760501
400,400,[-5.13788222e+03  3.33370430e+02 -4.65676710e-03 -1.31641694e+07],403,1322.9631827625813
401,401,[-3.98755775e+03  3.35372705e+02 -4.02423918e-03 -1.31641694e+07],646,1323.0649900602725
402,402,[-4.89994565e+03  3.33370495e+02 -4.67232952e-03 -1.31641694e+07],852,1325.1588065692492
403,403,[-4.74088592e+03  3.33370463e+02 -5.18931529e-03 -1.31641694e+07],549,1324.131158039135
404,404,[-5.09977675e+03  3.33370517e+02 -4.72419986e-03 -1.31641694e+07],145,1322.7012343969052
405,405,[-4.80259483e+03  3.33370487e+02 -4.82575820e-03 -1.31641694e+07],1225,1323.7564955085609
406,406,[-3.97035130e+03  3.35372749e+02 -4.05434732e-03 -1.31641694e+07],609,1324.6700293864988
407,407,[-5.14861305e+03  3.32369355e+02 -4.93134737e-03 -1.31641694e+07],653,1324.9251135646655
408,408,[-5.36652090e+03  3.33370441e+02 -4.55476195e-03 -1.31641694e+07],1271,1322.5168807673333
409,409,[-4.70750474e+03  3.33370571e+02 -5.40290856e-03 -1.31641694e+07],565,1320.7761637693611
410,410,[-4.19093711e+03  3.35372638e+02 -3.55320777e-03 -1.31641694e+07],780,1322.410833680527
411,411,[-5.29846540e+03  3.33370416e+02 -4.47800044e-03 -1.31641694e+07],737,1324.1879688329739
412,412,[-4.81876576e+03  3.33370549e+02 -4.72793670e-03 -1.31641694e+07],642,1325.288676703612
413,413,[-5.15813894e+03  3.33370530e+02 -4.65446756e-03 -1.31641694e+07],1286,1322.7451731956692
414,414,[-4.84393709e+03  3.33370704e+02 -4.69702972e-03 -1.31641694e+07],133,1323.9409634251103
415,415,[-3.71414895e+03  3.36373798e+02 -3.18498030e-03 -1.31641694e+07],225,1323.0088290411818
416,416,[-3.80103051e+03  3.36373836e+02 -4.09839447e-03 -1.31641694e+07],446,1325.195023932257
417,417,[-5.15873165e+03  3.33370523e+02 -4.63240952e-03 -1.31641694e+07],595,1323.8101485878117
418,418,[-5.17143789e+03  3.32369384e+02 -5.59869868e-03 -1.31641694e+07],983,1324.1864164786166
419,419,[-3.86724310e+03  3.36374064e+02 -3.94512907e-03 -1.31641694e+07],1212,1323.9789039027069
420,420,[-6.13913208e+03  3.32369301e+02 -5.58231723e-03 -1.31641694e+07],874,1324.5318251751778
421,421,[-3.94961729e+03  3.35372968e+02 -3.77862714e-03 -1.31641694e+07],917,1320.703629864271
422,422,[-4.72056402e+03  3.33370599e+02 -5.20696220e-03 -1.31641694e+07],888,1319.7791763196176
423,423,[-5.49437039e+03  3.32369478e+02 -5.23221352e-03 -1.31641694e+07],832,1323.5968092785808
424,424,[-5.27991454e+03  3.33370435e+02 -4.50022126e-03 -1.31641694e+07],1170,1324.141904029247
425,425,[-5.99401484e+03  3.32369673e+02 -5.69325424e-03 -1.31641694e+07],736,1324.694271399041
426,426,[-5.25166846e+03  3.33370449e+02 -4.63274135e-03 -1.31641694e+07],720,1324.4097340305975
427,427,[-4.40340365e+03  3.35372767e+02 -3.34197743e-03 -1.31641694e+07],1254,1324.695957880572
428,428,[-4.01168512e+03  3.35372653e+02 -4.09171632e-03 -1.31641694e+07],1261,1325.1304715003587
429,429,[-5.18863150e+03  3.33370471e+02 -4.61899880e-03 -1.31641694e+07],1005,1323.6733987252567
430,430,[-6.12077649e+03  3.32369303e+02 -5.35181903e-03 -1.31641694e+07],620,1318.2800095792848
431,431,[-5.20802347e+03  3.33370497e+02 -4.57285802e-03 -1.31641694e+07],279,1323.0153534929236
432,432,[-5.21115020e+03  3.32369417e+02 -5.39751638e-03 -1.31641694e+07],1118,1324.3965855028334
433,433,[-4.27313091e+03  3.35372775e+02 -3.45420229e-03 -1.31641694e+07],222,1323.2867552252196
434,434,[-5.74677409e+03  3.33370426e+02 -4.52691205e-03 -1.31641694e+07],253,1322.7562039226655
435,435,[-6.01677825e+03  3.32369341e+02 -5.67007078e-03 -1.31641694e+07],519,1322.8630989529593
436,436,[-4.02464492e+03  3.35372781e+02 -3.98118583e-03 -1.31641694e+07],1042,1323.4803375552178
437,437,[-3.98580933e+03  3.35372699e+02 -4.00827607e-03 -1.31641694e+07],1054,1324.5062107921544
438,438,[-5.20347815e+03  3.32369515e+02 -5.59077014e-03 -1.31641694e+07],267,1323.0002485697707
439,439,[-4.82415650e+03  3.33370521e+02 -4.74223615e-03 -1.31641694e+07],263,1323.8692435025757
440,440,[-5.27392676e+03  3.33370479e+02 -4.50335649e-03 -1.31641694e+07],457,1324.870835973542
441,441,[-3.82636367e+03  3.36374197e+02 -4.00633400e-03 -1.31641694e+07],783,1324.4831819599933
442,442,[-4.51086406e+03  3.34371770e+02 -4.18305780e-03 -1.31641694e+07],1258,1321.9529219300764
443,443,[-4.91308586e+03  3.33370538e+02 -4.72014176e-03 -1.31641694e+07],1111,1322.1702466238846
444,444,[-5.19163947e+03  3.32369351e+02 -5.05366263e-03 -1.31641694e+07],652,1320.945437616145
445,445,[-3.86003762e+03  3.36373832e+02 -3.95195314e-03 -1.31641694e+07],663,1323.212336377226
446,446,[-3.93993569e+03  3.35372788e+02 -4.12320974e-03 -1.31641694e+07],348,1324.0976967151778
447,447,[-5.07689185e+03  3.33370469e+02 -4.68975207e-03 -1.31641694e+07],283,1322.5924785760874
448,448,[-4.63080564e+03  3.33370457e+02 -5.04483595e-03 -1.31641694e+07],551,1324.234715603036
449,449,[-4.44346643e+03  3.34371542e+02 -4.11859858e-03 -1.31641694e+07],1129,1321.2615947252032
450,450,[-3.63200067e+03  3.36373868e+02 -3.29513741e-03 -1.31641694e+07],1250,1324.5026994539203
451,451,[-3.88816397e+03  3.35372678e+02 -3.89864224e-03 -1.31641694e+07],208,1321.7153990989336
452,452,[-5.10074196e+03  3.33370521e+02 -4.73632690e-03 -1.31641694e+07],853,1319.898288399667
453,453,[-4.55412803e+03  3.34371702e+02 -4.41900720e-03 -1.31641694e+07],158,1321.226896563984
454,454,[-5.47971465e+03  3.33370466e+02 -5.48391047e-03 -1.31641694e+07],819,1323.8625696175422
455,455,[-5.23373703e+03  3.32369388e+02 -5.20454790e-03 -1.31641694e+07],419,1324.7527408271737
456,456,[-4.69345702e+03  3.33370478e+02 -5.20222959e-03 -1.31641694e+07],1320,1321.8577022803602
457,457,[-5.13993743e+03  3.33370431e+02 -4.60756865e-03 -1.31641694e+07],924,1324.0313414124582
458,458,[-4.62323574e+03  3.33370489e+02 -4.62571279e-03 -1.31641694e+07],251,1325.0155079587494
459,459,[-5.23947045e+03  3.33370706e+02 -4.50925381e-03 -1.31641694e+07],848,1323.1954707088007
460,460,[-4.88449405e+03  3.33370472e+02 -4.78186722e-03 -1.31641694e+07],894,1320.3304865736536
461,461,[-4.35070909e+03  3.34371619e+02 -4.26869190e-03 -1.31641694e+07],845,1320.8596070749509
462,462,[-3.68540090e+03  3.36373861e+02 -3.22150557e-03 -1.31641694e+07],275,1325.0386847245165
463,463,[-5.41516211e+03  3.32369411e+02 -5.27418829e-03 -1.31641694e+07],1317,1325.5459556620763
464,464,[-5.16617738e+03  3.33370513e+02 -4.66769737e-03 -1.31641694e+07],1014,1324.6709657406407
465,465,[-3.20787788e+03  3.38376036e+02 -2.98414034e-03 -1.31641694e+07],345,1322.469064855878
466,466,[-6.56440215e+03  3.32369414e+02 -5.17648670e-03 -1.31641694e+07],257,1313.8893875283436
467,467,[-5.27556497e+03  3.33370424e+02 -4.44849703e-03 -1.31641694e+07],334,1320.2688009725928
468,468,[-3.90920549e+03  3.35372669e+02 -4.08485475e-03 -1.31641694e+07],414,1319.1504963022692
469,469,[-5.65594806e+03  3.32369403e+02 -5.18828429e-03 -1.31641694e+07],1061,1316.924629981369
470,470,[-3.92333912e+03  3.35372819e+02 -3.95804990e-03 -1.31641694e+07],91,1318.976395491426
471,471,[-4.62250683e+03  3.34371632e+02 -4.37328711e-03 -1.31641694e+07],1012,1321.9706179237483
472,472,[-4.76998990e+03  3.33370492e+02 -5.08435202e-03 -1.31641694e+07],1234,1325.7803708078784
473,473,[-5.19052183e+03  3.33370522e+02 -4.63936920e-03 -1.31641694e+07],817,1324.5845871981505
474,474,[-5.35537679e+03  3.33370449e+02 -4.50642786e-03 -1.31641694e+07],1169,1323.3077712902511
475,475,[-4.70937720e+03  3.33370587e+02 -4.95313940e-03 -1.31641694e+07],1165,1324.1909521125385
476,476,[-5.29994278e+03  3.33370474e+02 -5.45647685e-03 -1.31641694e+07],232,1324.4620250252876
477,477,[-5.09918166e+03  3.33370532e+02 -4.67464509e-03 -1.31641694e+07],1126,1323.1604847104893
478,478,[-4.85934352e+03  3.33370531e+02 -4.77011522e-03 -1.31641694e+07],184,1317.3003891438377
479,479,[-6.02554241e+03  3.32369367e+02 -5.34025247e-03 -1.31641694e+07],579,1318.967747814358
480,480,[-3.97206801e+03  3.35373281e+02 -3.92743573e-03 -1.31641694e+07],399,1322.8620517474894
481,481,[-3.98902451e+03  3.35373030e+02 -4.13664555e-03 -1.31641694e+07],748,1325.3558139997986
482,482,[-4.88400057e+03  3.33370476e+02 -4.69474662e-03 -1.31641694e+07],525,1324.2731688925185
483,483,[-5.16914347e+03  3.33370503e+02 -4.65477004e-03 -1.31641694e+07],1148,1321.0846446372036
484,484,[-3.97801110e+03  3.35372687e+02 -4.00059977e-03 -1.31641694e+07],1007,1322.9109849505314
485,485,[-4.48646121e+03  3.34371694e+02 -4.23537540e-03 -1.31641694e+07],532,1324.1847722443667
486,486,[-5.12215162e+03  3.32369388e+02 -5.53626992e-03 -1.31641694e+07],514,1324.4975317105818
487,487,[-6.59657922e+03  3.31368200e+02 -6.50054026e-03 -1.31641694e+07],439,1322.1397181384186
488,488,[-5.74633203e+03  3.33370459e+02 -4.50074382e-03 -1.31641694e+07],151,1321.142232530233
489,489,[-3.69731694e+03  3.36374023e+02 -3.19894101e-03 -1.31641694e+07],1093,1324.5379104204862
490,490,[-5.08974630e+03  3.33370514e+02 -4.70948132e-03 -1.31641694e+07],226,1324.7729899179499
491,491,[-5.79087255e+03  3.32369339e+02 -5.14887233e-03 -1.31641694e+07],1080,1322.6572170778884
492,492,[-5.43187776e+03  3.33370481e+02 -4.50536377e-03 -1.31641694e+07],903,1320.9719214403813
493,493,[-3.67816206e+03  3.37375076e+02 -3.73614817e-03 -1.31641694e+07],1154,1321.0070941714494
494,494,[-3.82238795e+03  3.36374036e+02 -4.03488563e-03 -1.31641694e+07],454,1325.0285558163132
495,495,[-5.18213632e+03  3.33370431e+02 -4.54448622e-03 -1.31641694e+07],968,1323.1927338293958
496,496,[-4.76970948e+03  3.33370722e+02 -5.25848296e-03 -1.31641694e+07],584,1319.816951862675
497,497,[-4.81673273e+03  3.33370560e+02 -4.66526152e-03 -1.31641694e+07],912,1324.5932113296444
498,498,[-4.03607240e+03  3.35372897e+02 -4.15763740e-03 -1.31641694e+07],761,1323.7413519734428
499,499,[-3.81904636e+03  3.36373920e+02 -4.00797742e-03 -1.31641694e+07],991,1324.8007051995705
500,500,[-5.37339684e+03  3.32369324e+02 -5.30463894e-03 -1.31641694e+07],177,1320.9316962317002
501,501,[-5.76662172e+03  3.33370430e+02 -4.49143058e-03 -1.31641694e+07],230,1319.224572091754
502,502,[-5.40911266e+03  3.32369355e+02 -5.20960561e-03 -1.31641694e+07],855,1321.996137537112
503,503,[-3.95274405e+03  3.35372655e+02 -3.89376170e-03 -1.31641694e+07],952,1325.0191896487606
504,504,[-5.13441903e+03  3.32369392e+02 -5.56229468e-03 -1.31641694e+07],1119,1321.8130470922356
505,505,[-4.87752530e+03  3.33370441e+02 -4.71744153e-03 -1.31641694e+07],1318,1318.1365709460713
506,506,[-4.06943580e+03  3.35372797e+02 -4.18600226e-03 -1.31641694e+07],623,1319.1227424805559
507,507,[-4.01286429e+03  3.35372687e+02 -4.19861355e-03 -1.31641694e+07],1281,1322.4102821281815
508,508,[-5.79412462e+03  3.32369419e+02 -5.49501944e-03 -1.31641694e+07],900,1321.5112996535884
509,509,[-4.79650341e+03  3.33370416e+02 -4.75731991e-03 -1.31641694e+07],890,1324.9932228420794
510,510,[-4.46985173e+03  3.34371550e+02 -4.12647321e-03 -1.31641694e+07],1013,1322.4406503343462
511,511,[-4.68716320e+03  3.33370482e+02 -4.93953429e-03 -1.31641694e+07],170,1325.3458142962704
512,512,[-4.42525111e+03  3.34371854e+02 -4.27009935e-03 -1.31641694e+07],254,1321.755798938667
513,513,[-5.08960085e+03  3.32369613e+02 -5.67932882e-03 -1.31641694e+07],1304,1321.289834899278
514,514,[-3.86563574e+03  3.36373781e+02 -3.95846358e-03 -1.31641694e+07],1172,1323.8704270484336
515,515,[-4.22188948e+03  3.35372732e+02 -3.46086606e-03 -1.31641694e+07],608,1324.5019585642392
516,516,[-5.79915780e+03  3.32369303e+02 -5.10515245e-03 -1.31641694e+07],1094,1321.976293164776
517,517,[-5.35825705e+03  3.33370515e+02 -4.47965171e-03 -1.31641694e+07],417,1323.3263189007846
518,518,[-5.42091855e+03  3.32369332e+02 -5.27238750e-03 -1.31641694e+07],144,1324.8999739262918
519,519,[-5.26996241e+03  3.33370452e+02 -4.56001103e-03 -1.31641694e+07],839,1324.0542359279007
520,520,[-5.61028154e+03  3.33370448e+02 -4.50755620e-03 -1.31641694e+07],594,1321.545730129607
521,521,[-5.32445400e+03  3.32369395e+02 -5.25635241e-03 -1.31641694e+07],617,1321.6517366455334
522,522,[-4.00942321e+03  3.35372857e+02 -4.03684906e-03 -1.31641694e+07],358,1323.043541574184
523,523,[-3.66263177e+03  3.36373817e+02 -3.23648750e-03 -1.31641694e+07],261,1325.0602118931913
524,524,[-5.90117499e+03  3.31368259e+02 -6.98248262e-03 -1.31641694e+07],1179,1322.7565142681708
525,525,[-5.38910070e+03  3.33370429e+02 -4.50466232e-03 -1.31641694e+07],99,1323.8770878519585
526,526,[-4.89619432e+03  3.33370698e+02 -4.65639460e-03 -1.31641694e+07],730,1323.7155725306975
527,527,[-5.15530519e+03  3.32369397e+02 -5.41928424e-03 -1.31641694e+07],290,1323.2276010492876
528,528,[-3.80379760e+03  3.36374047e+02 -4.07200970e-03 -1.31641694e+07],1285,1322.6398975013471
529,529,[-5.13837646e+03  3.32369311e+02 -5.48341987e-03 -1.31641694e+07],1217,1323.2976552271296
530,530,[-5.82953431e+03  3.32369466e+02 -5.33172265e-03 -1.31641694e+07],616,1319.2376338934598
531,531,[-5.07123621e+03  3.32369356e+02 -5.39026374e-03 -1.31641694e+07],1295,1322.5336798093242
532,532,[-4.77704149e+03  3.33370529e+02 -4.59561342e-03 -1.31641694e+07],1116,1323.8726830488426
533,533,[-3.88331418e+03  3.35372737e+02 -3.95613155e-03 -1.31641694e+07],840,1323.285772564454
534,534,[-5.12421627e+03  3.32369327e+02 -5.62062511e-03 -1.31641694e+07],1134,1322.7999651215744
535,535,[-5.14154941e+03  3.32369564e+02 -5.48633531e-03 -1.31641694e+07],548,1324.654487073326
536,536,[-4.28177932e+03  3.34371624e+02 -4.36320905e-03 -1.31641694e+07],405,1324.5659247733115
537,537,[-3.92042682e+03  3.35372789e+02 -3.99993917e-03 -1.31641694e+07],1252,1322.9719680627172
538,538,[-4.84737143e+03  3.33370527e+02 -4.74397187e-03 -1.31641694e+07],1155,1319.4873026560617
539,539,[-4.67808051e+03  3.33370518e+02 -5.01292156e-03 -1.31641694e+07],107,1323.1115611925586
540,540,[-4.60801208e+03  3.34371658e+02 -4.34020876e-03 -1.31641694e+07],302,1321.019430857971
541,541,[-4.81652592e+03  3.33370506e+02 -4.91072317e-03 -1.31641694e+07],847,1321.1643497776447
542,542,[-5.07648570e+03  3.33370527e+02 -4.69876332e-03 -1.31641694e+07],81,1321.614981022489
543,543,[-4.34986055e+03  3.34371735e+02 -4.29818272e-03 -1.31641694e+07],498,1319.7620487536205
544,544,[-4.61524603e+03  3.33370494e+02 -4.62037302e-03 -1.31641694e+07],815,1322.470449102132
545,545,[-5.04674421e+03  3.32369388e+02 -5.46888326e-03 -1.31641694e+07],1324,1325.0000509060433
546,546,[-4.77965062e+03  3.33370492e+02 -4.71477009e-03 -1.31641694e+07],1219,1321.9883156677436
547,547,[-4.83715971e+03  3.33370459e+02 -4.73616751e-03 -1.31641694e+07],1083,1319.7620552946537
548,548,[-4.54358819e+03  3.34371543e+02 -4.37293155e-03 -1.31641694e+07],66,1323.756978748433
549,549,[-5.26330998e+03  3.33370552e+02 -5.51686585e-03 -1.31641694e+07],526,1324.125588758938
550,550,[-3.95333068e+03  3.35373177e+02 -4.16251759e-03 -1.31641694e+07],600,1325.4048354839265
551,551,[-5.06460079e+03  3.33370441e+02 -4.71312724e-03 -1.31641694e+07],379,1324.0131363224223
552,552,[-3.93880306e+03  3.35372706e+02 -3.61580913e-03 -1.31641694e+07],371,1323.5731961411598
553,553,[-4.56925516e+03  3.34371684e+02 -4.41043575e-03 -1.31641694e+07],244,1324.4740622508193
554,554,[-3.92373777e+03  3.35372757e+02 -3.69572808e-03 -1.31641694e+07],824,1325.1046945067153
555,555,[-4.71416255e+03  3.33370665e+02 -5.39916126e-03 -1.31641694e+07],1097,1323.6377233963333
556,556,[-5.09156620e+03  3.32369460e+02 -5.54619654e-03 -1.31641694e+07],630,1324.194650343952
557,557,[-4.48161729e+03  3.34371608e+02 -4.44312223e-03 -1.31641694e+07],885,1324.9767870728153
558,558,[-5.09582439e+03  3.33370428e+02 -4.69828891e-03 -1.31641694e+07],561,1322.7596350672407
559,559,[-5.00766513e+03  3.33370455e+02 -4.72730535e-03 -1.31641694e+07],429,1320.872425983666
560,560,[-4.78989496e+03  3.33370669e+02 -4.59266328e-03 -1.31641694e+07],1226,1324.226830922378
561,561,[-3.83482185e+03  3.36373753e+02 -3.94948063e-03 -1.31641694e+07],927,1323.6871675149994
562,562,[-3.94886919e+03  3.35372991e+02 -4.22285978e-03 -1.31641694e+07],355,1324.4037070024165
563,563,[-4.38370636e+03  3.34371947e+02 -4.27855301e-03 -1.31641694e+07],1175,1324.2211042217866
564,564,[-4.69432031e+03  3.33370788e+02 -5.23551460e-03 -1.31641694e+07],369,1324.4694525742582
565,565,[-4.58797237e+03  3.34371761e+02 -4.36238768e-03 -1.31641694e+07],129,1324.1115644290535
566,566,[-3.83660986e+03  3.36373938e+02 -3.94599677e-03 -1.31641694e+07],337,1325.1766585036098
567,567,[-5.12899176e+03  3.32369337e+02 -5.54735364e-03 -1.31641694e+07],604,1325.9545866399433
568,568,[-5.47825689e+03  3.33370457e+02 -4.43752994e-03 -1.31641694e+07],1183,1324.8964357263192
569,569,[-4.23449293e+03  3.35372660e+02 -3.39104179e-03 -1.31641694e+07],798,1324.71683036716
570,570,[-3.83247189e+03  3.36373973e+02 -4.00762883e-03 -1.31641694e+07],555,1324.7319671889381
571,571,[-4.78627036e+03  3.33370734e+02 -4.70372899e-03 -1.31641694e+07],1287,1325.0372098571154
572,572,[-5.04317331e+03  3.33370499e+02 -4.75272400e-03 -1.31641694e+07],1089,1323.0555839283577
573,573,[-6.00258679e+03  3.32369372e+02 -5.60688734e-03 -1.31641694e+07],867,1324.1578841418916
574,574,[-3.87165932e+03  3.36373794e+02 -3.92037082e-03 -1.31641694e+07],679,1324.6471507246135
575,575,[-5.37241065e+03  3.32369337e+02 -5.31191120e-03 -1.31641694e+07],1020,1325.112600074185
576,576,[-3.85762148e+03  3.35373079e+02 -3.97430182e-03 -1.31641694e+07],237,1323.4746821957522
577,577,[-5.12552556e+03  3.32369484e+02 -5.49102510e-03 -1.31641694e+07],141,1324.6402886381597
578,578,[-5.08350921e+03  3.33370499e+02 -4.60753708e-03 -1.31641694e+07],895,1323.4780170190013
579,579,[-4.21107648e+03  3.35372732e+02 -3.44380681e-03 -1.31641694e+07],1195,1323.8845204296078
580,580,[-5.28378608e+03  3.32369395e+02 -5.27564302e-03 -1.31641694e+07],1243,1324.1423387547188
581,581,[-5.06921426e+03  3.33370425e+02 -4.62212150e-03 -1.31641694e+07],423,1324.4293315873024
582,582,[-5.18156512e+03  3.33370450e+02 -4.50116658e-03 -1.31641694e+07],1257,1322.7305641372955
583,583,[-4.01284746e+03  3.35372802e+02 -4.04517974e-03 -1.31641694e+07],315,1322.9474475435054
584,584,[-5.08588332e+03  3.32369353e+02 -5.51398403e-03 -1.31641694e+07],373,1323.8600630414
585,585,[-5.88673635e+03  3.32369341e+02 -5.65344325e-03 -1.31641694e+07],975,1323.2388837852793
586,586,[-5.83238755e+03  3.31368361e+02 -7.01188117e-03 -1.31641694e+07],1108,1324.2988361583193
587,587,[-4.56860931e+03  3.34371539e+02 -4.33835522e-03 -1.31641694e+07],47,1322.5695226082673
588,588,[-5.30713317e+03  3.32369317e+02 -5.16531697e-03 -1.31641694e+07],552,1322.3420433710853
589,589,[-4.70019781e+03  3.33370433e+02 -5.14840777e-03 -1.31641694e+07],1085,1323.1933614503498
590,590,[-3.91412447e+03  3.35372838e+02 -3.67501613e-03 -1.31641694e+07],328,1322.3477097653101
591,591,[-4.98116068e+03  3.33370507e+02 -4.74684729e-03 -1.31641694e+07],719,1324.2968053624886
592,592,[-4.29086606e+03  3.34371711e+02 -4.30168631e-03 -1.31641694e+07],941,1320.9875211026815
593,593,[-4.79927987e+03  3.33370481e+02 -4.66301799e-03 -1.31641694e+07],147,1321.4511390817415
594,594,[-4.69613136e+03  3.33370619e+02 -5.14625059e-03 -1.31641694e+07],929,1323.7993188996752
595,595,[-5.80350422e+03  3.32369355e+02 -5.39843600e-03 -1.31641694e+07],632,1324.0947354303012
596,596,[-5.03137020e+03  3.33370489e+02 -4.62602106e-03 -1.31641694e+07],868,1324.8321490945257
597,597,[-4.61508521e+03  3.33370463e+02 -4.56684672e-03 -1.31641694e+07],132,1323.2963478645097
598,598,[-4.78273665e+03  3.33370460e+02 -4.93078839e-03 -1.31641694e+07],992,1323.1739181914
599,599,[-5.01274365e+03  3.32369397e+02 -5.43919917e-03 -1.31641694e+07],909,1323.2148528494324
600,600,[-5.28262187e+03  3.33370517e+02 -4.49835948e-03 -1.31641694e+07],396,1323.7123718605642
601,601,[-5.04625495e+03  3.32369316e+02 -5.46532611e-03 -1.31641694e+07],686,1323.3621569639752
602,602,[-4.51604904e+03  3.34371678e+02 -4.42468559e-03 -1.31641694e+07],683,1322.3420849081444
603,603,[-5.03589009e+03  3.33370461e+02 -4.59311710e-03 -1.31641694e+07],961,1322.8452575808144
604,604,[-5.13356527e+03  3.32369320e+02 -5.14044869e-03 -1.31641694e+07],1052,1323.6502706301064
605,605,[-5.71645253e+03  3.32369322e+02 -5.39727466e-03 -1.31641694e+07],978,1323.29531942396
606,606,[-3.97954014e+03  3.35372871e+02 -4.14453281e-03 -1.31641694e+07],1325,1324.8918025096023
607,607,[-5.01950901e+03  3.32369375e+02 -5.56434325e-03 -1.31641694e+07],732,1324.570446662842
608,608,[-5.15012396e+03  3.32369323e+02 -5.13499243e-03 -1.31641694e+07],843,1323.8117386951262
609,609,[-5.07136031e+03  3.32369414e+02 -5.60106193e-03 -1.31641694e+07],70,1324.121263336039
610,610,[-4.69378284e+03  3.33370440e+02 -4.62585307e-03 -1.31641694e+07],1095,1322.3084547577132
611,611,[-3.80941660e+03  3.36373838e+02 -4.01766774e-03 -1.31641694e+07],1057,1321.0520873444148
612,612,[-5.85336411e+03  3.32369442e+02 -5.62081615e-03 -1.31641694e+07],830,1319.3849255606433
613,613,[-5.72932465e+03  3.32369443e+02 -5.45416104e-03 -1.31641694e+07],1096,1321.8016413376406
614,614,[-5.27927637e+03  3.32369359e+02 -5.28490948e-03 -1.31641694e+07],1329,1324.7019131332847
615,615,[-5.00947421e+03  3.32369482e+02 -5.47571441e-03 -1.31641694e+07],633,1323.4421195221314
616,616,[-5.00466073e+03  3.33370443e+02 -4.63496367e-03 -1.31641694e+07],1202,1323.7772299058192
617,617,[-5.05691611e+03  3.32369322e+02 -5.65703622e-03 -1.31641694e+07],907,1323.798889783751
618,618,[-5.10405095e+03  3.32369317e+02 -5.50128357e-03 -1.31641694e+07],385,1325.3896704396927
619,619,[-3.97795155e+03  3.35373002e+02 -4.31192725e-03 -1.31641694e+07],207,1323.098134602691
620,620,[-4.73175330e+03  3.33370640e+02 -4.70111988e-03 -1.31641694e+07],377,1324.0643640119797
621,621,[-5.61763059e+03  3.32369302e+02 -5.11554274e-03 -1.31641694e+07],1000,1323.2328892736957
622,622,[-5.03081255e+03  3.33370735e+02 -4.62108370e-03 -1.31641694e+07],692,1324.5555988291972
623,623,[-5.05521834e+03  3.33370504e+02 -4.57343145e-03 -1.31641694e+07],384,1323.8345163030142
624,624,[-4.46840776e+03  3.34371634e+02 -4.30700385e-03 -1.31641694e+07],897,1322.2023385225434
625,625,[-5.01268809e+03  3.33370446e+02 -4.60496267e-03 -1.31641694e+07],436,1321.6525084214547
626,626,[-5.04621737e+03  3.32369469e+02 -5.36661273e-03 -1.31641694e+07],859,1323.268728600753
627,627,[-5.75650265e+03  3.31368298e+02 -7.10861172e-03 -1.31641694e+07],831,1321.2293996207234
628,628,[-4.73988922e+03  3.33370457e+02 -4.55818686e-03 -1.31641694e+07],1187,1323.3019474983475
629,629,[-4.68841747e+03  3.33370454e+02 -4.68004876e-03 -1.31641694e+07],578,1324.7106655452624
630,630,[-5.91282072e+03  3.32369301e+02 -5.59447721e-03 -1.31641694e+07],698,1323.6956781447047
631,631,[-5.05130814e+03  3.32369418e+02 -5.35638737e-03 -1.31641694e+07],576,1324.971744422581
632,632,[-5.33894689e+03  3.33370449e+02 -4.44162359e-03 -1.31641694e+07],375,1323.5609058352738
633,633,[-5.09548691e+03  3.33370531e+02 -4.55352827e-03 -1.31641694e+07],674,1323.5122932820402
634,634,[-3.86453642e+03  3.35372763e+02 -4.07825502e-03 -1.31641694e+07],167,1324.8374455050273
635,635,[-5.12346429e+03  3.33370494e+02 -4.64720756e-03 -1.31641694e+07],1189,1323.1845194874952
636,636,[-5.17978136e+03  3.32369322e+02 -5.06239033e-03 -1.31641694e+07],643,1324.6708224342547
637,637,[-4.61285872e+03  3.34371615e+02 -4.39836095e-03 -1.31641694e+07],1050,1322.8393320413231
638,638,[-5.08739586e+03  3.33370471e+02 -4.49384411e-03 -1.31641694e+07],896,1323.339472948235
639,639,[-5.01847238e+03  3.33370425e+02 -4.75160939e-03 -1.31641694e+07],1124,1324.8390518588337
640,640,[-5.07861398e+03  3.33370437e+02 -4.55800590e-03 -1.31641694e+07],993,1325.396129657032
641,641,[-3.84524405e+03  3.36374014e+02 -3.96815114e-03 -1.31641694e+07],284,1324.4630221664518
642,642,[-5.36045571e+03  3.32369444e+02 -5.22279626e-03 -1.31641694e+07],615,1324.108593048401
643,643,[-6.02436249e+03  3.32369367e+02 -5.54266805e-03 -1.31641694e+07],835,1323.4625965707335
644,644,[-5.10020025e+03  3.32369401e+02 -5.57604744e-03 -1.31641694e+07],155,1324.144771343506
645,645,[-5.02513416e+03  3.33370445e+02 -4.68560223e-03 -1.31641694e+07],994,1325.252100866037
646,646,[-5.07561969e+03  3.33370682e+02 -4.55128338e-03 -1.31641694e+07],192,1324.1289114902227
647,647,[-4.71545754e+03  3.33370508e+02 -4.71369383e-03 -1.31641694e+07],393,1325.3108993310925
648,648,[-4.70994947e+03  3.33370779e+02 -5.27231196e-03 -1.31641694e+07],984,1322.9541878870841
649,649,[-4.82474634e+03  3.33370611e+02 -4.90016285e-03 -1.31641694e+07],786,1325.0543550598434
650,650,[-4.80709493e+03  3.33370525e+02 -4.79023879e-03 -1.31641694e+07],1307,1324.5299153265983
651,651,[-5.04919907e+03  3.33370421e+02 -4.60120309e-03 -1.31641694e+07],772,1324.992735199431
652,652,[-5.02778358e+03  3.33370523e+02 -4.65388716e-03 -1.31641694e+07],1019,1324.020826861526
653,653,[-3.90362873e+03  3.35372724e+02 -3.69247098e-03 -1.31641694e+07],262,1324.1211999692996
654,654,[-3.85453737e+03  3.36373777e+02 -3.99522955e-03 -1.31641694e+07],1206,1324.2720941809266
655,655,[-5.00091060e+03  3.33370430e+02 -4.66617167e-03 -1.31641694e+07],1251,1324.9711592872056
656,656,[-5.28978928e+03  3.32369303e+02 -5.43249313e-03 -1.31641694e+07],708,1325.2995835079744
657,657,[-5.08417731e+03  3.32369348e+02 -5.30256872e-03 -1.31641694e+07],914,1324.9641039641776
658,658,[-5.10495928e+03  3.33370431e+02 -4.51742476e-03 -1.31641694e+07],809,1325.2397399686286
659,659,[-4.57034436e+03  3.34371552e+02 -4.41362354e-03 -1.31641694e+07],1151,1324.7359734565698
660,660,[-5.80806518e+03  3.32369448e+02 -5.33825624e-03 -1.31641694e+07],176,1324.2807414893566
661,661,[-5.08343148e+03  3.32369366e+02 -5.62126028e-03 -1.31641694e+07],725,1323.112511325948
662,662,[-3.91811354e+03  3.35372774e+02 -3.66843571e-03 -1.31641694e+07],120,1323.0058815140283
663,663,[-3.95608589e+03  3.35372754e+02 -4.07177451e-03 -1.31641694e+07],784,1324.020327173978
664,664,[-5.06855829e+03  3.32369570e+02 -5.44414717e-03 -1.31641694e+07],1063,1325.4388861990599
665,665,[-5.09920887e+03  3.32369314e+02 -5.42458489e-03 -1.31641694e+07],601,1325.8379234638148
666,666,[-4.70827546e+03  3.33370905e+02 -5.18892508e-03 -1.31641694e+07],201,1324.7719232227782
667,667,[-5.10468269e+03  3.32369331e+02 -5.47972751e-03 -1.31641694e+07],1290,1324.9881757751157
668,668,[-4.80984567e+03  3.34371640e+02 -4.43778362e-03 -1.31641694e+07],140,1322.9149794927544
669,669,[-5.12422556e+03  3.32369301e+02 -5.48672360e-03 -1.31641694e+07],931,1322.8931850880815
670,670,[-5.83496630e+03  3.32369312e+02 -5.29926749e-03 -1.31641694e+07],797,1316.9303594490611
671,671,[-5.32144942e+03  3.33370508e+02 -4.35960768e-03 -1.31641694e+07],638,1314.0882676850788
672,672,[-5.39768676e+03  3.32369307e+02 -5.28483641e-03 -1.31641694e+07],126,1318.3950951807676
673,673,[-3.82290534e+03  3.36374008e+02 -3.98649704e-03 -1.31641694e+07],299,1321.1405474113255
674,674,[-5.01263955e+03  3.32369303e+02 -5.52128859e-03 -1.31641694e+07],200,1323.468339710316
675,675,[-4.96495032e+03  3.32369442e+02 -5.43568009e-03 -1.31641694e+07],517,1321.8672186755061
676,676,[-5.84227082e+03  3.32369312e+02 -5.61323322e-03 -1.31641694e+07],183,1323.230757698441
677,677,[-4.46720322e+03  3.34371539e+02 -4.18873875e-03 -1.31641694e+07],1303,1321.281904310605
678,678,[-4.77768257e+03  3.33370434e+02 -4.85275271e-03 -1.31641694e+07],1274,1322.5699808387565
679,679,[-5.02734636e+03  3.33370496e+02 -4.67844723e-03 -1.31641694e+07],352,1323.6245483958724
680,680,[-5.65351483e+03  3.32369406e+02 -5.33335658e-03 -1.31641694e+07],180,1324.223245687042
681,681,[-5.81532210e+03  3.32369333e+02 -5.29436179e-03 -1.31641694e+07],474,1324.1854258445078
682,682,[-4.60106551e+03  3.33370566e+02 -4.54108268e-03 -1.31641694e+07],1056,1324.4278077147828
683,683,[-5.07174398e+03  3.32369325e+02 -5.54073803e-03 -1.31641694e+07],945,1323.5441749217212
684,684,[-4.98136104e+03  3.33370450e+02 -4.77625729e-03 -1.31641694e+07],628,1320.660872261736
685,685,[-5.08411045e+03  3.32369397e+02 -5.44060211e-03 -1.31641694e+07],529,1323.1077176060348
686,686,[-4.76947283e+03  3.33370524e+02 -4.81604059e-03 -1.31641694e+07],906,1323.5485392919907
687,687,[-4.74615516e+03  3.33370479e+02 -4.61819882e-03 -1.31641694e+07],597,1324.8226035563491
688,688,[-5.16244542e+03  3.33370450e+02 -4.58126096e-03 -1.31641694e+07],605,1322.414070336364
689,689,[-5.09375312e+03  3.32369373e+02 -5.32965080e-03 -1.31641694e+07],1120,1324.610147394437
690,690,[-4.03563655e+03  3.35372736e+02 -4.24193715e-03 -1.31641694e+07],324,1324.415362936902
691,691,[-4.59314471e+03  3.33370490e+02 -4.62298275e-03 -1.31641694e+07],239,1324.968570017535
692,692,[-5.03850220e+03  3.33370429e+02 -4.68267679e-03 -1.31641694e+07],313,1323.492660037162
693,693,[-5.60449035e+03  3.32369319e+02 -5.32739705e-03 -1.31641694e+07],762,1321.1906999055457
694,694,[-3.86615372e+03  3.36374111e+02 -3.93891140e-03 -1.31641694e+07],822,1322.2844399429853
695,695,[-3.98284112e+03  3.35373009e+02 -4.31975179e-03 -1.31641694e+07],433,1325.3494585822525
696,696,[-5.08830376e+03  3.32369349e+02 -5.52876145e-03 -1.31641694e+07],533,1322.6013804368235
697,697,[-5.02917858e+03  3.33370414e+02 -4.67281052e-03 -1.31641694e+07],1224,1323.0702851860617
698,698,[-5.06732216e+03  3.32369339e+02 -5.34902914e-03 -1.31641694e+07],889,1323.477257503646
699,699,[-4.56725722e+03  3.33370692e+02 -4.59678520e-03 -1.31641694e+07],706,1324.9293516847613
700,700,[-5.06697577e+03  3.32369310e+02 -5.31554496e-03 -1.31641694e+07],92,1322.5024024046095
701,701,[-5.89166590e+03  3.32369453e+02 -5.58712737e-03 -1.31641694e+07],343,1320.903744148395
702,702,[-4.58232520e+03  3.34371525e+02 -4.35039862e-03 -1.31641694e+07],227,1321.8872665555841
703,703,[-5.23295282e+03  3.33370570e+02 -5.49489416e-03 -1.31641694e+07],875,1324.2880877247271
704,704,[-4.98070148e+03  3.33370516e+02 -4.72147653e-03 -1.31641694e+07],626,1325.4601482703638
705,705,[-3.93691753e+03  3.35372947e+02 -4.31191028e-03 -1.31641694e+07],258,1324.9815195916972
706,706,[-4.29562302e+03  3.34371614e+02 -4.31177424e-03 -1.31641694e+07],828,1323.282482277672
707,707,[-4.34108823e+03  3.34371593e+02 -4.10361632e-03 -1.31641694e+07],188,1321.9593134584889
708,708,[-5.22598440e+03  3.32369321e+02 -5.26200531e-03 -1.31641694e+07],383,1323.3957192903165
709,709,[-5.70727877e+03  3.32369432e+02 -5.40569295e-03 -1.31641694e+07],1326,1324.2309164765395
710,710,[-4.46478633e+03  3.34371568e+02 -4.42917535e-03 -1.31641694e+07],341,1324.6910307438347
711,711,[-3.94411163e+03  3.35372731e+02 -4.10380875e-03 -1.31641694e+07],1216,1324.8309714499408
712,712,[-5.01465729e+03  3.33370642e+02 -4.59347512e-03 -1.31641694e+07],1210,1324.990012517431
713,713,[-3.91048319e+03  3.35372953e+02 -4.35115250e-03 -1.31641694e+07],1279,1322.6984237713898
714,714,[-5.02899345e+03  3.33370464e+02 -4.56474352e-03 -1.31641694e+07],585,1322.5010011163397
715,715,[-4.55805549e+03  3.34371566e+02 -4.33358451e-03 -1.31641694e+07],238,1322.3096373647388
716,716,[-5.21117837e+03  3.33370631e+02 -5.57541491e-03 -1.31641694e+07],621,1321.1495745000973
717,717,[-5.76358725e+03  3.32369399e+02 -5.35528140e-03 -1.31641694e+07],676,1321.1320551800911
718,718,[-5.04268227e+03  3.32369367e+02 -5.27776794e-03 -1.31641694e+07],527,1324.993900154573
719,719,[-4.96101325e+03  3.33370716e+02 -4.61406881e-03 -1.31641694e+07],123,1323.5683346820072
720,720,[-4.71297956e+03  3.33370753e+02 -4.87578206e-03 -1.31641694e+07],1137,1324.071434223033
721,721,[-5.01561594e+03  3.32369382e+02 -5.56807787e-03 -1.31641694e+07],1278,1324.5317540156645
722,722,[-4.66186415e+03  3.33370534e+02 -4.70617853e-03 -1.31641694e+07],599,1319.369073725693
723,723,[-4.95175801e+03  3.32369330e+02 -5.35748545e-03 -1.31641694e+07],445,1321.2525404272453
724,724,[-4.55599843e+03  3.33370441e+02 -4.57591548e-03 -1.31641694e+07],746,1322.852068141388
725,725,[-4.96784793e+03  3.32369594e+02 -5.51054790e-03 -1.31641694e+07],1319,1323.372803916012
726,726,[-5.03974262e+03  3.32369393e+02 -5.58288220e-03 -1.31641694e+07],829,1322.8568718519784
727,727,[-3.84869597e+03  3.35372726e+02 -4.16967867e-03 -1.31641694e+07],1040,1324.2164049025166
728,728,[-5.04248567e+03  3.32369312e+02 -5.40216870e-03 -1.31641694e+07],1312,1324.9154963645658
729,729,[-4.97202172e+03  3.32369314e+02 -5.44338004e-03 -1.31641694e+07],1103,1324.6720599141047
730,730,[-5.74860249e+03  3.32369326e+02 -5.34251267e-03 -1.31641694e+07],260,1323.7873631587163
731,731,[-5.66086704e+03  3.32369403e+02 -5.41016457e-03 -1.31641694e+07],459,1318.9494949364698
732,732,[-3.83588319e+03  3.36373896e+02 -4.00633599e-03 -1.31641694e+07],589,1323.5365238521126
733,733,[-4.70869242e+03  3.33370647e+02 -4.83613279e-03 -1.31641694e+07],495,1325.5572156556161
734,734,[-5.06173425e+03  3.32369364e+02 -5.55014952e-03 -1.31641694e+07],635,1325.554990192727
735,735,[-4.64907975e+03  3.33370413e+02 -5.27593567e-03 -1.31641694e+07],94,1324.9491417537117
736,736,[-4.98066133e+03  3.32369442e+02 -5.33534969e-03 -1.31641694e+07],598,1324.0737379975083
737,737,[-4.54754839e+03  3.34371543e+02 -4.56105280e-03 -1.31641694e+07],856,1324.1098419240855
738,738,[-5.14222201e+03  3.33370415e+02 -4.56188789e-03 -1.31641694e+07],172,1324.167716984635
739,739,[-4.98571577e+03  3.33370550e+02 -4.64101524e-03 -1.31641694e+07],477,1324.5387478156536
740,740,[-3.81051092e+03  3.36374185e+02 -4.00723256e-03 -1.31641694e+07],1117,1322.7872608042444
741,741,[-3.93316837e+03  3.35372759e+02 -4.32572725e-03 -1.31641694e+07],1220,1324.9743083673661
742,742,[-4.99997688e+03  3.32369436e+02 -5.38782847e-03 -1.31641694e+07],1298,1324.4567907482744
743,743,[-4.64502037e+03  3.33370495e+02 -4.89356985e-03 -1.31641694e+07],114,1322.2983119475707
744,744,[-5.01853556e+03  3.32369415e+02 -5.42688078e-03 -1.31641694e+07],999,1320.9426263584369
745,745,[-4.67773308e+03  3.33370415e+02 -4.63395829e-03 -1.31641694e+07],1070,1321.517084874869
746,746,[-5.01515549e+03  3.32369305e+02 -5.35429404e-03 -1.31641694e+07],277,1323.2078528595741
747,747,[-4.52703394e+03  3.34371534e+02 -4.45827937e-03 -1.31641694e+07],1123,1324.418498676102
748,748,[-3.83593271e+03  3.36374262e+02 -3.93815901e-03 -1.31641694e+07],273,1323.8775167147755
749,749,[-5.15837360e+03  3.32369304e+02 -5.28512858e-03 -1.31641694e+07],190,1322.4285427657028
750,750,[-4.98546607e+03  3.32369341e+02 -5.01858424e-03 -1.31641694e+07],169,1321.208838943127
751,751,[-5.02795280e+03  3.32369337e+02 -5.36802733e-03 -1.31641694e+07],661,1323.007595037977
752,752,[-4.97868685e+03  3.32369370e+02 -5.27266791e-03 -1.31641694e+07],539,1324.3885526675338
753,753,[-5.00809447e+03  3.32369330e+02 -5.47045461e-03 -1.31641694e+07],685,1324.613285643988
754,754,[-5.94970873e+03  3.32369417e+02 -5.54705727e-03 -1.31641694e+07],619,1324.5930760694725
755,755,[-4.58295972e+03  3.33370511e+02 -4.58607694e-03 -1.31641694e+07],910,1325.1606298312945
756,756,[-5.08677211e+03  3.32369355e+02 -5.41184352e-03 -1.31641694e+07],1043,1324.9949540000894
757,757,[-5.06016501e+03  3.32369357e+02 -5.27159700e-03 -1.31641694e+07],1300,1324.5288011214566
758,758,[-5.05412900e+03  3.32369344e+02 -5.28860535e-03 -1.31641694e+07],280,1318.9085336655255
759,759,[-5.08285468e+03  3.32369451e+02 -5.31094053e-03 -1.31641694e+07],356,1322.4630439325424
760,760,[-5.04295032e+03  3.33370584e+02 -4.58323518e-03 -1.31641694e+07],317,1324.6702426763668
761,761,[-5.10116789e+03  3.32369391e+02 -5.39678203e-03 -1.31641694e+07],996,1323.854468730667
762,762,[-5.16226949e+03  3.33370413e+02 -4.40296045e-03 -1.31641694e+07],865,1323.2883796431481
763,763,[-3.86899841e+03  3.36373997e+02 -3.87919702e-03 -1.31641694e+07],1308,1324.4563698673405
764,764,[-5.05128772e+03  3.32369330e+02 -5.51027449e-03 -1.31641694e+07],281,1325.5006332031628
765,765,[-5.04505239e+03  3.33370430e+02 -4.57086081e-03 -1.31641694e+07],264,1325.152409292827
766,766,[-3.84088348e+03  3.36373845e+02 -3.94461969e-03 -1.31641694e+07],1011,1321.8061543322679
767,767,[-4.74673328e+03  3.33370636e+02 -4.78306325e-03 -1.31641694e+07],1104,1324.3876517620145
768,768,[-4.98044564e+03  3.33370467e+02 -4.70543255e-03 -1.31641694e+07],697,1324.5368353738722
769,769,[-3.92581208e+03  3.35372837e+02 -4.34383259e-03 -1.31641694e+07],401,1321.0270818239344
770,770,[-3.82507071e+03  3.36373764e+02 -4.04420048e-03 -1.31641694e+07],572,1323.0047165896017
771,771,[-4.71564071e+03  3.33370616e+02 -4.85118364e-03 -1.31641694e+07],1313,1325.4540201166074
772,772,[-5.02193422e+03  3.32369428e+02 -5.34417560e-03 -1.31641694e+07],234,1323.4174219463343
773,773,[-3.78975567e+03  3.36373769e+02 -4.10856513e-03 -1.31641694e+07],1245,1322.2456085697374
774,774,[-5.05925750e+03  3.32369330e+02 -5.34950758e-03 -1.31641694e+07],882,1324.374951685721
775,775,[-4.99560926e+03  3.33370446e+02 -4.66195986e-03 -1.31641694e+07],96,1324.7724000446278
776,776,[-5.03248610e+03  3.32369305e+02 -5.26311136e-03 -1.31641694e+07],522,1322.914166613046
777,777,[-3.66298684e+03  3.37375153e+02 -3.72431948e-03 -1.31641694e+07],1098,1321.545712418908
778,778,[-4.53390500e+03  3.34371541e+02 -4.34016067e-03 -1.31641694e+07],1006,1324.2149151283218
779,779,[-5.20285467e+03  3.32369329e+02 -5.25613414e-03 -1.31641694e+07],431,1325.535981622827
780,780,[-4.96029867e+03  3.33370527e+02 -4.73359160e-03 -1.31641694e+07],415,1324.1103648290396
781,781,[-5.24631555e+03  3.32369335e+02 -5.26677202e-03 -1.31641694e+07],751,1321.7773844114918
782,782,[-4.44279631e+03  3.34371552e+02 -4.04142374e-03 -1.31641694e+07],662,1322.5179279791605
783,783,[-4.98139050e+03  3.33370419e+02 -4.54939831e-03 -1.31641694e+07],770,1324.0244438033494
784,784,[-5.57416371e+03  3.32369394e+02 -5.32190338e-03 -1.31641694e+07],438,1323.3623321205737
785,785,[-5.14978600e+03  3.32369324e+02 -5.14968340e-03 -1.31641694e+07],160,1321.8509772015
786,786,[-4.54224034e+03  3.34371653e+02 -4.28030406e-03 -1.31641694e+07],816,1323.4243947259465
787,787,[-5.62289685e+03  3.32369309e+02 -5.29053335e-03 -1.31641694e+07],98,1325.0348077130186
788,788,[-5.03509504e+03  3.32369395e+02 -5.63165192e-03 -1.31641694e+07],1306,1320.0348638959922
789,789,[-3.96414708e+03  3.35372643e+02 -4.16169392e-03 -1.31641694e+07],378,1320.4107325096245
790,790,[-4.54214390e+03  3.33370445e+02 -4.58474786e-03 -1.31641694e+07],537,1325.2028998248786
791,791,[-5.61880291e+03  3.32369306e+02 -5.30863799e-03 -1.31641694e+07],392,1324.698983109224
792,792,[-5.18826867e+03  3.33370418e+02 -4.49917432e-03 -1.31641694e+07],265,1324.7582809516846
793,793,[-4.60923959e+03  3.33370469e+02 -4.64759605e-03 -1.31641694e+07],174,1324.219257193928
794,794,[-5.27124165e+03  3.32369512e+02 -5.28229168e-03 -1.31641694e+07],400,1324.8466909808144
795,795,[-5.72540827e+03  3.32369471e+02 -5.35381713e-03 -1.31641694e+07],908,1321.7770446055774
796,796,[-4.54536562e+03  3.34371547e+02 -4.46440004e-03 -1.31641694e+07],648,1320.3095372711266
797,797,[-4.01680399e+03  3.35372773e+02 -4.30618329e-03 -1.31641694e+07],224,1323.339604900078
798,798,[-5.70170452e+03  3.32369424e+02 -5.19379332e-03 -1.31641694e+07],583,1323.643431997653
799,799,[-5.57041693e+03  3.32369420e+02 -5.36759906e-03 -1.31641694e+07],135,1319.4021120180928
800,800,[-3.84729550e+03  3.36373769e+02 -3.93850133e-03 -1.31641694e+07],171,1320.5357928266837
801,801,[-3.95681409e+03  3.35372764e+02 -4.11700356e-03 -1.31641694e+07],130,1324.7995736826654
802,802,[-5.02683239e+03  3.32369367e+02 -5.31271219e-03 -1.31641694e+07],1044,1324.295249604689
803,803,[-5.03116621e+03  3.32369329e+02 -5.36822992e-03 -1.31641694e+07],128,1324.280293558925
804,804,[-4.40414886e+03  3.34371535e+02 -4.06191820e-03 -1.31641694e+07],268,1324.2805932437534
805,805,[-5.60738690e+03  3.32369326e+02 -5.25181497e-03 -1.31641694e+07],1177,1324.5880750406116
806,806,[-5.60186103e+03  3.32369342e+02 -5.40637321e-03 -1.31641694e+07],113,1322.1490411294312
807,807,[-4.72348545e+03  3.33370468e+02 -4.82128141e-03 -1.31641694e+07],668,1322.888739329515
808,808,[-5.23569997e+03  3.32369321e+02 -5.28883815e-03 -1.31641694e+07],776,1324.5328585522059
809,809,[-5.66651167e+03  3.32369392e+02 -5.24745195e-03 -1.31641694e+07],484,1323.3820041363638
810,810,[-5.04156542e+03  3.32369476e+02 -5.47854566e-03 -1.31641694e+07],182,1324.3472057415443
811,811,[-4.56026241e+03  3.34371563e+02 -4.32679363e-03 -1.31641694e+07],139,1324.3091874965269
812,812,[-3.94491050e+03  3.35372735e+02 -4.24787834e-03 -1.31641694e+07],1001,1324.589157215281
813,813,[-4.96686180e+03  3.32369414e+02 -5.69761067e-03 -1.31641694e+07],669,1319.4222485492562
814,814,[-5.09079176e+03  3.32369394e+02 -5.13645397e-03 -1.31641694e+07],306,1324.209140469642
815,815,[-3.80769662e+03  3.36374184e+02 -4.04463386e-03 -1.31641694e+07],807,1323.738145930523
816,816,[-5.07477101e+03  3.32369313e+02 -5.49304797e-03 -1.31641694e+07],43,1322.984938044591
817,817,[-5.00888538e+03  3.33370429e+02 -4.55472146e-03 -1.31641694e+07],1236,1323.9136767260536
818,818,[-5.01501174e+03  3.32369335e+02 -5.49629075e-03 -1.31641694e+07],1208,1324.8334594511102
819,819,[-3.85064214e+03  3.36373768e+02 -3.92628788e-03 -1.31641694e+07],247,1323.9911340741871
820,820,[-5.03454100e+03  3.32369376e+02 -5.46770232e-03 -1.31641694e+07],898,1322.7313154008766
821,821,[-5.00467586e+03  3.32369544e+02 -5.60883633e-03 -1.31641694e+07],1186,1320.1588702579095
822,822,[-4.46509921e+03  3.34371679e+02 -4.43951673e-03 -1.31641694e+07],435,1323.2868758013533
823,823,[-4.56367386e+03  3.34371550e+02 -4.36241389e-03 -1.31641694e+07],480,1322.6424359419032
824,824,[-3.94725877e+03  3.35373136e+02 -4.14321890e-03 -1.31641694e+07],726,1323.7032602245797
825,825,[-5.49744909e+03  3.32369361e+02 -5.40070693e-03 -1.31641694e+07],165,1322.0045281557786
826,826,[-4.96605804e+03  3.32369373e+02 -5.26462714e-03 -1.31641694e+07],724,1322.296637824059
827,827,[-4.41800452e+03  3.34371526e+02 -4.21882817e-03 -1.31641694e+07],95,1322.3538114470498
828,828,[-4.98248274e+03  3.32369376e+02 -5.49244078e-03 -1.31641694e+07],1263,1323.2626735171548
829,829,[-5.93497926e+03  3.32369343e+02 -5.54299610e-03 -1.31641694e+07],603,1323.2060604299613
830,830,[-5.02531335e+03  3.32369406e+02 -5.53332478e-03 -1.31641694e+07],245,1323.5207993466863
831,831,[-4.94884154e+03  3.32369324e+02 -5.33155262e-03 -1.31641694e+07],637,1323.4789687845605
832,832,[-4.56582571e+03  3.33370695e+02 -4.56399582e-03 -1.31641694e+07],953,1324.075872123396
833,833,[-5.03185651e+03  3.32369443e+02 -5.38107785e-03 -1.31641694e+07],955,1324.8442443913516
834,834,[-4.92713277e+03  3.33370438e+02 -4.69316337e-03 -1.31641694e+07],397,1321.3446192839692
835,835,[-4.99520486e+03  3.32369393e+02 -5.40783046e-03 -1.31641694e+07],915,1323.441489531941
836,836,[-4.60376198e+03  3.33370436e+02 -4.64456886e-03 -1.31641694e+07],148,1324.5077496665454
837,837,[-5.23502902e+03  3.32369347e+02 -5.29172804e-03 -1.31641694e+07],1305,1325.4872680089968
838,838,[-5.65364841e+03  3.32369343e+02 -5.21122976e-03 -1.31641694e+07],1182,1324.2772993709216
839,839,[-4.47965756e+03  3.34371691e+02 -4.39586115e-03 -1.31641694e+07],951,1323.8078723331953
840,840,[-3.85480130e+03  3.36373969e+02 -3.90974495e-03 -1.31641694e+07],1127,1323.7666827164912
841,841,[-4.50113077e+03  3.34371647e+02 -4.39107781e-03 -1.31641694e+07],534,1324.7749497812654
842,842,[-5.00783013e+03  3.32369390e+02 -5.43129854e-03 -1.31641694e+07],740,1324.4998636663806
843,843,[-5.03486145e+03  3.32369341e+02 -5.51539089e-03 -1.31641694e+07],84,1323.5360263475989
844,844,[-4.47344443e+03  3.34371529e+02 -4.18126469e-03 -1.31641694e+07],1065,1321.4769019332514
845,845,[-3.81195480e+03  3.36373757e+02 -4.00346055e-03 -1.31641694e+07],558,1323.9684000973107
846,846,[-5.01097077e+03  3.32369366e+02 -5.60193402e-03 -1.31641694e+07],524,1324.5392044650878
847,847,[-5.56634457e+03  3.32369373e+02 -5.23595690e-03 -1.31641694e+07],1215,1323.7437668511027
848,848,[-4.00785059e+03  3.35373049e+02 -4.31941633e-03 -1.31641694e+07],434,1323.9744489070413
849,849,[-3.91817067e+03  3.35372671e+02 -4.27112255e-03 -1.31641694e+07],1302,1325.5722315391686
850,850,[-5.60531484e+03  3.32369326e+02 -5.24823254e-03 -1.31641694e+07],1107,1324.3938625184908
851,851,[-5.30597242e+03  3.32369344e+02 -5.27640672e-03 -1.31641694e+07],413,1321.2183351506192
852,852,[-5.19998986e+03  3.32369387e+02 -5.18083955e-03 -1.31641694e+07],985,1324.1263822060346
853,853,[-4.91628414e+03  3.32369400e+02 -5.28398254e-03 -1.31641694e+07],881,1323.998597064005
854,854,[-5.23364845e+03  3.32369347e+02 -5.31437101e-03 -1.31641694e+07],1229,1324.1959941690804
855,855,[-5.04007553e+03  3.32369336e+02 -5.53156728e-03 -1.31641694e+07],1207,1323.8467859776663
856,856,[-5.93661378e+03  3.32369378e+02 -5.46931026e-03 -1.31641694e+07],820,1323.1729598568209
857,857,[-4.51716204e+03  3.34371581e+02 -4.37275356e-03 -1.31641694e+07],582,1324.523432441684
858,858,[-4.46008360e+03  3.33370512e+02 -4.70883858e-03 -1.31641694e+07],1150,1324.2446781208034
859,859,[-4.97855231e+03  3.33370564e+02 -4.61719277e-03 -1.31641694e+07],1092,1323.4800367731661
860,860,[-5.00375991e+03  3.32369330e+02 -5.25477654e-03 -1.31641694e+07],77,1324.6743998002335
861,861,[-5.32312413e+03  3.32369365e+02 -5.25756724e-03 -1.31641694e+07],217,1324.8260581280717
862,862,[-5.59388902e+03  3.32369303e+02 -5.22601074e-03 -1.31641694e+07],366,1325.117928408016
863,863,[-4.95297413e+03  3.33370414e+02 -4.62929397e-03 -1.31641694e+07],404,1325.235542158357
864,864,[-5.18558831e+03  3.32369324e+02 -5.16102555e-03 -1.31641694e+07],311,1325.0915631055639
865,865,[-5.40128138e+03  3.33370480e+02 -5.43075982e-03 -1.31641694e+07],109,1323.0805402751112
866,866,[-4.52553970e+03  3.33370451e+02 -4.66176179e-03 -1.31641694e+07],214,1325.050549811513
867,867,[-4.94221217e+03  3.32369360e+02 -4.91370762e-03 -1.31641694e+07],713,1323.629311044141
868,868,[-3.75816660e+03  3.36373835e+02 -4.16162718e-03 -1.31641694e+07],1025,1323.5548543250668
869,869,[-3.62011830e+03  3.37375267e+02 -3.83296998e-03 -1.31641694e+07],233,1325.1295936888444
870,870,[-4.92899922e+03  3.33370609e+02 -4.68773693e-03 -1.31641694e+07],199,1324.268649254856
871,871,[-4.63691545e+03  3.33370507e+02 -5.02046185e-03 -1.31641694e+07],916,1322.271123045252
872,872,[-4.94242019e+03  3.32369324e+02 -5.46450305e-03 -1.31641694e+07],320,1322.560581410112
873,873,[-5.02950435e+03  3.33370533e+02 -4.69304195e-03 -1.31641694e+07],1237,1324.6968138149123
874,874,[-3.78617141e+03  3.36373858e+02 -4.10351304e-03 -1.31641694e+07],1311,1324.086588488937
875,875,[-5.64795018e+03  3.32369410e+02 -5.17747822e-03 -1.31641694e+07],491,1323.270184045371
876,876,[-4.94471467e+03  3.32369356e+02 -5.51753636e-03 -1.31641694e+07],153,1324.7854911072675
877,877,[-4.35053505e+03  3.34371601e+02 -4.10909897e-03 -1.31641694e+07],823,1324.4919490772281
878,878,[-4.70457279e+03  3.33370512e+02 -4.87662466e-03 -1.31641694e+07],528,1325.4802532362173
879,879,[-5.76256978e+03  3.32369391e+02 -5.29311117e-03 -1.31641694e+07],202,1322.2803405868963
880,880,[-5.10016270e+03  3.32369313e+02 -5.26869450e-03 -1.31641694e+07],282,1319.7421204103275
881,881,[-5.25768593e+03  3.32369396e+02 -5.25616994e-03 -1.31641694e+07],387,1322.7392187034723
882,882,[-4.55326944e+03  3.34371544e+02 -4.40254941e-03 -1.31641694e+07],1247,1323.0476827467792
883,883,[-5.23129478e+03  3.33370419e+02 -4.46290950e-03 -1.31641694e+07],1227,1322.558624928556
884,884,[-4.99017043e+03  3.33370424e+02 -4.62333716e-03 -1.31641694e+07],1273,1324.2661242811594
885,885,[-4.57064989e+03  3.34371834e+02 -4.30945147e-03 -1.31641694e+07],301,1323.6953402575778
886,886,[-5.14501419e+03  3.32369400e+02 -5.04524408e-03 -1.31641694e+07],252,1325.1678569615046
887,887,[-4.94301432e+03  3.33370475e+02 -4.69871110e-03 -1.31641694e+07],287,1324.3251620289154
888,888,[-3.95512874e+03  3.35372699e+02 -4.26565340e-03 -1.31641694e+07],1038,1324.077059115658
889,889,[-5.09941940e+03  3.32369447e+02 -5.34851240e-03 -1.31641694e+07],696,1323.28296289164
890,890,[-5.00563864e+03  3.32369306e+02 -5.27443595e-03 -1.31641694e+07],1288,1323.8194111081016
891,891,[-5.50941627e+03  3.32369330e+02 -5.34435244e-03 -1.31641694e+07],447,1320.7653106604387
892,892,[-5.00617154e+03  3.32369383e+02 -5.32452238e-03 -1.31641694e+07],83,1321.8914149727336
893,893,[-4.81166103e+03  3.33370448e+02 -4.81427403e-03 -1.31641694e+07],1267,1324.5671100163327
894,894,[-4.95600528e+03  3.32369328e+02 -5.45043953e-03 -1.31641694e+07],678,1323.9739075072705
895,895,[-5.27483332e+03  3.32369466e+02 -5.37445128e-03 -1.31641694e+07],587,1323.6091668222925
896,896,[-4.59572564e+03  3.33370585e+02 -4.77517003e-03 -1.31641694e+07],872,1323.4513008245528
897,897,[-3.82194385e+03  3.36373933e+02 -3.97737039e-03 -1.31641694e+07],883,1323.4861087854738
898,898,[-4.96167342e+03  3.33370465e+02 -4.57998997e-03 -1.31641694e+07],1181,1322.86778179733
899,899,[-5.51022500e+03  3.32369366e+02 -5.28925526e-03 -1.31641694e+07],136,1319.8534897460215
900,900,[-3.83631413e+03  3.36374186e+02 -3.95547153e-03 -1.31641694e+07],981,1323.8250038239594
901,901,[-3.78908742e+03  3.36373918e+02 -4.04775499e-03 -1.31641694e+07],1110,1324.6142694929079
902,902,[-4.94157364e+03  3.32369523e+02 -5.46328669e-03 -1.31641694e+07],531,1320.9326438258288
903,903,[-4.96865928e+03  3.32369324e+02 -5.54975611e-03 -1.31641694e+07],229,1323.8634817339455
904,904,[-5.00443244e+03  3.32369432e+02 -5.33069373e-03 -1.31641694e+07],1238,1321.944440500892
905,905,[-3.98631645e+03  3.35372693e+02 -4.38046422e-03 -1.31641694e+07],782,1322.1527330709173
906,906,[-5.00494624e+03  3.32369300e+02 -5.56734794e-03 -1.31641694e+07],408,1323.297506437694
907,907,[-4.93499556e+03  3.32369347e+02 -5.33926308e-03 -1.31641694e+07],1122,1323.5089521037075
908,908,[-4.98876613e+03  3.32369360e+02 -5.48764310e-03 -1.31641694e+07],700,1322.9582031954255
909,909,[-4.29964350e+03  3.35372960e+02 -4.05969479e-03 -1.31641694e+07],714,1323.5496474075255
910,910,[-4.64739635e+03  3.33370541e+02 -5.03488288e-03 -1.31641694e+07],960,1323.0977011512653
911,911,[-5.52858926e+03  3.32369403e+02 -5.29672065e-03 -1.31641694e+07],1301,1320.405554728335
912,912,[-4.58445780e+03  3.33370443e+02 -4.62079434e-03 -1.31641694e+07],1255,1323.855859452394
913,913,[-6.49283765e+03  3.33370412e+02 -5.98394834e-03 -1.31641694e+07],327,1325.537107302409
914,914,[-5.65343597e+03  3.32369373e+02 -5.18932301e-03 -1.31641694e+07],958,1323.3902359698927
915,915,[-5.59973685e+03  3.32369329e+02 -5.19085883e-03 -1.31641694e+07],395,1322.8306316808691
916,916,[-5.01564567e+03  3.33370718e+02 -4.66534244e-03 -1.31641694e+07],544,1322.6731231744727
917,917,[-4.73896435e+03  3.33370461e+02 -4.86844276e-03 -1.31641694e+07],1239,1324.085912412746
918,918,[-5.52983238e+03  3.32369389e+02 -5.27131546e-03 -1.31641694e+07],465,1320.4136364792716
919,919,[-5.58393555e+03  3.32369341e+02 -5.21574039e-03 -1.31641694e+07],759,1321.0087791177555
920,920,[-3.83331791e+03  3.36373872e+02 -4.02073696e-03 -1.31641694e+07],213,1320.2955881810965
921,921,[-4.63747506e+03  3.33370448e+02 -4.85583201e-03 -1.31641694e+07],1178,1324.5879610904854
922,922,[-4.94966623e+03  3.33370482e+02 -4.64300948e-03 -1.31641694e+07],1018,1324.8868651733364
923,923,[-4.94482905e+03  3.32369380e+02 -5.47596686e-03 -1.31641694e+07],1158,1324.9451708306772
924,924,[-3.81771192e+03  3.36373877e+02 -4.01245640e-03 -1.31641694e+07],934,1323.9747834771158
925,925,[-4.98200251e+03  3.32369370e+02 -5.46191452e-03 -1.31641694e+07],510,1325.6915849659106
926,926,[-4.99176356e+03  3.32369462e+02 -5.60302794e-03 -1.31641694e+07],1316,1324.5883146836875
927,927,[-5.10544544e+03  3.32369306e+02 -5.13942907e-03 -1.31641694e+07],749,1323.6628479766512
928,928,[-3.98748453e+03  3.35372884e+02 -4.27138277e-03 -1.31641694e+07],97,1324.2083177637473
929,929,[-5.06728060e+03  3.32369308e+02 -5.13081330e-03 -1.31641694e+07],1222,1323.562074413659
930,930,[-5.05716681e+03  3.32369313e+02 -5.09591195e-03 -1.31641694e+07],90,1320.9051988975045
931,931,[-3.97381683e+03  3.35372807e+02 -4.32134094e-03 -1.31641694e+07],46,1323.3578967746096
932,932,[-4.55487204e+03  3.34371655e+02 -4.43513545e-03 -1.31641694e+07],688,1324.6679262476632
933,933,[-4.97539286e+03  3.32369352e+02 -5.59688690e-03 -1.31641694e+07],105,1322.1141921887308
934,934,[-5.11133956e+03  3.32369412e+02 -5.22448703e-03 -1.31641694e+07],410,1322.4503043958814
935,935,[-5.48689091e+03  3.33370505e+02 -5.45742698e-03 -1.31641694e+07],507,1321.3974277505195
936,936,[-4.97484319e+03  3.33370500e+02 -4.58747639e-03 -1.31641694e+07],1073,1325.312322814491
937,937,[-4.98653946e+03  3.32369308e+02 -5.40048062e-03 -1.31641694e+07],1059,1324.545144185832
938,938,[-5.01952450e+03  3.32369389e+02 -5.29856008e-03 -1.31641694e+07],1076,1324.2485616602205
939,939,[-5.04893691e+03  3.32369355e+02 -5.34377451e-03 -1.31641694e+07],827,1324.6173877809756
940,940,[-4.49893583e+03  3.33370520e+02 -4.67560699e-03 -1.31641694e+07],590,1325.1325920922616
941,941,[-3.89033713e+03  3.35372673e+02 -4.27899808e-03 -1.31641694e+07],602,1323.5659300240002
942,942,[-4.94693588e+03  3.32369313e+02 -5.25216813e-03 -1.31641694e+07],588,1324.4491917017353
943,943,[-4.59453173e+03  3.33370545e+02 -4.55996759e-03 -1.31641694e+07],354,1325.0398829587277
944,944,[-4.99200389e+03  3.32369391e+02 -5.38732591e-03 -1.31641694e+07],173,1325.3135592611834
945,945,[-5.45129732e+03  3.32369379e+02 -5.43704089e-03 -1.31641694e+07],957,1323.303865377544
946,946,[-4.90537402e+03  3.32369332e+02 -5.30081346e-03 -1.31641694e+07],76,1324.8656264421727
947,947,[-4.50315850e+03  3.34371538e+02 -4.37247782e-03 -1.31641694e+07],980,1325.2394226983934
948,948,[-3.93104162e+03  3.35372745e+02 -4.27853829e-03 -1.31641694e+07],1323,1324.8271227564187
949,949,[-5.03667160e+03  3.32369319e+02 -5.46832451e-03 -1.31641694e+07],715,1325.231508454739
950,950,[-4.98829516e+03  3.32369473e+02 -5.45025139e-03 -1.31641694e+07],610,1324.2625307617639
951,951,[-4.96198792e+03  3.32369392e+02 -5.22567736e-03 -1.31641694e+07],743,1322.8073682089753
952,952,[-4.98431282e+03  3.33370608e+02 -4.57600873e-03 -1.31641694e+07],1185,1323.8409073326409
953,953,[-5.47513665e+03  3.32369498e+02 -5.34468984e-03 -1.31641694e+07],826,1322.8349526381899
954,954,[-5.25620371e+03  3.32369371e+02 -5.33551527e-03 -1.31641694e+07],248,1319.41550372007
955,955,[-3.86680917e+03  3.36374006e+02 -3.86779094e-03 -1.31641694e+07],112,1322.8325441911618
956,956,[-5.00938578e+03  3.32369320e+02 -5.42497882e-03 -1.31641694e+07],1022,1325.16414541589
957,957,[-4.98189376e+03  3.32369321e+02 -5.49700806e-03 -1.31641694e+07],694,1322.3347514386676
958,958,[-3.81802816e+03  3.36373802e+02 -3.97342736e-03 -1.31641694e+07],879,1322.4759423904611
959,959,[-4.98534682e+03  3.32369322e+02 -5.28703206e-03 -1.31641694e+07],159,1325.1284481801001
960,960,[-4.60693832e+03  3.33370456e+02 -5.01827214e-03 -1.31641694e+07],871,1322.4846966708733
961,961,[-4.70579345e+03  3.33370441e+02 -4.63671137e-03 -1.31641694e+07],1130,1323.5441586882218
962,962,[-5.23051140e+03  3.33370569e+02 -5.43545561e-03 -1.31641694e+07],773,1321.8514330651428
963,963,[-3.81198658e+03  3.36374226e+02 -3.96021094e-03 -1.31641694e+07],1322,1324.529349228867
964,964,[-4.97305665e+03  3.32369345e+02 -5.40732906e-03 -1.31641694e+07],1138,1324.2988757006751
965,965,[-5.16854210e+03  3.32369303e+02 -5.33146855e-03 -1.31641694e+07],1024,1324.7881195259406
966,966,[-4.56290481e+03  3.33370505e+02 -4.56702589e-03 -1.31641694e+07],969,1324.9012167661376
967,967,[-3.94692934e+03  3.35372638e+02 -4.26478114e-03 -1.31641694e+07],974,1325.5071200687817
968,968,[-5.15248229e+03  3.32369314e+02 -5.31285080e-03 -1.31641694e+07],1064,1323.8615203645015
969,969,[-4.62158161e+03  3.33370508e+02 -4.73631583e-03 -1.31641694e+07],624,1322.2107710022256
970,970,[-4.69756674e+03  3.33370458e+02 -4.81433225e-03 -1.31641694e+07],286,1325.5164204270034
971,971,[-5.47708790e+03  3.32369311e+02 -5.29466598e-03 -1.31641694e+07],110,1324.4607563538261
972,972,[-4.93261832e+03  3.33370513e+02 -4.66226254e-03 -1.31641694e+07],1091,1324.1975145967328
973,973,[-3.61795312e+03  3.37375254e+02 -3.77966921e-03 -1.31641694e+07],374,1321.6222853215659
974,974,[-3.59382303e+03  3.37375152e+02 -3.83720323e-03 -1.31641694e+07],164,1322.2070714680165
975,975,[-5.09926866e+03  3.32369357e+02 -5.27327126e-03 -1.31641694e+07],443,1323.579509414772
976,976,[-5.44143823e+03  3.32369338e+02 -5.36088446e-03 -1.31641694e+07],175,1319.8284571891108
977,977,[-3.81226860e+03  3.36373802e+02 -4.02010320e-03 -1.31641694e+07],1203,1324.5795409202553
978,978,[-4.69130870e+03  3.33370486e+02 -4.94173564e-03 -1.31641694e+07],185,1323.5415183299544
979,979,[-4.96931505e+03  3.32369324e+02 -5.44380897e-03 -1.31641694e+07],905,1322.0157101350383
980,980,[-3.79598410e+03  3.36373806e+02 -4.03374518e-03 -1.31641694e+07],806,1322.3265884150019
981,981,[-4.32349805e+03  3.35372708e+02 -4.01209372e-03 -1.31641694e+07],187,1322.5458670200437
982,982,[-3.91021526e+03  3.35372661e+02 -4.36064985e-03 -1.31641694e+07],487,1324.2137002260247
983,983,[-5.43674772e+03  3.32369355e+02 -5.36034553e-03 -1.31641694e+07],1328,1324.0939395880246
984,984,[-4.97560166e+03  3.32369333e+02 -5.26445760e-03 -1.31641694e+07],933,1323.4248930837516
985,985,[-3.82616803e+03  3.36373754e+02 -4.00617390e-03 -1.31641694e+07],206,1322.7401419425955
986,986,[-5.14646877e+03  3.32369330e+02 -5.24574027e-03 -1.31641694e+07],333,1324.4768991949545
987,987,[-5.44977109e+03  3.32369322e+02 -5.26481479e-03 -1.31641694e+07],61,1321.6540803031794
988,988,[-5.38430527e+03  3.32369396e+02 -5.36545973e-03 -1.31641694e+07],357,1321.755372198238
989,989,[-5.01519334e+03  3.32369318e+02 -5.37287771e-03 -1.31641694e+07],196,1321.804583690575
990,990,[-3.78325457e+03  3.36374226e+02 -4.03189774e-03 -1.31641694e+07],1067,1321.9331335184222
991,991,[-5.48755918e+03  3.32369477e+02 -5.29164927e-03 -1.31641694e+07],1075,1323.8527096822397
992,992,[-5.48549109e+03  3.32369417e+02 -5.25209304e-03 -1.31641694e+07],152,1323.5509543279989
993,993,[-4.63739271e+03  3.33370423e+02 -4.92200502e-03 -1.31641694e+07],241,1323.4441766905854
994,994,[-4.41803297e+03  3.34371656e+02 -4.19415961e-03 -1.31641694e+07],979,1323.4383276760786
995,995,[-5.19196651e+03  3.32369466e+02 -5.33625200e-03 -1.31641694e+07],1135,1324.1692481166679
996,996,[-4.94787935e+03  3.32369465e+02 -5.58055697e-03 -1.31641694e+07],825,1323.0845096275386
997,997,[-4.92082159e+03  3.32369307e+02 -5.29366211e-03 -1.31641694e+07],1272,1321.9580057021308
998,998,[-4.86478292e+03  3.32369324e+02 -5.30025097e-03 -1.31641694e+07],502,1321.4687377479415
999,999,[-4.93900486e+03  3.32369369e+02 -5.30268947e-03 -1.31641694e+07],546,1323.1314021062756
1000,1000,[-4.93715320e+03  3.33370431e+02 -4.57863327e-03 -1.31641694e+07],1197,1323.4987816236317
1001,1001,[-3.78699450e+03  3.36373875e+02 -4.02627196e-03 -1.31641694e+07],516,1322.8962042615515
1002,1002,[-4.94369846e+03  3.32369366e+02 -5.37938724e-03 -1.31641694e+07],156,1325.0308142088559
1003,1003,[-5.39631939e+03  3.32369359e+02 -5.33832412e-03 -1.31641694e+07],218,1324.1429022086652
1004,1004,[-4.86206517e+03  3.33370614e+02 -4.69251619e-03 -1.31641694e+07],471,1324.1928226438345
1005,1005,[-4.93740360e+03  3.32369390e+02 -5.45076617e-03 -1.31641694e+07],1060,1324.0669057683692
1006,1006,[-4.26894606e+03  3.35372639e+02 -4.04477976e-03 -1.31641694e+07],131,1323.0156541511733
1007,1007,[-5.48046324e+03  3.32369303e+02 -5.23676535e-03 -1.31641694e+07],707,1323.87326012652
1008,1008,[-5.50396750e+03  3.32369326e+02 -5.27168136e-03 -1.31641694e+07],997,1324.2646551524
1009,1009,[-3.59846793e+03  3.37375179e+02 -3.82680198e-03 -1.31641694e+07],215,1321.675270373321
1010,1010,[-4.97121328e+03  3.33370482e+02 -4.67747893e-03 -1.31641694e+07],442,1320.3989872515563
1011,1011,[-4.95469193e+03  3.33370582e+02 -4.57291353e-03 -1.31641694e+07],1265,1323.0705637987976
1012,1012,[-5.44404309e+03  3.32369376e+02 -5.27193208e-03 -1.31641694e+07],121,1323.9202047702088
1013,1013,[-4.83934740e+03  3.32369346e+02 -5.31215599e-03 -1.31641694e+07],904,1323.8177881578088
1014,1014,[-3.82408169e+03  3.36373877e+02 -3.92805253e-03 -1.31641694e+07],990,1323.9597382110323
1015,1015,[-4.93864166e+03  3.32369493e+02 -5.55668284e-03 -1.31641694e+07],1277,1321.7429155804223
1016,1016,[-5.01078652e+03  3.32369508e+02 -5.40506489e-03 -1.31641694e+07],1296,1319.3675254417435
1017,1017,[-3.99930901e+03  3.35372780e+02 -4.18511639e-03 -1.31641694e+07],1023,1318.4458720270854
1018,1018,[-4.76817910e+03  3.33370442e+02 -4.81391905e-03 -1.31641694e+07],162,1322.4516524426033
1019,1019,[-4.43406470e+03  3.33370758e+02 -4.64710058e-03 -1.31641694e+07],102,1323.412821817513
1020,1020,[-4.87549133e+03  3.32369422e+02 -5.33287689e-03 -1.31641694e+07],75,1323.621174362822
1021,1021,[-5.38460076e+03  3.32369418e+02 -5.44115166e-03 -1.31641694e+07],892,1317.845182998977
1022,1022,[-4.51760157e+03  3.34371653e+02 -4.28159002e-03 -1.31641694e+07],702,1322.2881911984248
1023,1023,[-4.86121732e+03  3.32369309e+02 -5.21262234e-03 -1.31641694e+07],1310,1321.915564996103
1024,1024,[-4.66251092e+03  3.33370480e+02 -5.00753155e-03 -1.31641694e+07],1173,1322.214947694928
1025,1025,[-5.15770774e+03  3.32369392e+02 -5.29059181e-03 -1.31641694e+07],39,1322.695555441501
1026,1026,[-3.76367396e+03  3.36374103e+02 -4.11534235e-03 -1.31641694e+07],1214,1324.6663686979628
1027,1027,[-3.82020130e+03  3.36373974e+02 -3.94981698e-03 -1.31641694e+07],675,1324.9011766436995
1028,1028,[-5.12960211e+03  3.32369339e+02 -5.13612627e-03 -1.31641694e+07],456,1324.5582796719968
1029,1029,[-4.60882773e+03  3.33370442e+02 -5.01926240e-03 -1.31641694e+07],962,1320.1706833339356
1030,1030,[-4.87081525e+03  3.33370527e+02 -4.65341520e-03 -1.31641694e+07],785,1321.2762286968537
1031,1031,[-4.84689425e+03  3.34371547e+02 -4.60564959e-03 -1.31641694e+07],106,1319.9539117660474
1032,1032,[-4.47156291e+03  3.34371540e+02 -4.39302341e-03 -1.31641694e+07],62,1325.2491060878128
1033,1033,[-4.86948563e+03  3.32369437e+02 -5.45112092e-03 -1.31641694e+07],100,1325.3077522818999
1034,1034,[-5.47410261e+03  3.32369408e+02 -5.21522556e-03 -1.31641694e+07],87,1324.9128641373416
1035,1035,[-4.48766151e+03  3.34371545e+02 -4.24353852e-03 -1.31641694e+07],504,1324.2011446104939
1036,1036,[-4.91614385e+03  3.32369535e+02 -5.36607691e-03 -1.31641694e+07],1205,1324.548242355202
1037,1037,[-3.74546414e+03  3.36374144e+02 -4.18698121e-03 -1.31641694e+07],216,1324.262462293808
1038,1038,[-4.93522880e+03  3.32369402e+02 -5.65182502e-03 -1.31641694e+07],766,1322.605034191711
1039,1039,[-4.46532876e+03  3.33370444e+02 -4.62232685e-03 -1.31641694e+07],989,1324.3995877039126
1040,1040,[-4.49647360e+03  3.34371691e+02 -4.25129394e-03 -1.31641694e+07],1192,1323.2017887497186
1041,1041,[-4.74772862e+03  3.33370455e+02 -4.94459097e-03 -1.31641694e+07],613,1324.845086617948
1042,1042,[-4.97913014e+03  3.32369310e+02 -5.34637306e-03 -1.31641694e+07],219,1324.04925115811
1043,1043,[-4.45447936e+03  3.34371691e+02 -4.22975946e-03 -1.31641694e+07],781,1323.0916102538808
1044,1044,[-4.94099370e+03  3.33370420e+02 -4.70752673e-03 -1.31641694e+07],48,1322.9312048490751
1045,1045,[-4.89742260e+03  3.32369449e+02 -5.35916122e-03 -1.31641694e+07],795,1324.3772547499427
1046,1046,[-5.52010163e+03  3.32369308e+02 -5.20944429e-03 -1.31641694e+07],101,1324.6396453692596
1047,1047,[-3.95145470e+03  3.35372671e+02 -4.34432335e-03 -1.31641694e+07],512,1325.5132910831423
1048,1048,[-4.05476154e+03  3.35372794e+02 -4.30437578e-03 -1.31641694e+07],988,1324.5388908542448
1049,1049,[-5.10883201e+03  3.32369392e+02 -5.07748995e-03 -1.31641694e+07],1015,1324.5931730607094
1050,1050,[-4.95104503e+03  3.32369376e+02 -5.53396858e-03 -1.31641694e+07],451,1323.4514075476081
1051,1051,[-4.86002950e+03  3.32369332e+02 -5.20684642e-03 -1.31641694e+07],1294,1324.4804300638607
1052,1052,[-4.48651011e+03  3.34371562e+02 -4.13959534e-03 -1.31641694e+07],1260,1323.5420592428131
1053,1053,[-4.61128742e+03  3.33370669e+02 -4.90673020e-03 -1.31641694e+07],1196,1324.1467972636424
1054,1054,[-5.46540674e+03  3.32369458e+02 -5.21990787e-03 -1.31641694e+07],242,1324.0456351933442
1055,1055,[-3.79362849e+03  3.36373945e+02 -4.03602005e-03 -1.31641694e+07],1009,1324.4753386487384
1056,1056,[-4.96517580e+03  3.32369300e+02 -5.23569210e-03 -1.31641694e+07],987,1323.304077757185
1057,1057,[-4.74163139e+03  3.33370512e+02 -5.14767157e-03 -1.31641694e+07],625,1323.5233527180358
1058,1058,[-5.17378455e+03  3.32369353e+02 -5.42094022e-03 -1.31641694e+07],521,1324.7786433873705
1059,1059,[-3.61584980e+03  3.37375225e+02 -3.78065535e-03 -1.31641694e+07],1204,1322.3824773414792
1060,1060,[-4.52330964e+03  3.33370525e+02 -4.73646742e-03 -1.31641694e+07],388,1321.968329306996
1061,1061,[-3.90327170e+03  3.35372778e+02 -4.30343022e-03 -1.31641694e+07],143,1323.9229148069605
1062,1062,[-5.09319199e+03  3.32369409e+02 -5.17767111e-03 -1.31641694e+07],1105,1324.5376746522452
1063,1063,[-5.15647506e+03  3.32369529e+02 -5.35384599e-03 -1.31641694e+07],74,1323.3623046703383
1064,1064,[-3.97796789e+03  3.35372637e+02 -4.19441969e-03 -1.31641694e+07],1228,1322.203691738402
1065,1065,[-4.88207289e+03  3.33370484e+02 -4.60941459e-03 -1.31641694e+07],85,1322.7695914816488
1066,1066,[-5.05385164e+03  3.32369394e+02 -5.34141750e-03 -1.31641694e+07],973,1319.82533666715
1067,1067,[-4.76083062e+03  3.32369332e+02 -5.14728981e-03 -1.31641694e+07],1068,1322.0676426803973
1068,1068,[-4.61959687e+03  3.33370600e+02 -4.64789373e-03 -1.31641694e+07],542,1321.615780915444
1069,1069,[-4.96447973e+03  3.32369312e+02 -5.39613453e-03 -1.31641694e+07],1256,1324.4081110560394
1070,1070,[-5.49289943e+03  3.32369376e+02 -5.20052162e-03 -1.31641694e+07],228,1323.130055297156
1071,1071,[-3.62050209e+03  3.37374967e+02 -3.77584322e-03 -1.31641694e+07],93,1319.9788983772041
1072,1072,[-3.83549937e+03  3.36373794e+02 -3.89168980e-03 -1.31641694e+07],246,1320.4345569316827
1073,1073,[-4.56851047e+03  3.33370688e+02 -5.03222531e-03 -1.31641694e+07],127,1322.4056526226404
1074,1074,[-3.87758393e+03  3.35372894e+02 -4.46510064e-03 -1.31641694e+07],520,1320.749430848367
1075,1075,[-5.34922658e+03  3.33370434e+02 -5.42423017e-03 -1.31641694e+07],777,1322.046360745629
1076,1076,[-3.92068090e+03  3.35372711e+02 -4.26931450e-03 -1.31641694e+07],288,1322.3574553390417
1077,1077,[-4.72438318e+03  3.33370484e+02 -4.67045908e-03 -1.31641694e+07],745,1324.1430335756374
1078,1078,[-4.90410497e+03  3.32369318e+02 -5.56477449e-03 -1.31641694e+07],236,1325.0051476905687
1079,1079,[-3.81456777e+03  3.36373957e+02 -3.92179925e-03 -1.31641694e+07],1142,1324.1609000433787
1080,1080,[-4.90881164e+03  3.33370550e+02 -4.71872634e-03 -1.31641694e+07],508,1323.86370107824
1081,1081,[-4.65993854e+03  3.33370427e+02 -4.64840560e-03 -1.31641694e+07],197,1324.8513284649703
1082,1082,[-5.44866958e+03  3.32369323e+02 -5.27248255e-03 -1.31641694e+07],1292,1324.41214419836
1083,1083,[-4.86645569e+03  3.32369408e+02 -5.13487598e-03 -1.31641694e+07],27,1323.7302013167468
1084,1084,[-3.77821304e+03  3.36374197e+02 -4.10334287e-03 -1.31641694e+07],1115,1324.7772983122286
1085,1085,[-3.88344769e+03  3.35372851e+02 -4.32818973e-03 -1.31641694e+07],82,1323.5725556312368
1086,1086,[-4.92058212e+03  3.32369476e+02 -5.48969377e-03 -1.31641694e+07],844,1319.8721180594816
1087,1087,[-4.30084062e+03  3.35372654e+02 -4.00342343e-03 -1.31641694e+07],998,1319.3718645195481
1088,1088,[-4.80942405e+03  3.32369350e+02 -5.20610209e-03 -1.31641694e+07],111,1324.5194601779099
1089,1089,[-5.39762559e+03  3.32369341e+02 -5.31460225e-03 -1.31641694e+07],37,1323.6324428139962
1090,1090,[-4.70536960e+03  3.33370466e+02 -4.66692863e-03 -1.31641694e+07],593,1325.1434136746566
1091,1091,[-4.71588887e+03  3.34371715e+02 -4.49881030e-03 -1.31641694e+07],1264,1322.190680829442
1092,1092,[-4.90705819e+03  3.32369570e+02 -5.32792152e-03 -1.31641694e+07],1184,1322.7287154853743
1093,1093,[-5.42398303e+03  3.32369567e+02 -5.26833560e-03 -1.31641694e+07],297,1323.8653189332474
1094,1094,[-4.91318191e+03  3.32369339e+02 -5.57431174e-03 -1.31641694e+07],307,1323.8111429034172
1095,1095,[-4.64194024e+03  3.33370459e+02 -4.65214398e-03 -1.31641694e+07],935,1323.532112886127
1096,1096,[-3.97098057e+03  3.35372732e+02 -4.39833557e-03 -1.31641694e+07],1230,1323.5204717212591
1097,1097,[-4.45294953e+03  3.33370465e+02 -4.67997197e-03 -1.31641694e+07],834,1323.7007218562787
1098,1098,[-4.93276991e+03  3.32369473e+02 -5.35199818e-03 -1.31641694e+07],1109,1323.0213986330311
1099,1099,[-3.77391445e+03  3.36373914e+02 -4.12432849e-03 -1.31641694e+07],51,1320.9161949538748
1100,1100,[-3.79041799e+03  3.36373852e+02 -4.00926676e-03 -1.31641694e+07],303,1324.5176552609337
1101,1101,[-4.90150669e+03  3.32369392e+02 -5.36195880e-03 -1.31641694e+07],513,1324.3710735506002
1102,1102,[-4.92374574e+03  3.32369332e+02 -5.42562691e-03 -1.31641694e+07],68,1325.4868061438842
1103,1103,[-4.90999356e+03  3.32369321e+02 -5.29605781e-03 -1.31641694e+07],677,1323.1991107507483
1104,1104,[-4.40029130e+03  3.34371527e+02 -4.06927752e-03 -1.31641694e+07],1030,1323.070377464042
1105,1105,[-5.54028876e+03  3.32369386e+02 -5.15423504e-03 -1.31641694e+07],449,1321.6334689553864
1106,1106,[-5.37271662e+03  3.32369324e+02 -5.36365807e-03 -1.31641694e+07],50,1318.157967208737
1107,1107,[-4.96977174e+03  3.33370415e+02 -4.72821730e-03 -1.31641694e+07],723,1322.747119473606
1108,1108,[-4.48862791e+03  3.34371593e+02 -4.35217307e-03 -1.31641694e+07],240,1323.5784105116252
1109,1109,[-4.68819314e+03  3.33370553e+02 -5.03306032e-03 -1.31641694e+07],78,1321.3250811012663
1110,1110,[-3.79381676e+03  3.36374043e+02 -4.09049489e-03 -1.31641694e+07],627,1322.5342225508377
1111,1111,[-4.14358218e+03  3.35372717e+02 -3.64870201e-03 -1.31641694e+07],453,1324.0213846031243
1112,1112,[-4.46428409e+03  3.33370462e+02 -4.65514212e-03 -1.31641694e+07],1139,1324.9465265536253
1113,1113,[-4.98867776e+03  3.32369466e+02 -5.13851809e-03 -1.31641694e+07],221,1324.402730768435
1114,1114,[-4.45264853e+03  3.33370433e+02 -4.58466462e-03 -1.31641694e+07],851,1320.9408710441132
1115,1115,[-4.69201325e+03  3.33370578e+02 -4.79311322e-03 -1.31641694e+07],205,1321.482258893499
1116,1116,[-4.68838661e+03  3.33370485e+02 -4.71171756e-03 -1.31641694e+07],750,1323.7731421325198
1117,1117,[-3.92561416e+03  3.35372914e+02 -4.30202565e-03 -1.31641694e+07],389,1323.160036680961
1118,1118,[-4.79514473e+03  3.32369399e+02 -5.12060656e-03 -1.31641694e+07],390,1324.0620889354639
1119,1119,[-4.78353548e+03  3.32369326e+02 -5.08370114e-03 -1.31641694e+07],693,1323.840905258423
1120,1120,[-3.92961723e+03  3.35372764e+02 -4.28854273e-03 -1.31641694e+07],1131,1323.2947716184972
1121,1121,[-4.71431840e+03  3.33370468e+02 -4.65835087e-03 -1.31641694e+07],235,1324.458401318654
1122,1122,[-4.99387235e+03  3.33370459e+02 -5.19860432e-03 -1.31641694e+07],32,1322.5117092873174
1123,1123,[-4.47893485e+03  3.34371617e+02 -4.27085941e-03 -1.31641694e+07],1140,1323.127965776175
1124,1124,[-3.91332484e+03  3.35372785e+02 -4.27551414e-03 -1.31641694e+07],541,1323.4458777760356
1125,1125,[-3.91277428e+03  3.35372833e+02 -4.31959579e-03 -1.31641694e+07],716,1324.6754583110117
1126,1126,[-3.80613146e+03  3.36374089e+02 -4.04306272e-03 -1.31641694e+07],488,1323.8955083622536
1127,1127,[-4.43955895e+03  3.34371622e+02 -4.31457702e-03 -1.31641694e+07],673,1322.8053274399083
1128,1128,[-5.16235304e+03  3.32369356e+02 -5.30531621e-03 -1.31641694e+07],717,1324.1932438540364
1129,1129,[-4.69573257e+03  3.33370461e+02 -5.03057726e-03 -1.31641694e+07],1276,1324.007465559251
1130,1130,[-4.44435849e+03  3.34371601e+02 -4.42985242e-03 -1.31641694e+07],483,1322.2623643000838
1131,1131,[-4.80308188e+03  3.34371779e+02 -4.57106769e-03 -1.31641694e+07],195,1321.1906388379443
1132,1132,[-4.45558741e+03  3.33370691e+02 -4.60012861e-03 -1.31641694e+07],611,1324.1535288895413
1133,1133,[-4.91522972e+03  3.32369345e+02 -5.43667577e-03 -1.31641694e+07],1144,1324.2666612179428
1134,1134,[-5.13416260e+03  3.32369304e+02 -5.27995600e-03 -1.31641694e+07],769,1323.764245120025
1135,1135,[-3.97598340e+03  3.35372699e+02 -4.20710795e-03 -1.31641694e+07],540,1322.010018895893
1136,1136,[-4.86509390e+03  3.33370477e+02 -4.60805568e-03 -1.31641694e+07],1314,1320.579228962197
1137,1137,[-4.62825165e+03  3.33370525e+02 -4.98014913e-03 -1.31641694e+07],919,1323.2223734020686
1138,1138,[-3.76313858e+03  3.36374151e+02 -4.14058024e-03 -1.31641694e+07],493,1322.2324551709328
1139,1139,[-5.17033363e+03  3.32369336e+02 -5.19133531e-03 -1.31641694e+07],323,1321.2193675421563
1140,1140,[-5.35820935e+03  3.32369320e+02 -5.07887526e-03 -1.31641694e+07],592,1321.1770090283358
1141,1141,[-4.88504860e+03  3.32369339e+02 -5.43941153e-03 -1.31641694e+07],492,1324.5860511817152
1142,1142,[-5.10378655e+03  3.32369435e+02 -5.29120917e-03 -1.31641694e+07],1223,1321.5150711885306
1143,1143,[-4.51626512e+03  3.34371569e+02 -4.21233600e-03 -1.31641694e+07],1275,1317.8121465716888
1144,1144,[-3.78273026e+03  3.36373887e+02 -4.11849615e-03 -1.31641694e+07],154,1321.0447712368593
1145,1145,[-4.79770739e+03  3.32369344e+02 -5.29929210e-03 -1.31641694e+07],444,1324.2465534419587
1146,1146,[-4.59657130e+03  3.33370516e+02 -4.84180290e-03 -1.31641694e+07],744,1325.0560650482312
1147,1147,[-4.65636082e+03  3.33370443e+02 -4.55122089e-03 -1.31641694e+07],1114,1325.0002658373176
1148,1148,[-3.92988698e+03  3.35372820e+02 -4.29561138e-03 -1.31641694e+07],178,1323.876305740986
1149,1149,[-4.89918153e+03  3.32369304e+02 -5.45058376e-03 -1.31641694e+07],902,1320.451556277857
1150,1150,[-3.95027361e+03  3.35372713e+02 -4.27379857e-03 -1.31641694e+07],1191,1322.7294469682752
1151,1151,[-3.65050028e+03  3.37375002e+02 -3.68134034e-03 -1.31641694e+07],500,1323.3787025792358
1152,1152,[-3.78088710e+03  3.36373841e+02 -4.13771562e-03 -1.31641694e+07],1297,1325.2310312333245
1153,1153,[-5.58626392e+03  3.32369363e+02 -5.13485154e-03 -1.31641694e+07],305,1324.4825731607664
1154,1154,[-5.14551215e+03  3.32369346e+02 -5.05909091e-03 -1.31641694e+07],1099,1323.8628026365197
1155,1155,[-4.74732601e+03  3.34371643e+02 -4.47386462e-03 -1.31641694e+07],930,1323.7525640546685
1156,1156,[-4.45670156e+03  3.33370503e+02 -4.61930511e-03 -1.31641694e+07],701,1325.1412601546506
1157,1157,[-3.93158088e+03  3.35372712e+02 -4.27907713e-03 -1.31641694e+07],1293,1324.6864393017242
1158,1158,[-4.60838547e+03  3.33370426e+02 -4.75782277e-03 -1.31641694e+07],340,1322.4512073635774
1159,1159,[-3.94426689e+03  3.35372759e+02 -4.26566105e-03 -1.31641694e+07],24,1324.9095900385262
1160,1160,[-5.21606241e+03  3.32369376e+02 -5.34687278e-03 -1.31641694e+07],559,1324.5913129716503
1161,1161,[-5.15172595e+03  3.32369310e+02 -5.29368297e-03 -1.31641694e+07],461,1325.0085167727293
1162,1162,[-5.09351450e+03  3.33370485e+02 -4.83535659e-03 -1.31641694e+07],289,1324.3572729610107
1163,1163,[-4.54136333e+03  3.33370462e+02 -4.62635875e-03 -1.31641694e+07],409,1325.5938792474144
1164,1164,[-4.71811685e+03  3.33370475e+02 -4.54277577e-03 -1.31641694e+07],57,1324.6974382403098
1165,1165,[-3.95042580e+03  3.35372745e+02 -4.26913608e-03 -1.31641694e+07],891,1323.9094724457161
1166,1166,[-4.51311313e+03  3.34371565e+02 -4.20097183e-03 -1.31641694e+07],1074,1324.5455819173685
1167,1167,[-4.54897852e+03  3.33370447e+02 -4.72661022e-03 -1.31641694e+07],421,1325.119950454833
1168,1168,[-4.83106133e+03  3.32369330e+02 -5.18526980e-03 -1.31641694e+07],89,1325.0151903250276
1169,1169,[-4.90717453e+03  3.32369353e+02 -5.15602683e-03 -1.31641694e+07],49,1323.9133642272182
1170,1170,[-4.32636619e+03  3.35372737e+02 -3.94356728e-03 -1.31641694e+07],58,1324.0741828069256
1171,1171,[-5.16667631e+03  3.32369342e+02 -5.34609099e-03 -1.31641694e+07],193,1325.031343533117
1172,1172,[-5.11832533e+03  3.32369432e+02 -5.22353600e-03 -1.31641694e+07],684,1323.81211907805
1173,1173,[-4.72702037e+03  3.34371564e+02 -4.41510024e-03 -1.31641694e+07],38,1321.8818061878674
1174,1174,[-4.51904896e+03  3.34371538e+02 -4.28407615e-03 -1.31641694e+07],1136,1325.2190861767751
1175,1175,[-4.63638989e+03  3.33370434e+02 -4.91756793e-03 -1.31641694e+07],168,1323.661117706385
1176,1176,[-4.73150109e+03  3.33370436e+02 -4.90103359e-03 -1.31641694e+07],800,1324.4369737976194
1177,1177,[-4.72691625e+03  3.34371685e+02 -4.36548820e-03 -1.31641694e+07],179,1322.9200789307638
1178,1178,[-4.65433885e+03  3.33370530e+02 -4.58130107e-03 -1.31641694e+07],186,1322.4603578605488
1179,1179,[-4.75691246e+03  3.32369399e+02 -5.07239875e-03 -1.31641694e+07],122,1323.7905912263861
1180,1180,[-5.18062405e+03  3.32369526e+02 -5.45815103e-03 -1.31641694e+07],1269,1324.1485967783578
1181,1181,[-3.97216069e+03  3.35372855e+02 -4.23392379e-03 -1.31641694e+07],28,1322.547281596917
1182,1182,[-5.11393200e+03  3.32369306e+02 -5.12095128e-03 -1.31641694e+07],1149,1322.8112104225352
1183,1183,[-3.91940808e+03  3.35372640e+02 -4.32853932e-03 -1.31641694e+07],1291,1323.6477014190755
1184,1184,[-3.92224022e+03  3.35373003e+02 -4.32168204e-03 -1.31641694e+07],1072,1321.4200910521747
1185,1185,[-3.97520703e+03  3.35372817e+02 -4.21132353e-03 -1.31641694e+07],918,1322.2966552444645
1186,1186,[-4.51456284e+03  3.34371601e+02 -4.38361973e-03 -1.31641694e+07],789,1322.863149097981
1187,1187,[-5.07496875e+03  3.32369321e+02 -5.20353139e-03 -1.31641694e+07],80,1323.4785663718887
1188,1188,[-3.94514623e+03  3.35372782e+02 -4.27188955e-03 -1.31641694e+07],911,1324.1545836491546
1189,1189,[-4.53760058e+03  3.34371622e+02 -4.18049968e-03 -1.31641694e+07],386,1323.464206230276
1190,1190,[-4.72053932e+03  3.33370469e+02 -4.86478510e-03 -1.31641694e+07],1010,1324.4590471577328
1191,1191,[-4.88772759e+03  3.32369301e+02 -5.49855148e-03 -1.31641694e+07],64,1320.9321346605973
1192,1192,[-4.52017692e+03  3.33370461e+02 -4.70234892e-03 -1.31641694e+07],294,1321.8037436486638
1193,1193,[-4.67167567e+03  3.34371600e+02 -4.45830971e-03 -1.31641694e+07],460,1325.0529840336205
1194,1194,[-4.69145182e+03  3.33370651e+02 -5.03214001e-03 -1.31641694e+07],796,1324.5780145863619
1195,1195,[-4.70192108e+03  3.33370533e+02 -4.99449824e-03 -1.31641694e+07],920,1323.6073178429156
1196,1196,[-4.66262597e+03  3.33370553e+02 -4.50314445e-03 -1.31641694e+07],44,1321.694423175374
1197,1197,[-4.48851618e+03  3.34371584e+02 -4.25575663e-03 -1.31641694e+07],467,1321.9858500947166
1198,1198,[-5.47295782e+03  3.32369331e+02 -5.25107897e-03 -1.31641694e+07],1327,1324.5071602252922
1199,1199,[-4.68056369e+03  3.33370452e+02 -4.96043834e-03 -1.31641694e+07],1029,1324.8887835431165
1200,1200,[-4.68930879e+03  3.33370491e+02 -4.75953326e-03 -1.31641694e+07],821,1324.518563113589
1201,1201,[-3.61740166e+03  3.37375019e+02 -3.71722291e-03 -1.31641694e+07],220,1324.6337078022345
1202,1202,[-5.49620660e+03  3.32369395e+02 -5.18397948e-03 -1.31641694e+07],1280,1323.5111580893208
1203,1203,[-4.55094454e+03  3.33370458e+02 -5.02773008e-03 -1.31641694e+07],73,1322.1559025235022
1204,1204,[-4.73687072e+03  3.34371696e+02 -4.39830883e-03 -1.31641694e+07],115,1321.6439749973335
1205,1205,[-3.62691885e+03  3.37374986e+02 -3.82405559e-03 -1.31641694e+07],788,1321.8080349638037
1206,1206,[-5.64757982e+03  3.31368203e+02 -6.23204408e-03 -1.31641694e+07],198,1323.401164860402
1207,1207,[-5.53500016e+03  3.32369334e+02 -5.12292866e-03 -1.31641694e+07],1071,1322.738660807382
1208,1208,[-5.49248017e+03  3.32369490e+02 -6.09368981e-03 -1.31641694e+07],296,1322.8769672022631
1209,1209,[-4.46332481e+03  3.33370493e+02 -4.63784825e-03 -1.31641694e+07],1031,1324.2227306221678
1210,1210,[-4.62210646e+03  3.33370447e+02 -4.95407743e-03 -1.31641694e+07],452,1323.244539547525
1211,1211,[-3.92425238e+03  3.35372642e+02 -4.28588237e-03 -1.31641694e+07],79,1318.2695974933847
1212,1212,[-4.69857088e+03  3.33370435e+02 -4.64636706e-03 -1.31641694e+07],86,1324.0933763693497
1213,1213,[-5.13448744e+03  3.32369316e+02 -5.08966389e-03 -1.31641694e+07],119,1324.8432574353271
1214,1214,[-4.79538197e+03  3.32369377e+02 -5.29127974e-03 -1.31641694e+07],1086,1321.8744429768951
1215,1215,[-5.13966959e+03  3.32369428e+02 -5.14598656e-03 -1.31641694e+07],899,1322.7562857929845
1216,1216,[-4.68246305e+03  3.33370649e+02 -4.69248159e-03 -1.31641694e+07],56,1323.253599219753
1217,1217,[-3.78443857e+03  3.36373786e+02 -4.11017400e-03 -1.31641694e+07],59,1323.7790221104933
1218,1218,[-4.42857006e+03  3.33370436e+02 -4.61743874e-03 -1.31641694e+07],976,1324.7245929443536
1219,1219,[-4.72115751e+03  3.33370453e+02 -4.84586341e-03 -1.31641694e+07],1066,1323.7329950386809
1220,1220,[-4.51615295e+03  3.34371572e+02 -4.22985495e-03 -1.31641694e+07],1315,1323.1593906940975
1221,1221,[-5.13368425e+03  3.32369417e+02 -5.29856765e-03 -1.31641694e+07],496,1325.3415141156652
1222,1222,[-5.02243527e+03  3.32369345e+02 -5.19452951e-03 -1.31641694e+07],60,1322.4203424388543
1223,1223,[-4.53271949e+03  3.33370502e+02 -4.61517878e-03 -1.31641694e+07],422,1320.9669426635844
1224,1224,[-4.51009625e+03  3.34371884e+02 -4.25187404e-03 -1.31641694e+07],547,1323.2846238225623
1225,1225,[-5.06308150e+03  3.32369380e+02 -5.18441165e-03 -1.31641694e+07],543,1324.1222813807972
1226,1226,[-4.63263464e+03  3.33370613e+02 -4.66576668e-03 -1.31641694e+07],880,1323.6673595048076
1227,1227,[-5.12736690e+03  3.32369361e+02 -5.25239536e-03 -1.31641694e+07],104,1322.6251844703343
1228,1228,[-4.47377399e+03  3.34371595e+02 -4.16428597e-03 -1.31641694e+07],108,1321.6296224930804
1229,1229,[-5.12607428e+03  3.32369417e+02 -5.47496355e-03 -1.31641694e+07],72,1322.7386692262985
1230,1230,[-4.79751218e+03  3.32369369e+02 -5.29482510e-03 -1.31641694e+07],65,1321.360299575643
1231,1231,[-4.66883663e+03  3.33370443e+02 -4.55847092e-03 -1.31641694e+07],212,1317.603011976719
1232,1232,[-4.72987542e+03  3.33370487e+02 -4.47721985e-03 -1.31641694e+07],67,1316.8604244991309
1233,1233,[-4.04804756e+03  3.35372767e+02 -4.14436767e-03 -1.31641694e+07],391,1317.4410108807094
1234,1234,[-4.71170733e+03  3.34371561e+02 -4.52029768e-03 -1.31641694e+07],35,1323.9154579067424
