,0,1,2,3
0,0,[-2.80047074e+03  3.42380458e+02 -4.79626393e-03 -1.31641694e+07],375,964.0908846179996
1,1,[-2.78877904e+03  3.42381174e+02 -4.62937784e-03 -1.31641694e+07],544,963.8312144534586
2,2,[-2.82155884e+03  3.42380445e+02 -4.68439221e-03 -1.31641694e+07],557,962.9647781768281
3,3,[-2.79561391e+03  3.42380540e+02 -5.04078117e-03 -1.31641694e+07],510,963.3118896959362
4,4,[-2.80871737e+03  3.42380695e+02 -5.04447993e-03 -1.31641694e+07],182,963.898301067101
5,5,[-2.78564472e+03  3.42380517e+02 -4.58688275e-03 -1.31641694e+07],307,963.8074960330077
6,6,[-2.77458440e+03  3.42380671e+02 -4.47115446e-03 -1.31641694e+07],467,963.710603199501
7,7,[-2.78828313e+03  3.42380716e+02 -4.58502067e-03 -1.31641694e+07],299,964.0200966342554
8,8,[-2.81185113e+03  3.42380574e+02 -4.67554963e-03 -1.31641694e+07],757,962.6894974155043
9,9,[-2.76358335e+03  3.42380522e+02 -4.32521834e-03 -1.31641694e+07],558,963.7167388027458
10,10,[-2.75976636e+03  3.42380503e+02 -4.22430015e-03 -1.31641694e+07],430,963.0750338268086
11,11,[-2.54652183e+03  3.43381572e+02 -3.94865417e-03 -1.31641694e+07],534,963.0529276531811
12,12,[-2.55298026e+03  3.43381874e+02 -3.94414912e-03 -1.31641694e+07],325,963.1033621674407
13,13,[-2.77118816e+03  3.42380764e+02 -4.60463201e-03 -1.31641694e+07],374,963.938229699841
14,14,[-2.76888246e+03  3.42380565e+02 -4.51933414e-03 -1.31641694e+07],245,963.4795346334936
15,15,[-2.76010997e+03  3.42380452e+02 -4.42010965e-03 -1.31641694e+07],610,963.0019620336114
16,16,[-2.67619013e+03  3.42380538e+02 -3.77036170e-03 -1.31641694e+07],525,962.7244333677185
17,17,[-2.54126493e+03  3.43381707e+02 -3.95591464e-03 -1.31641694e+07],601,962.8569952271246
18,18,[-2.57598126e+03  3.43381692e+02 -4.44818058e-03 -1.31641694e+07],344,963.9447574784971
19,19,[-2.78592465e+03  3.42380672e+02 -4.61074504e-03 -1.31641694e+07],448,964.1806218921322
20,20,[-2.65008433e+03  3.42380533e+02 -3.67955379e-03 -1.31641694e+07],640,962.4012324424826
21,21,[-2.56778619e+03  3.43381878e+02 -4.08519025e-03 -1.31641694e+07],595,963.6908233654066
22,22,[-2.54410673e+03  3.43381592e+02 -4.16811332e-03 -1.31641694e+07],782,962.8631527827766
23,23,[-2.54328024e+03  3.43382049e+02 -4.25987809e-03 -1.31641694e+07],597,961.8329928993812
24,24,[-2.76793102e+03  3.42380612e+02 -5.22654442e-03 -1.31641694e+07],715,963.6735584909509
25,25,[-2.55937180e+03  3.43381636e+02 -4.11658300e-03 -1.31641694e+07],305,962.8656012829074
26,26,[-2.82501692e+03  3.42380553e+02 -5.03288005e-03 -1.31641694e+07],762,964.0622492477696
27,27,[-2.78887265e+03  3.42380925e+02 -4.55364534e-03 -1.31641694e+07],207,962.96254465392
28,28,[-2.55059847e+03  3.43381632e+02 -4.01693718e-03 -1.31641694e+07],756,962.5247017473059
29,29,[-2.78472674e+03  3.42380431e+02 -4.67916311e-03 -1.31641694e+07],498,963.5600388581117
30,30,[-2.67166686e+03  3.42380460e+02 -3.99779834e-03 -1.31641694e+07],615,962.3744729844153
31,31,[-2.79582582e+03  3.42380528e+02 -4.71338014e-03 -1.31641694e+07],511,962.2135291289488
32,32,[-2.74635858e+03  3.42380860e+02 -5.08595331e-03 -1.31641694e+07],429,961.6907007931006
33,33,[-2.77391732e+03  3.42380469e+02 -5.09149266e-03 -1.31641694e+07],409,963.1363290858006
34,34,[-2.77017350e+03  3.42380970e+02 -4.93048017e-03 -1.31641694e+07],746,963.8333164157784
35,35,[-2.56183436e+03  3.43381711e+02 -4.22183981e-03 -1.31641694e+07],284,964.1294984676905
36,36,[-2.56717357e+03  3.43381559e+02 -4.26465579e-03 -1.31641694e+07],418,963.9365829754237
37,37,[-2.55976178e+03  3.43381694e+02 -4.15728340e-03 -1.31641694e+07],223,963.9188352491279
38,38,[-2.58843663e+03  3.43381627e+02 -4.27136880e-03 -1.31641694e+07],345,962.8593165830291
39,39,[-2.57693715e+03  3.43381599e+02 -4.62412115e-03 -1.31641694e+07],613,963.2691285696596
40,40,[-2.94944873e+03  3.41379630e+02 -5.62787633e-03 -1.31641694e+07],695,962.9834344954128
41,41,[-2.78650241e+03  3.42380608e+02 -4.84610031e-03 -1.31641694e+07],759,964.4231279781411
42,42,[-2.78491834e+03  3.42380616e+02 -4.78632962e-03 -1.31641694e+07],612,964.1430220643496
43,43,[-2.80577837e+03  3.42380443e+02 -4.71743266e-03 -1.31641694e+07],362,963.1498346791217
44,44,[-2.54826813e+03  3.43382230e+02 -4.12788118e-03 -1.31641694e+07],366,962.6304430833608
45,45,[-2.71489601e+03  3.42380717e+02 -5.67639292e-03 -1.31641694e+07],526,962.7736808418034
46,46,[-2.70559386e+03  3.42380733e+02 -5.85103662e-03 -1.31641694e+07],635,963.0147262020032
47,47,[-2.54625700e+03  3.43381773e+02 -4.46841535e-03 -1.31641694e+07],456,963.6037960061194
48,48,[-2.57807362e+03  3.43381910e+02 -4.37096763e-03 -1.31641694e+07],492,964.123628943018
49,49,[-2.82612450e+03  3.42380781e+02 -5.07257187e-03 -1.31641694e+07],565,963.7028037010156
50,50,[-2.67264433e+03  3.42380653e+02 -4.36914347e-03 -1.31641694e+07],385,963.1708476036854
51,51,[-2.55748161e+03  3.43381609e+02 -4.12245738e-03 -1.31641694e+07],574,963.5675833937437
52,52,[-2.57708025e+03  3.43381936e+02 -4.16021419e-03 -1.31641694e+07],333,962.4301772046451
53,53,[-2.67038173e+03  3.42380545e+02 -4.18194213e-03 -1.31641694e+07],545,961.8606318798603
54,54,[-2.67781595e+03  3.42380513e+02 -4.16627656e-03 -1.31641694e+07],769,962.6859208514511
55,55,[-2.70237920e+03  3.42380806e+02 -3.98144414e-03 -1.31641694e+07],367,961.0349185274038
56,56,[-2.79793028e+03  3.42380936e+02 -4.65179894e-03 -1.31641694e+07],566,962.275840071938
57,57,[-2.55130281e+03  3.43381574e+02 -4.11138859e-03 -1.31641694e+07],246,962.8244555371834
58,58,[-2.53762122e+03  3.43381574e+02 -4.25453153e-03 -1.31641694e+07],480,962.6273699622662
59,59,[-2.68318339e+03  3.42381180e+02 -5.71879531e-03 -1.31641694e+07],388,962.3933359396485
60,60,[-2.63692113e+03  3.42380567e+02 -5.26865759e-03 -1.31641694e+07],312,962.1694273556438
61,61,[-2.71897902e+03  3.42380497e+02 -6.17541616e-03 -1.31641694e+07],496,961.9372265583676
62,62,[-2.73133934e+03  3.42381112e+02 -5.57889921e-03 -1.31641694e+07],647,964.3281930899368
63,63,[-2.70711462e+03  3.42380428e+02 -5.16973591e-03 -1.31641694e+07],466,964.3701546234589
64,64,[-2.80956240e+03  3.42380445e+02 -5.55227368e-03 -1.31641694e+07],514,962.8751395961219
65,65,[-2.73700484e+03  3.42380578e+02 -5.19021687e-03 -1.31641694e+07],355,962.0317645406677
66,66,[-2.57767100e+03  3.43381984e+02 -4.21258421e-03 -1.31641694e+07],531,962.2030239753758
67,67,[-2.59358415e+03  3.43381738e+02 -4.38463448e-03 -1.31641694e+07],453,961.7416746806581
68,68,[-2.81481438e+03  3.42380530e+02 -4.65856738e-03 -1.31641694e+07],170,962.4803284768475
69,69,[-2.81481827e+03  3.42380881e+02 -4.66036424e-03 -1.31641694e+07],727,961.9970800232794
70,70,[-2.56851573e+03  3.43381656e+02 -4.25888869e-03 -1.31641694e+07],723,963.7266837709043
71,71,[-2.79861966e+03  3.42381125e+02 -4.52840788e-03 -1.31641694e+07],794,963.8859904639518
72,72,[-2.83264425e+03  3.42380494e+02 -4.72915941e-03 -1.31641694e+07],795,963.0761421030695
73,73,[-2.57288193e+03  3.43381674e+02 -4.41028826e-03 -1.31641694e+07],315,962.1861250278221
74,74,[-2.58548936e+03  3.43381921e+02 -4.54812323e-03 -1.31641694e+07],316,963.2690358478384
75,75,[-2.70761942e+03  3.42380752e+02 -5.72243701e-03 -1.31641694e+07],622,963.3038273532826
76,76,[-2.71927800e+03  3.42380469e+02 -6.08724512e-03 -1.31641694e+07],793,962.6721069697464
77,77,[-2.64852679e+03  3.42380581e+02 -4.98488660e-03 -1.31641694e+07],243,963.0582976436822
78,78,[-2.60288326e+03  3.43381967e+02 -4.58308234e-03 -1.31641694e+07],729,964.2494050841732
79,79,[-2.63162875e+03  3.43381665e+02 -4.88425346e-03 -1.31641694e+07],786,963.4584390666546
80,80,[-2.71221480e+03  3.42380471e+02 -4.30778875e-03 -1.31641694e+07],652,961.9006405906474
81,81,[-2.67215625e+03  3.42381072e+02 -4.40983457e-03 -1.31641694e+07],253,962.5892922048685
82,82,[-2.80284093e+03  3.42380733e+02 -4.99687119e-03 -1.31641694e+07],282,963.3855855634822
83,83,[-2.56505910e+03  3.43381542e+02 -4.11659130e-03 -1.31641694e+07],774,962.8861989991402
84,84,[-2.56118528e+03  3.43382058e+02 -4.17704875e-03 -1.31641694e+07],527,963.112627331007
85,85,[-2.56385546e+03  3.43381569e+02 -4.20057573e-03 -1.31641694e+07],373,963.6502268307727
86,86,[-2.54570348e+03  3.43381539e+02 -3.90207406e-03 -1.31641694e+07],636,963.1620655396953
87,87,[-2.82655258e+03  3.42380468e+02 -5.01439464e-03 -1.31641694e+07],411,962.5535986208744
88,88,[-2.57976599e+03  3.43381744e+02 -4.64531559e-03 -1.31641694e+07],542,963.3743956445526
89,89,[-2.64244451e+03  3.42380693e+02 -5.32581482e-03 -1.31641694e+07],142,963.4043317340479
90,90,[-2.71360790e+03  3.42380638e+02 -5.81103141e-03 -1.31641694e+07],324,963.0575384285889
91,91,[-2.55230115e+03  3.43381584e+02 -4.40512580e-03 -1.31641694e+07],655,964.1946106629642
92,92,[-2.60853566e+03  3.43381611e+02 -4.60087604e-03 -1.31641694e+07],434,964.6141334766885
93,93,[-2.60591040e+03  3.43381663e+02 -4.53670364e-03 -1.31641694e+07],554,964.3117963901533
94,94,[-2.61080175e+03  3.43381662e+02 -4.69563108e-03 -1.31641694e+07],650,963.8687827050765
95,95,[-2.58216209e+03  3.43382240e+02 -4.36956514e-03 -1.31641694e+07],528,963.2357866023714
96,96,[-2.69912606e+03  3.42380798e+02 -4.63977952e-03 -1.31641694e+07],141,962.8621396667235
97,97,[-2.55296838e+03  3.43381642e+02 -4.33937277e-03 -1.31641694e+07],497,963.0145662503385
98,98,[-2.56001893e+03  3.43381602e+02 -5.00355210e-03 -1.31641694e+07],770,961.6768082329992
99,99,[-2.37847646e+03  3.44383393e+02 -4.35988711e-03 -1.31641694e+07],504,962.5659976467352
100,100,[-2.38292017e+03  3.44383185e+02 -4.36723495e-03 -1.31641694e+07],476,963.6660289090119
101,101,[-2.36853868e+03  3.44382678e+02 -4.07823877e-03 -1.31641694e+07],439,964.0558581513498
102,102,[-2.57226868e+03  3.43381800e+02 -4.47262140e-03 -1.31641694e+07],602,964.691081677265
103,103,[-2.59674394e+03  3.43381978e+02 -4.59763583e-03 -1.31641694e+07],530,964.7608994100154
104,104,[-2.75834169e+03  3.42380881e+02 -5.26020306e-03 -1.31641694e+07],683,964.4348789692398
105,105,[-2.70020454e+03  3.42380640e+02 -4.52882863e-03 -1.31641694e+07],372,963.8600464149652
106,106,[-2.59288962e+03  3.43381691e+02 -4.45966350e-03 -1.31641694e+07],157,963.8613264679078
107,107,[-2.82981596e+03  3.42380510e+02 -4.81419562e-03 -1.31641694e+07],632,962.761402369295
108,108,[-2.56281102e+03  3.43381616e+02 -4.11047856e-03 -1.31641694e+07],614,963.7120703573262
109,109,[-2.79627758e+03  3.42380583e+02 -4.92975321e-03 -1.31641694e+07],386,964.4199009136836
110,110,[-2.69538435e+03  3.42380631e+02 -4.13308461e-03 -1.31641694e+07],611,963.4889954443454
111,111,[-2.55590884e+03  3.43381795e+02 -4.05166316e-03 -1.31641694e+07],473,963.716588801331
112,112,[-2.57211971e+03  3.43382198e+02 -4.35877355e-03 -1.31641694e+07],645,964.3667354241437
113,113,[-2.53112722e+03  3.43382287e+02 -4.41554519e-03 -1.31641694e+07],397,963.2758889754433
114,114,[-2.65321915e+03  3.42381022e+02 -5.14565983e-03 -1.31641694e+07],670,963.3723659794038
115,115,[-2.69916407e+03  3.42380867e+02 -5.22555638e-03 -1.31641694e+07],356,964.3904025782554
116,116,[-2.75926676e+03  3.42380795e+02 -5.62584331e-03 -1.31641694e+07],208,964.764596415853
117,117,[-2.78693290e+03  3.42381146e+02 -5.73327480e-03 -1.31641694e+07],518,964.757431756518
118,118,[-2.78551742e+03  3.42380712e+02 -5.79381742e-03 -1.31641694e+07],634,964.7702280910408
119,119,[-2.80267309e+03  3.42380848e+02 -6.12629849e-03 -1.31641694e+07],781,963.5487092831347
120,120,[-2.74619762e+03  3.42381121e+02 -5.01886654e-03 -1.31641694e+07],596,963.7342643409811
121,121,[-2.59686476e+03  3.43381722e+02 -4.54391376e-03 -1.31641694e+07],787,963.7879794085563
122,122,[-2.58814246e+03  3.43381842e+02 -4.46879595e-03 -1.31641694e+07],271,963.2441883992788
123,123,[-2.73097195e+03  3.42380535e+02 -4.51087945e-03 -1.31641694e+07],772,963.0819883406654
124,124,[-2.71337439e+03  3.42380578e+02 -4.26489949e-03 -1.31641694e+07],454,962.3920231110667
125,125,[-2.56891809e+03  3.43381598e+02 -4.37203859e-03 -1.31641694e+07],211,963.540807941882
126,126,[-2.54858108e+03  3.43381835e+02 -4.27660880e-03 -1.31641694e+07],559,963.6823349733996
127,127,[-2.64610108e+03  3.42380452e+02 -5.02342443e-03 -1.31641694e+07],536,962.6255930683694
128,128,[-2.67546523e+03  3.42380916e+02 -5.50569966e-03 -1.31641694e+07],535,964.1854923939436
129,129,[-2.74367637e+03  3.42380741e+02 -5.43530820e-03 -1.31641694e+07],361,964.6701861490509
130,130,[-2.71232116e+03  3.42381309e+02 -5.13008453e-03 -1.31641694e+07],445,964.4999503020293
131,131,[-2.60060069e+03  3.43381684e+02 -4.70202771e-03 -1.31641694e+07],541,964.2492967895585
132,132,[-2.73701408e+03  3.42380491e+02 -5.26102103e-03 -1.31641694e+07],220,963.5502608310057
133,133,[-2.70781217e+03  3.42380832e+02 -4.89102104e-03 -1.31641694e+07],519,962.4647049384209
134,134,[-2.56844331e+03  3.43382305e+02 -4.25839276e-03 -1.31641694e+07],288,961.5204364306827
135,135,[-2.73180685e+03  3.42380446e+02 -4.60279600e-03 -1.31641694e+07],218,961.4349029866027
136,136,[-2.70697381e+03  3.42380800e+02 -4.52183511e-03 -1.31641694e+07],252,962.5359047463279
137,137,[-2.55150594e+03  3.43381811e+02 -4.33652099e-03 -1.31641694e+07],336,963.6246752173928
138,138,[-2.67229085e+03  3.42381092e+02 -5.33693587e-03 -1.31641694e+07],587,963.5740400629406
139,139,[-2.59010720e+03  3.43381647e+02 -4.94355609e-03 -1.31641694e+07],630,963.6779400325457
140,140,[-2.70239451e+03  3.42380491e+02 -5.52664459e-03 -1.31641694e+07],118,964.2933960751066
141,141,[-2.71789841e+03  3.42380554e+02 -5.39410555e-03 -1.31641694e+07],408,964.8763159210952
142,142,[-2.72512763e+03  3.42380947e+02 -5.19555289e-03 -1.31641694e+07],332,964.8920456956859
143,143,[-2.77735708e+03  3.42380563e+02 -5.85289320e-03 -1.31641694e+07],767,964.6244927419806
144,144,[-2.76490881e+03  3.42380903e+02 -5.39849915e-03 -1.31641694e+07],420,964.6921871489836
145,145,[-2.61063284e+03  3.43381734e+02 -4.88711321e-03 -1.31641694e+07],501,963.6103418166348
146,146,[-2.59997661e+03  3.43381995e+02 -4.35188010e-03 -1.31641694e+07],780,963.2332783821123
147,147,[-2.68055727e+03  3.42380589e+02 -4.65983218e-03 -1.31641694e+07],233,963.1251741811825
148,148,[-2.59150671e+03  3.43381565e+02 -4.52551739e-03 -1.31641694e+07],116,963.8256259845668
149,149,[-2.67999030e+03  3.42380541e+02 -4.93067742e-03 -1.31641694e+07],292,963.8829741314456
150,150,[-2.58434279e+03  3.43381572e+02 -4.29602149e-03 -1.31641694e+07],103,963.6854206487881
151,151,[-2.58911318e+03  3.43381617e+02 -4.46730516e-03 -1.31641694e+07],364,963.388332651595
152,152,[-2.55439757e+03  3.43381636e+02 -4.25096924e-03 -1.31641694e+07],427,964.0871805538839
153,153,[-2.71938165e+03  3.42380497e+02 -5.76450865e-03 -1.31641694e+07],117,964.6005090919059
154,154,[-2.38049171e+03  3.44382688e+02 -4.31538302e-03 -1.31641694e+07],606,962.8097946484426
155,155,[-2.54249527e+03  3.43381816e+02 -4.68384641e-03 -1.31641694e+07],624,963.3033064977661
156,156,[-2.77270965e+03  3.42380610e+02 -6.70317442e-03 -1.31641694e+07],468,963.8396669305365
157,157,[-2.75601336e+03  3.42381113e+02 -5.65304956e-03 -1.31641694e+07],753,964.8509407414235
158,158,[-2.72410557e+03  3.42381009e+02 -5.22428841e-03 -1.31641694e+07],765,964.334916239281
159,159,[-2.78106078e+03  3.42380653e+02 -5.79637291e-03 -1.31641694e+07],754,963.7561261202326
160,160,[-2.72769185e+03  3.42380585e+02 -4.68372484e-03 -1.31641694e+07],646,962.9661786791046
161,161,[-2.74185152e+03  3.42380966e+02 -5.47523315e-03 -1.31641694e+07],691,964.0445322723093
162,162,[-2.73867451e+03  3.42380914e+02 -5.49309167e-03 -1.31641694e+07],339,963.7634487079323
163,163,[-2.69355300e+03  3.42380740e+02 -4.35840135e-03 -1.31641694e+07],306,962.8233251667114
164,164,[-2.71110100e+03  3.42380456e+02 -4.42334646e-03 -1.31641694e+07],357,963.780612063564
165,165,[-2.53510407e+03  3.43382034e+02 -4.28608707e-03 -1.31641694e+07],423,963.5228470991048
166,166,[-2.66181058e+03  3.42381002e+02 -5.30179236e-03 -1.31641694e+07],224,963.90641150542
167,167,[-2.56809115e+03  3.43382261e+02 -4.88774398e-03 -1.31641694e+07],621,963.3283446400823
168,168,[-2.56975968e+03  3.43381567e+02 -4.87672649e-03 -1.31641694e+07],755,964.0948545364653
169,169,[-2.67028858e+03  3.42380509e+02 -5.36317491e-03 -1.31641694e+07],740,964.4793057136322
170,170,[-2.76612869e+03  3.42380857e+02 -5.63665862e-03 -1.31641694e+07],414,964.958125610945
171,171,[-2.81097441e+03  3.42380511e+02 -5.80508923e-03 -1.31641694e+07],406,964.2490984459296
172,172,[-2.73041560e+03  3.42381186e+02 -5.12607484e-03 -1.31641694e+07],259,963.038259232493
173,173,[-2.61847517e+03  3.43381708e+02 -4.88793102e-03 -1.31641694e+07],300,963.5534810228493
174,174,[-2.57687713e+03  3.43381653e+02 -4.66905333e-03 -1.31641694e+07],628,963.7711878998847
175,175,[-2.77581263e+03  3.42380538e+02 -5.51481026e-03 -1.31641694e+07],778,963.1765507820768
176,176,[-2.74883736e+03  3.42380670e+02 -5.24356950e-03 -1.31641694e+07],465,963.4243483656973
177,177,[-2.68612636e+03  3.42380445e+02 -5.03729971e-03 -1.31641694e+07],263,963.6236040685563
178,178,[-2.67933153e+03  3.42380638e+02 -5.13630261e-03 -1.31641694e+07],575,963.4414104554306
179,179,[-2.55526565e+03  3.43381740e+02 -5.22422135e-03 -1.31641694e+07],586,962.8028427224499
180,180,[-2.54153382e+03  3.43381848e+02 -4.79861419e-03 -1.31641694e+07],350,962.8337947647275
181,181,[-2.54813154e+03  3.43381596e+02 -4.64965150e-03 -1.31641694e+07],401,964.0322151861903
182,182,[-2.58334301e+03  3.43381910e+02 -4.65443671e-03 -1.31641694e+07],206,965.2073668552898
183,183,[-2.60027623e+03  3.43382024e+02 -4.77289235e-03 -1.31641694e+07],330,964.2315388159975
184,184,[-2.78761535e+03  3.42380567e+02 -6.06532347e-03 -1.31641694e+07],295,963.9585744120088
185,185,[-2.75117588e+03  3.42380574e+02 -5.48705490e-03 -1.31641694e+07],455,964.6062052192605
186,186,[-2.76373533e+03  3.42380595e+02 -5.86072014e-03 -1.31641694e+07],378,964.3787702516117
187,187,[-2.73941959e+03  3.42380762e+02 -4.66366367e-03 -1.31641694e+07],779,963.092210111817
188,188,[-2.72870940e+03  3.42380673e+02 -4.63392403e-03 -1.31641694e+07],144,963.6910605599558
189,189,[-2.68038509e+03  3.42380463e+02 -5.22897875e-03 -1.31641694e+07],102,963.5702180222241
190,190,[-2.68784293e+03  3.42380456e+02 -5.42103526e-03 -1.31641694e+07],494,964.5923670068763
191,191,[-2.42645329e+03  3.44383265e+02 -4.93967967e-03 -1.31641694e+07],651,963.8851242703665
192,192,[-2.38206375e+03  3.44383427e+02 -4.24980901e-03 -1.31641694e+07],593,963.2513455846598
193,193,[-2.37077051e+03  3.44383000e+02 -4.11803641e-03 -1.31641694e+07],342,963.5398276313457
194,194,[-2.40165051e+03  3.44382679e+02 -4.32655240e-03 -1.31641694e+07],537,964.560563051677
195,195,[-2.59852143e+03  3.43381809e+02 -4.56704815e-03 -1.31641694e+07],399,964.6152996300236
196,196,[-2.58346494e+03  3.43381758e+02 -5.83412872e-03 -1.31641694e+07],341,963.8506933382641
197,197,[-2.45556099e+03  3.44382733e+02 -5.04253784e-03 -1.31641694e+07],758,963.8500543623903
198,198,[-2.61680450e+03  3.43381831e+02 -5.15391704e-03 -1.31641694e+07],517,963.2558298015819
199,199,[-2.77607512e+03  3.42380900e+02 -5.18727346e-03 -1.31641694e+07],442,962.1392057609706
200,200,[-2.57924555e+03  3.43381723e+02 -4.53015901e-03 -1.31641694e+07],365,962.4489370410624
201,201,[-2.76023252e+03  3.42380716e+02 -5.39010997e-03 -1.31641694e+07],571,963.6144853530363
202,202,[-2.72352803e+03  3.42380719e+02 -5.44964441e-03 -1.31641694e+07],472,963.7665911922472
203,203,[-2.39960144e+03  3.44383103e+02 -4.34690122e-03 -1.31641694e+07],529,963.844254955915
204,204,[-2.53218641e+03  3.43381947e+02 -4.52486512e-03 -1.31641694e+07],129,963.7846504452865
205,205,[-2.55644522e+03  3.43382473e+02 -4.67616166e-03 -1.31641694e+07],649,963.9735229934117
206,206,[-2.39776839e+03  3.44382858e+02 -4.31878773e-03 -1.31641694e+07],637,964.7149165034832
207,207,[-2.59704874e+03  3.43381609e+02 -4.80745439e-03 -1.31641694e+07],783,965.0585258629292
208,208,[-2.42525042e+03  3.44382763e+02 -4.56095058e-03 -1.31641694e+07],538,964.8266750582839
209,209,[-2.61205673e+03  3.43381875e+02 -5.13173931e-03 -1.31641694e+07],260,964.5744623664311
210,210,[-2.61214736e+03  3.43381618e+02 -4.88343758e-03 -1.31641694e+07],733,964.5527277943773
211,211,[-2.58584818e+03  3.43381643e+02 -4.73187360e-03 -1.31641694e+07],376,964.8080195921673
212,212,[-2.72066112e+03  3.42380772e+02 -4.79507092e-03 -1.31641694e+07],215,963.1043174560818
213,213,[-2.77221838e+03  3.42380425e+02 -5.36330977e-03 -1.31641694e+07],485,962.5376037525364
214,214,[-2.74574107e+03  3.42380568e+02 -5.40256395e-03 -1.31641694e+07],623,963.7983619730877
215,215,[-2.55985611e+03  3.43382084e+02 -4.60010480e-03 -1.31641694e+07],739,964.6500213688876
216,216,[-2.39377857e+03  3.44382827e+02 -4.36756931e-03 -1.31641694e+07],410,964.5343564705746
217,217,[-2.38828425e+03  3.44383014e+02 -4.34845270e-03 -1.31641694e+07],743,964.3974228028272
218,218,[-2.38805989e+03  3.44383153e+02 -4.22766660e-03 -1.31641694e+07],516,964.7781165664277
219,219,[-2.62228386e+03  3.43382220e+02 -4.89406988e-03 -1.31641694e+07],515,964.3128557806881
220,220,[-2.59438560e+03  3.43381583e+02 -4.67118930e-03 -1.31641694e+07],812,964.7845169737127
221,221,[-2.40013938e+03  3.44383514e+02 -4.27308284e-03 -1.31641694e+07],387,964.5748465416109
222,222,[-2.41941274e+03  3.44382729e+02 -4.66833882e-03 -1.31641694e+07],578,964.5512409491877
223,223,[-2.59316740e+03  3.43381678e+02 -4.70110440e-03 -1.31641694e+07],654,965.04347894396
224,224,[-2.61396344e+03  3.43381656e+02 -4.77839345e-03 -1.31641694e+07],570,964.7434005720246
225,225,[-2.37060075e+03  3.44382688e+02 -3.93166989e-03 -1.31641694e+07],432,963.9009695147633
226,226,[-2.36622922e+03  3.44382941e+02 -3.90958049e-03 -1.31641694e+07],143,962.7743297162854
227,227,[-2.70454547e+03  3.42380921e+02 -4.83067877e-03 -1.31641694e+07],405,963.6542650781365
228,228,[-2.55835023e+03  3.43381639e+02 -4.65393719e-03 -1.31641694e+07],744,964.444242000788
229,229,[-2.37556980e+03  3.44382741e+02 -4.28319080e-03 -1.31641694e+07],603,963.7955524433823
230,230,[-2.57437405e+03  3.43381783e+02 -4.77021030e-03 -1.31641694e+07],286,963.9691004581301
231,231,[-2.55057914e+03  3.43381589e+02 -4.59048834e-03 -1.31641694e+07],353,963.5733660996477
232,232,[-2.58468106e+03  3.43381540e+02 -4.76051359e-03 -1.31641694e+07],291,964.389269371848
233,233,[-2.38227852e+03  3.44382654e+02 -4.10504237e-03 -1.31641694e+07],239,964.7656115639028
234,234,[-2.38391775e+03  3.44382689e+02 -4.09551477e-03 -1.31641694e+07],195,964.4009770258627
235,235,[-2.47028606e+03  3.44382991e+02 -5.26185026e-03 -1.31641694e+07],92,964.3352522159596
236,236,[-2.76245807e+03  3.42380786e+02 -5.18108702e-03 -1.31641694e+07],428,963.7616263954915
237,237,[-2.60415188e+03  3.43381578e+02 -4.51207412e-03 -1.31641694e+07],550,963.9452136427068
238,238,[-2.76352119e+03  3.42380745e+02 -5.41479034e-03 -1.31641694e+07],185,964.1387812853144
239,239,[-2.38221597e+03  3.44382934e+02 -4.23394634e-03 -1.31641694e+07],273,964.6154677997837
240,240,[-2.41115594e+03  3.44382952e+02 -4.77851648e-03 -1.31641694e+07],701,964.3693248890546
241,241,[-2.38683326e+03  3.44382871e+02 -4.22240192e-03 -1.31641694e+07],153,963.9401127013537
242,242,[-2.37636335e+03  3.44383379e+02 -4.18370977e-03 -1.31641694e+07],488,964.2282977679096
243,243,[-2.59941468e+03  3.43382416e+02 -4.68525913e-03 -1.31641694e+07],449,964.9366542959374
244,244,[-2.63755973e+03  3.43381940e+02 -5.15323259e-03 -1.31641694e+07],474,964.5354689840848
245,245,[-2.41963021e+03  3.44382786e+02 -4.62506989e-03 -1.31641694e+07],594,965.107245507772
246,246,[-2.41285828e+03  3.44383195e+02 -4.38512636e-03 -1.31641694e+07],707,964.9880007212806
247,247,[-2.62094293e+03  3.43381868e+02 -4.91140087e-03 -1.31641694e+07],761,963.1293340336132
248,248,[-2.58718900e+03  3.43382387e+02 -4.45404327e-03 -1.31641694e+07],190,963.4616304235378
249,249,[-2.71323868e+03  3.42380663e+02 -4.80425321e-03 -1.31641694e+07],438,962.9592744264774
250,250,[-2.56990962e+03  3.43381593e+02 -4.68001753e-03 -1.31641694e+07],327,964.580324349017
251,251,[-2.59847869e+03  3.43381788e+02 -4.91611865e-03 -1.31641694e+07],626,964.26349568752
252,252,[-2.75239076e+03  3.42380641e+02 -5.64349699e-03 -1.31641694e+07],513,964.7758439581046
253,253,[-2.61334946e+03  3.43381735e+02 -5.88879901e-03 -1.31641694e+07],561,964.922060620154
254,254,[-2.38464375e+03  3.44382897e+02 -4.16843194e-03 -1.31641694e+07],433,964.344786900148
255,255,[-2.61349654e+03  3.43381627e+02 -5.16572913e-03 -1.31641694e+07],533,964.3724722603639
256,256,[-2.37490681e+03  3.44383298e+02 -3.97360592e-03 -1.31641694e+07],250,964.1660898920262
257,257,[-2.74815778e+03  3.42381511e+02 -5.27430620e-03 -1.31641694e+07],608,964.3250743641013
258,258,[-2.38090172e+03  3.44383010e+02 -4.21994937e-03 -1.31641694e+07],221,964.5640471878746
259,259,[-2.37638385e+03  3.44382650e+02 -4.17730473e-03 -1.31641694e+07],209,964.7347399760046
260,260,[-2.40515985e+03  3.44382728e+02 -4.38372248e-03 -1.31641694e+07],716,964.6582058267886
261,261,[-2.62605710e+03  3.43381561e+02 -5.20391618e-03 -1.31641694e+07],682,964.1911089483242
262,262,[-2.38648097e+03  3.44382977e+02 -4.20098752e-03 -1.31641694e+07],791,964.2595903531549
263,263,[-2.39343093e+03  3.44382765e+02 -4.23665343e-03 -1.31641694e+07],258,964.7252110719968
264,264,[-2.59830914e+03  3.43381828e+02 -4.61930840e-03 -1.31641694e+07],407,963.1678534079573
265,265,[-2.59632038e+03  3.43382126e+02 -4.62718566e-03 -1.31641694e+07],443,962.7272637643025
266,266,[-2.59004960e+03  3.43381700e+02 -4.70547598e-03 -1.31641694e+07],194,964.3323647694883
267,267,[-2.39352824e+03  3.44383131e+02 -4.30427828e-03 -1.31641694e+07],752,964.3426226408083
268,268,[-2.38761900e+03  3.44382711e+02 -4.35227027e-03 -1.31641694e+07],310,963.9428469711903
269,269,[-2.39034718e+03  3.44382819e+02 -4.36121576e-03 -1.31641694e+07],552,963.8807102870418
270,270,[-2.57662074e+03  3.43381644e+02 -4.70912514e-03 -1.31641694e+07],210,964.0955461762849
271,271,[-2.58384492e+03  3.43381539e+02 -4.58289700e-03 -1.31641694e+07],446,964.8191267833041
272,272,[-2.43444050e+03  3.44383319e+02 -4.53617946e-03 -1.31641694e+07],222,963.8647606074096
273,273,[-2.59689843e+03  3.43381896e+02 -5.88278637e-03 -1.31641694e+07],620,964.6048106999576
274,274,[-2.73042491e+03  3.42380543e+02 -4.94258765e-03 -1.31641694e+07],532,964.1044967724259
275,275,[-2.71713186e+03  3.42380436e+02 -4.55591127e-03 -1.31641694e+07],856,963.3679548471537
276,276,[-2.74565850e+03  3.42380612e+02 -5.51278776e-03 -1.31641694e+07],747,964.0443547235379
277,277,[-2.39999812e+03  3.44382743e+02 -4.41804768e-03 -1.31641694e+07],334,964.212710302571
278,278,[-2.41669143e+03  3.44383893e+02 -4.80099757e-03 -1.31641694e+07],475,963.6308697124978
279,279,[-2.59703674e+03  3.43381606e+02 -4.97583718e-03 -1.31641694e+07],346,964.1022784449341
280,280,[-2.39786306e+03  3.44382781e+02 -4.30816255e-03 -1.31641694e+07],741,964.4070001995639
281,281,[-2.39701156e+03  3.44382830e+02 -4.30614502e-03 -1.31641694e+07],724,964.4693261411624
282,282,[-2.40268620e+03  3.44383000e+02 -4.29583783e-03 -1.31641694e+07],349,964.9117752651729
283,283,[-2.64255075e+03  3.43381907e+02 -5.27537820e-03 -1.31641694e+07],244,964.0095090752823
284,284,[-2.40193089e+03  3.44382727e+02 -4.24599332e-03 -1.31641694e+07],435,965.0457712583319
285,285,[-2.76910875e+03  3.42380484e+02 -5.03366183e-03 -1.31641694e+07],457,963.6137762574594
286,286,[-2.60715419e+03  3.43381756e+02 -4.81583798e-03 -1.31641694e+07],216,964.6184299008502
287,287,[-2.39973841e+03  3.44383043e+02 -4.30339033e-03 -1.31641694e+07],867,964.4879149758808
288,288,[-2.39793010e+03  3.44383017e+02 -4.33138735e-03 -1.31641694e+07],479,964.7785690783879
289,289,[-2.39762097e+03  3.44382743e+02 -4.32466595e-03 -1.31641694e+07],684,964.3238595398144
290,290,[-2.43671585e+03  3.44382811e+02 -4.94560494e-03 -1.31641694e+07],398,963.8401167248043
291,291,[-2.59517795e+03  3.43381661e+02 -4.66887570e-03 -1.31641694e+07],354,964.6156474973307
292,292,[-2.41328870e+03  3.44383187e+02 -4.38848362e-03 -1.31641694e+07],329,964.7637843029612
293,293,[-2.62380551e+03  3.43381583e+02 -5.04604570e-03 -1.31641694e+07],742,964.1590433468398
294,294,[-2.37946962e+03  3.44382738e+02 -4.14134236e-03 -1.31641694e+07],380,964.4721281878475
295,295,[-2.57393634e+03  3.43381699e+02 -4.55841148e-03 -1.31641694e+07],773,964.712359687074
296,296,[-2.60440456e+03  3.43381544e+02 -4.68216022e-03 -1.31641694e+07],627,964.4414590114936
297,297,[-2.56667777e+03  3.43382039e+02 -4.18212497e-03 -1.31641694e+07],564,963.3906162452938
298,298,[-2.71898754e+03  3.42381336e+02 -5.03142077e-03 -1.31641694e+07],560,963.9182091586354
299,299,[-2.70702066e+03  3.42380968e+02 -5.24580247e-03 -1.31641694e+07],377,965.1670404133187
300,300,[-2.39363030e+03  3.44382895e+02 -4.35175592e-03 -1.31641694e+07],666,964.7333294590221
301,301,[-2.55362785e+03  3.43382013e+02 -4.79888882e-03 -1.31641694e+07],631,964.2844200949228
302,302,[-2.56559296e+03  3.43382095e+02 -4.61335224e-03 -1.31641694e+07],130,963.2614262039752
303,303,[-2.38030425e+03  3.44383272e+02 -4.16560279e-03 -1.31641694e+07],335,964.0813380231059
304,304,[-2.62046241e+03  3.43381947e+02 -5.03212864e-03 -1.31641694e+07],766,964.4161542360076
305,305,[-2.40304723e+03  3.44383027e+02 -4.28668528e-03 -1.31641694e+07],609,965.0696227460218
306,306,[-2.39015014e+03  3.44383010e+02 -4.23366970e-03 -1.31641694e+07],287,964.7477507912547
307,307,[-2.39390376e+03  3.44383546e+02 -4.24127046e-03 -1.31641694e+07],311,965.1674480936344
308,308,[-2.59614250e+03  3.43381853e+02 -4.55584161e-03 -1.31641694e+07],569,964.4807133478847
309,309,[-2.38767399e+03  3.44383157e+02 -4.11477411e-03 -1.31641694e+07],441,964.2058622890635
310,310,[-2.74619357e+03  3.42380642e+02 -5.59661691e-03 -1.31641694e+07],308,964.5585724851699
311,311,[-2.40262479e+03  3.44382910e+02 -4.41842345e-03 -1.31641694e+07],732,964.4868767773107
312,312,[-2.39012817e+03  3.44382756e+02 -4.32528994e-03 -1.31641694e+07],169,964.9745692433861
313,313,[-2.38734633e+03  3.44382730e+02 -4.36810737e-03 -1.31641694e+07],486,964.2728795753243
314,314,[-2.61436658e+03  3.43382457e+02 -5.12262318e-03 -1.31641694e+07],714,964.1070439624967
315,315,[-2.39171258e+03  3.44382683e+02 -4.24846379e-03 -1.31641694e+07],294,964.942184086774
316,316,[-2.39912574e+03  3.44382677e+02 -4.29766991e-03 -1.31641694e+07],719,964.9384071343161
317,317,[-2.37731004e+03  3.44383552e+02 -4.00841727e-03 -1.31641694e+07],281,964.3259902017899
318,318,[-2.56322269e+03  3.43381768e+02 -4.18210793e-03 -1.31641694e+07],400,963.6654039152088
319,319,[-2.70029910e+03  3.42380654e+02 -5.20237264e-03 -1.31641694e+07],600,964.3614466215657
320,320,[-2.37352321e+03  3.44382652e+02 -4.24443223e-03 -1.31641694e+07],731,963.9655495124761
321,321,[-2.37467989e+03  3.44383015e+02 -4.30028227e-03 -1.31641694e+07],693,964.3479775611987
322,322,[-2.37573346e+03  3.44382942e+02 -4.21636710e-03 -1.31641694e+07],228,963.8306189068387
323,323,[-2.40111552e+03  3.44382722e+02 -4.43807653e-03 -1.31641694e+07],296,964.3105172968596
324,324,[-2.39079470e+03  3.44382684e+02 -4.22131241e-03 -1.31641694e+07],617,964.8917825965065
325,325,[-2.40457031e+03  3.44382659e+02 -4.32043343e-03 -1.31641694e+07],658,965.1447907240228
326,326,[-2.72815630e+03  3.42380995e+02 -4.58541611e-03 -1.31641694e+07],447,964.1215378246683
327,327,[-2.57096983e+03  3.43382496e+02 -4.50608778e-03 -1.31641694e+07],478,964.5893947606368
328,328,[-2.66612155e+03  3.42380464e+02 -5.01040165e-03 -1.31641694e+07],104,963.847343101825
329,329,[-2.40524578e+03  3.44382737e+02 -4.40275174e-03 -1.31641694e+07],730,964.5195847664721
330,330,[-2.38232009e+03  3.44383353e+02 -4.33005480e-03 -1.31641694e+07],352,964.7123652300988
331,331,[-2.37634496e+03  3.44383065e+02 -4.20816728e-03 -1.31641694e+07],477,963.7194835405885
332,332,[-2.39705428e+03  3.44383167e+02 -4.30613226e-03 -1.31641694e+07],507,964.7684129342981
333,333,[-2.41372169e+03  3.44383003e+02 -4.52211916e-03 -1.31641694e+07],710,965.0072723722401
334,334,[-2.43206178e+03  3.44382820e+02 -4.61961476e-03 -1.31641694e+07],41,964.5442618645535
335,335,[-2.42804035e+03  3.44383088e+02 -4.53709011e-03 -1.31641694e+07],109,964.4985339266044
336,336,[-2.58439200e+03  3.43381951e+02 -4.44702032e-03 -1.31641694e+07],583,964.775638228787
337,337,[-2.68035283e+03  3.42380489e+02 -4.64196304e-03 -1.31641694e+07],304,963.4632982583834
338,338,[-2.40816499e+03  3.44382763e+02 -4.40162671e-03 -1.31641694e+07],697,963.6439061377088
339,339,[-2.39762461e+03  3.44382655e+02 -4.31015819e-03 -1.31641694e+07],553,964.7483122348789
340,340,[-2.40634136e+03  3.44382724e+02 -4.51482340e-03 -1.31641694e+07],580,964.2261373213776
341,341,[-2.37765907e+03  3.44382686e+02 -4.19222720e-03 -1.31641694e+07],703,964.6823383726892
342,342,[-2.41786689e+03  3.44382862e+02 -4.44455740e-03 -1.31641694e+07],347,964.6879922206708
343,343,[-2.45531100e+03  3.44382691e+02 -5.04482563e-03 -1.31641694e+07],422,964.0859285822403
344,344,[-2.41165938e+03  3.44383020e+02 -4.34880156e-03 -1.31641694e+07],280,965.0958366061083
345,345,[-2.41881139e+03  3.44383245e+02 -4.63916031e-03 -1.31641694e+07],751,965.0423728735178
346,346,[-2.42951389e+03  3.44382898e+02 -4.74491887e-03 -1.31641694e+07],437,964.541820355989
347,347,[-2.40771191e+03  3.44383306e+02 -4.34426567e-03 -1.31641694e+07],618,964.4120666886495
348,348,[-2.80867080e+03  3.42380677e+02 -5.41602220e-03 -1.31641694e+07],234,962.8570977322614
349,349,[-2.72167330e+03  3.42381061e+02 -5.25065622e-03 -1.31641694e+07],543,964.5366772727748
350,350,[-2.56530600e+03  3.43381746e+02 -4.72126043e-03 -1.31641694e+07],662,964.7156524030707
351,351,[-2.38008692e+03  3.44382673e+02 -4.28424930e-03 -1.31641694e+07],491,964.3505454098567
352,352,[-2.56151421e+03  3.43381678e+02 -4.74534201e-03 -1.31641694e+07],217,964.4307794745529
353,353,[-2.39177577e+03  3.44383107e+02 -4.35727235e-03 -1.31641694e+07],368,964.6170890504109
354,354,[-2.61261705e+03  3.43381822e+02 -4.84060872e-03 -1.31641694e+07],639,964.5226651739646
355,355,[-2.39079278e+03  3.44382743e+02 -4.23515252e-03 -1.31641694e+07],115,964.9611464732544
356,356,[-2.39744670e+03  3.44383104e+02 -4.34619437e-03 -1.31641694e+07],934,964.8320544251077
357,357,[-2.57453362e+03  3.43381733e+02 -4.53070076e-03 -1.31641694e+07],768,964.7456097680551
358,358,[-2.61430978e+03  3.43382268e+02 -4.89510050e-03 -1.31641694e+07],232,963.779702690492
359,359,[-2.75975713e+03  3.42380818e+02 -5.20684911e-03 -1.31641694e+07],726,963.7838311347541
360,360,[-2.60218355e+03  3.43381648e+02 -4.67266772e-03 -1.31641694e+07],599,964.2664107463951
361,361,[-2.67768819e+03  3.42380712e+02 -5.07364196e-03 -1.31641694e+07],419,964.7920298178688
362,362,[-2.56880841e+03  3.43381558e+02 -4.73802567e-03 -1.31641694e+07],500,965.0253849361858
363,363,[-2.41647581e+03  3.44382653e+02 -4.68535582e-03 -1.31641694e+07],363,964.3795497557714
364,364,[-2.57860418e+03  3.43382005e+02 -4.66878967e-03 -1.31641694e+07],711,964.7582346106575
365,365,[-2.61981196e+03  3.43381552e+02 -5.08544036e-03 -1.31641694e+07],186,964.6780657953904
366,366,[-2.40401513e+03  3.44382737e+02 -4.34817136e-03 -1.31641694e+07],750,965.024985139657
367,367,[-2.61362335e+03  3.43381804e+02 -4.88393031e-03 -1.31641694e+07],255,964.9957254571073
368,368,[-2.61840118e+03  3.43381545e+02 -5.07773401e-03 -1.31641694e+07],63,964.3949027249269
369,369,[-2.76533268e+03  3.42380846e+02 -5.50705542e-03 -1.31641694e+07],835,964.0289337937292
370,370,[-2.57675562e+03  3.43381630e+02 -4.25517695e-03 -1.31641694e+07],503,963.5107001000546
371,371,[-2.74724440e+03  3.42381117e+02 -5.35252694e-03 -1.31641694e+07],240,964.0362059182188
372,372,[-2.70746792e+03  3.42380874e+02 -5.49341653e-03 -1.31641694e+07],495,964.85109987944
373,373,[-2.56078476e+03  3.43381821e+02 -4.65680788e-03 -1.31641694e+07],524,964.9024443636673
374,374,[-2.67129438e+03  3.42380584e+02 -4.91238389e-03 -1.31641694e+07],112,965.128710258549
375,375,[-2.71949296e+03  3.42380880e+02 -5.29525239e-03 -1.31641694e+07],505,965.2955540687881
376,376,[-2.61935241e+03  3.43381992e+02 -4.90030875e-03 -1.31641694e+07],319,964.6559648911135
377,377,[-2.77032503e+03  3.42380639e+02 -6.14010837e-03 -1.31641694e+07],585,964.5102775561571
378,378,[-2.70711631e+03  3.42381247e+02 -5.09674178e-03 -1.31641694e+07],792,964.7035411955426
379,379,[-2.72427941e+03  3.42380768e+02 -4.77235134e-03 -1.31641694e+07],460,964.0384766960733
380,380,[-2.56551318e+03  3.43381944e+02 -4.46565947e-03 -1.31641694e+07],351,964.5171695009413
381,381,[-2.37050543e+03  3.44382809e+02 -4.16157261e-03 -1.31641694e+07],607,963.8386469805035
382,382,[-2.36922666e+03  3.44382768e+02 -4.25381903e-03 -1.31641694e+07],677,963.6402081740498
383,383,[-2.39829452e+03  3.44383186e+02 -4.50278360e-03 -1.31641694e+07],816,963.3906397955058
384,384,[-2.40076628e+03  3.44383140e+02 -4.39385319e-03 -1.31641694e+07],321,963.9469278975586
385,385,[-2.38850464e+03  3.44383160e+02 -4.19312839e-03 -1.31641694e+07],512,965.0133730162672
386,386,[-2.62856112e+03  3.43381743e+02 -6.03614915e-03 -1.31641694e+07],254,964.8463367854138
387,387,[-2.44389543e+03  3.44382672e+02 -4.88242340e-03 -1.31641694e+07],267,964.6358600995154
388,388,[-2.39892504e+03  3.44382721e+02 -4.29195403e-03 -1.31641694e+07],923,964.980873187889
389,389,[-2.38023601e+03  3.44382822e+02 -4.15131114e-03 -1.31641694e+07],598,964.3398359809871
390,390,[-2.38304417e+03  3.44382780e+02 -4.15222760e-03 -1.31641694e+07],389,964.2720083094272
391,391,[-2.74470603e+03  3.42380634e+02 -4.97993371e-03 -1.31641694e+07],235,963.5870571318068
392,392,[-2.74804145e+03  3.42380786e+02 -4.99323135e-03 -1.31641694e+07],158,962.6490280085393
393,393,[-2.37700297e+03  3.44383476e+02 -4.17423981e-03 -1.31641694e+07],266,963.0763767537287
394,394,[-2.38697355e+03  3.44382828e+02 -4.40164637e-03 -1.31641694e+07],656,964.0910326606651
395,395,[-2.40837660e+03  3.44383241e+02 -4.94122490e-03 -1.31641694e+07],461,963.5987678697197
396,396,[-2.37020713e+03  3.44382743e+02 -4.13162149e-03 -1.31641694e+07],62,963.4555555003707
397,397,[-2.39771164e+03  3.44382843e+02 -4.30051561e-03 -1.31641694e+07],317,964.8368082426198
398,398,[-2.61984790e+03  3.43381806e+02 -4.95670084e-03 -1.31641694e+07],764,964.5284281821049
399,399,[-2.39560198e+03  3.44382657e+02 -4.41532988e-03 -1.31641694e+07],257,964.6828898605891
400,400,[-2.39876330e+03  3.44382797e+02 -4.30785724e-03 -1.31641694e+07],289,964.4682586496169
401,401,[-2.42223123e+03  3.44382738e+02 -4.50499620e-03 -1.31641694e+07],572,964.7150953286379
402,402,[-2.38951673e+03  3.44382918e+02 -4.20211226e-03 -1.31641694e+07],619,964.2784013651966
403,403,[-2.56263061e+03  3.43381618e+02 -4.12545439e-03 -1.31641694e+07],796,963.5972179847226
404,404,[-2.58031460e+03  3.43381737e+02 -4.56099330e-03 -1.31641694e+07],471,963.9144947929187
405,405,[-2.38423330e+03  3.44382952e+02 -4.21357371e-03 -1.31641694e+07],219,964.6209572338238
406,406,[-2.38609694e+03  3.44383063e+02 -4.29252265e-03 -1.31641694e+07],93,964.7348975424147
407,407,[-2.39570572e+03  3.44382931e+02 -4.30485859e-03 -1.31641694e+07],323,964.5633258233776
408,408,[-2.60008664e+03  3.43382346e+02 -5.78654744e-03 -1.31641694e+07],720,964.7701996491865
409,409,[-2.59555898e+03  3.43381584e+02 -4.78320689e-03 -1.31641694e+07],521,965.0468187823801
410,410,[-2.61521043e+03  3.43381659e+02 -4.85254536e-03 -1.31641694e+07],745,964.6471426010345
411,411,[-2.57148543e+03  3.43382134e+02 -4.49031095e-03 -1.31641694e+07],487,964.8994123593245
412,412,[-2.72837495e+03  3.42381244e+02 -5.05122136e-03 -1.31641694e+07],728,963.7182876456201
413,413,[-2.37374660e+03  3.44382863e+02 -4.13581945e-03 -1.31641694e+07],140,963.8340375660135
414,414,[-2.55594072e+03  3.43381711e+02 -4.81494786e-03 -1.31641694e+07],592,964.7351794256845
415,415,[-2.57840674e+03  3.43381859e+02 -4.97764065e-03 -1.31641694e+07],301,964.1647922892796
416,416,[-2.60929964e+03  3.43381712e+02 -4.96452092e-03 -1.31641694e+07],713,964.1603281286282
417,417,[-2.59935149e+03  3.43381596e+02 -5.04911040e-03 -1.31641694e+07],499,964.0525562443901
418,418,[-2.41306027e+03  3.44382673e+02 -4.55545605e-03 -1.31641694e+07],482,965.044694177098
419,419,[-2.62249131e+03  3.43381659e+02 -4.98507292e-03 -1.31641694e+07],402,964.3855058319198
420,420,[-2.38471204e+03  3.44382722e+02 -4.08598890e-03 -1.31641694e+07],313,964.7669336016046
421,421,[-2.70482708e+03  3.42380853e+02 -4.82360394e-03 -1.31641694e+07],390,964.0861528422162
422,422,[-2.61488519e+03  3.43381901e+02 -4.80923681e-03 -1.31641694e+07],360,964.4079777274895
423,423,[-2.57892521e+03  3.43382426e+02 -4.81086402e-03 -1.31641694e+07],784,964.7440401439659
424,424,[-2.38637213e+03  3.44382962e+02 -4.26505804e-03 -1.31641694e+07],866,964.1440345637832
425,425,[-2.37629822e+03  3.44382671e+02 -4.18392411e-03 -1.31641694e+07],251,964.037830048604
426,426,[-2.41510406e+03  3.44382708e+02 -4.52937133e-03 -1.31641694e+07],706,963.717895372517
427,427,[-2.57255856e+03  3.43381830e+02 -4.51907668e-03 -1.31641694e+07],458,964.7578265144108
428,428,[-2.58898930e+03  3.43381850e+02 -4.56869488e-03 -1.31641694e+07],262,964.6123012555453
429,429,[-2.39615321e+03  3.44382751e+02 -4.23940090e-03 -1.31641694e+07],577,965.0482714935027
430,430,[-2.72910315e+03  3.42380486e+02 -5.06855291e-03 -1.31641694e+07],481,965.1553472841894
431,431,[-2.76111730e+03  3.42380464e+02 -4.98169231e-03 -1.31641694e+07],721,964.0430274275598
432,432,[-2.40325504e+03  3.44383096e+02 -4.34580136e-03 -1.31641694e+07],78,964.6266560582116
433,433,[-2.38515913e+03  3.44383141e+02 -4.19144448e-03 -1.31641694e+07],131,964.5875604853654
434,434,[-2.59748278e+03  3.43381589e+02 -4.78146116e-03 -1.31641694e+07],171,964.8868450122108
435,435,[-2.59857587e+03  3.43381569e+02 -4.66115664e-03 -1.31641694e+07],440,964.5353564262786
436,436,[-2.73897397e+03  3.42380925e+02 -5.31947394e-03 -1.31641694e+07],913,964.1465742491417
437,437,[-2.76123700e+03  3.42380495e+02 -5.44256895e-03 -1.31641694e+07],653,964.4035760321565
438,438,[-2.58091329e+03  3.43382327e+02 -4.26710962e-03 -1.31641694e+07],709,964.5895557155892
439,439,[-2.70427409e+03  3.42380626e+02 -4.88507834e-03 -1.31641694e+07],183,964.8645438309007
440,440,[-2.61514739e+03  3.43381708e+02 -5.07434572e-03 -1.31641694e+07],242,964.2490180431992
441,441,[-2.38713586e+03  3.44382714e+02 -4.21619851e-03 -1.31641694e+07],676,964.4838850709247
442,442,[-2.72429517e+03  3.42381236e+02 -5.20744999e-03 -1.31641694e+07],340,964.6790410338837
443,443,[-2.38247603e+03  3.44382689e+02 -4.14018364e-03 -1.31641694e+07],648,964.5614895845077
444,444,[-2.61250177e+03  3.43381803e+02 -5.07553137e-03 -1.31641694e+07],484,963.6834089719996
445,445,[-2.59366600e+03  3.43381572e+02 -4.63628665e-03 -1.31641694e+07],675,964.7912539025687
446,446,[-2.74591628e+03  3.42380838e+02 -5.27737405e-03 -1.31641694e+07],692,964.5522124186293
447,447,[-2.76379674e+03  3.42380458e+02 -5.26458126e-03 -1.31641694e+07],896,964.4366522261829
448,448,[-2.69291273e+03  3.42380519e+02 -5.04024303e-03 -1.31641694e+07],506,965.0949826427028
449,449,[-2.71798608e+03  3.42380546e+02 -5.65545712e-03 -1.31641694e+07],277,964.5986466006011
450,450,[-2.39111548e+03  3.44382767e+02 -4.39867964e-03 -1.31641694e+07],502,963.448083194224
451,451,[-2.55449051e+03  3.43382153e+02 -4.71655868e-03 -1.31641694e+07],573,963.7962933221153
452,452,[-2.61094425e+03  3.43381602e+02 -6.09784709e-03 -1.31641694e+07],737,958.273096939649
453,453,[-2.40666465e+03  3.44383220e+02 -4.29896983e-03 -1.31641694e+07],309,964.9586801796453
454,454,[-2.39639390e+03  3.44382725e+02 -4.17465927e-03 -1.31641694e+07],884,964.809459536993
455,455,[-2.41825885e+03  3.44382786e+02 -4.43786574e-03 -1.31641694e+07],588,964.7082597355893
456,456,[-2.61462110e+03  3.43381817e+02 -4.90364102e-03 -1.31641694e+07],489,965.0193581606511
457,457,[-2.39542200e+03  3.44383122e+02 -4.25731261e-03 -1.31641694e+07],906,964.5349716663208
458,458,[-2.37614118e+03  3.44382681e+02 -4.02164500e-03 -1.31641694e+07],876,964.2609256596261
459,459,[-2.37721807e+03  3.44382723e+02 -4.02852489e-03 -1.31641694e+07],91,964.0214023200296
460,460,[-2.75878179e+03  3.42380796e+02 -5.62913690e-03 -1.31641694e+07],704,964.3522754017894
461,461,[-2.57063249e+03  3.43381746e+02 -4.76932464e-03 -1.31641694e+07],798,964.3283316421225
462,462,[-2.37376244e+03  3.44383494e+02 -4.10733048e-03 -1.31641694e+07],960,964.0122886421548
463,463,[-2.37860118e+03  3.44382961e+02 -4.18915050e-03 -1.31641694e+07],261,962.3950113755025
464,464,[-2.60604046e+03  3.43381713e+02 -5.06217141e-03 -1.31641694e+07],493,963.7438578916929
465,465,[-2.39229608e+03  3.44382961e+02 -4.19529542e-03 -1.31641694e+07],688,964.7281312153244
466,466,[-2.39503717e+03  3.44382677e+02 -4.25119861e-03 -1.31641694e+07],128,964.9652077519982
467,467,[-2.40511370e+03  3.44383018e+02 -4.30686553e-03 -1.31641694e+07],19,965.1673023692372
468,468,[-2.60395130e+03  3.43381877e+02 -4.69278687e-03 -1.31641694e+07],508,964.7561593431286
469,469,[-2.60908882e+03  3.43381666e+02 -4.82486268e-03 -1.31641694e+07],717,963.7986170739107
470,470,[-2.36965816e+03  3.44382704e+02 -3.91802948e-03 -1.31641694e+07],712,963.4226463563346
471,471,[-2.38767522e+03  3.44382792e+02 -4.16715709e-03 -1.31641694e+07],667,964.315177608228
472,472,[-2.38187170e+03  3.44383353e+02 -4.16021398e-03 -1.31641694e+07],256,964.6707654221731
473,473,[-2.38265942e+03  3.44383138e+02 -4.20961296e-03 -1.31641694e+07],415,964.8425899286408
474,474,[-2.57689673e+03  3.43381627e+02 -4.66287051e-03 -1.31641694e+07],690,964.5979320731768
475,475,[-2.73031836e+03  3.42380816e+02 -5.11342484e-03 -1.31641694e+07],416,964.5421776082167
476,476,[-2.40017892e+03  3.44382865e+02 -4.41614265e-03 -1.31641694e+07],293,964.8683046475209
477,477,[-2.61768140e+03  3.43382143e+02 -5.07434924e-03 -1.31641694e+07],725,964.4274729389806
478,478,[-2.59998842e+03  3.43382166e+02 -4.60600798e-03 -1.31641694e+07],642,964.4362591627113
479,479,[-2.72821497e+03  3.42380429e+02 -4.94509745e-03 -1.31641694e+07],436,964.5308890646619
480,480,[-2.73577695e+03  3.42380670e+02 -5.06344158e-03 -1.31641694e+07],424,964.9820574495973
481,481,[-2.57711070e+03  3.43381803e+02 -4.92769692e-03 -1.31641694e+07],540,964.2532090020654
482,482,[-2.59169057e+03  3.43381545e+02 -5.08286919e-03 -1.31641694e+07],42,964.2796312824908
483,483,[-2.65626508e+03  3.42381185e+02 -5.14297662e-03 -1.31641694e+07],549,963.6028632325548
484,484,[-2.59523361e+03  3.43382220e+02 -4.79659817e-03 -1.31641694e+07],811,964.2192859054943
485,485,[-2.38720610e+03  3.44382672e+02 -4.22436065e-03 -1.31641694e+07],238,964.6494287229832
486,486,[-2.78718966e+03  3.42381233e+02 -5.55049289e-03 -1.31641694e+07],900,964.4782687304761
487,487,[-2.74170689e+03  3.42380639e+02 -4.93421659e-03 -1.31641694e+07],35,964.3008208276124
488,488,[-2.39284138e+03  3.44383195e+02 -4.21855725e-03 -1.31641694e+07],48,964.5991361426665
489,489,[-2.38363717e+03  3.44382781e+02 -4.11328377e-03 -1.31641694e+07],326,964.202463835277
490,490,[-2.61164677e+03  3.43381911e+02 -4.93868669e-03 -1.31641694e+07],689,964.091590479621
491,491,[-2.56426860e+03  3.43381607e+02 -4.11569556e-03 -1.31641694e+07],567,964.3975598813587
492,492,[-2.74722160e+03  3.42380751e+02 -5.18512677e-03 -1.31641694e+07],708,965.018633096665
493,493,[-2.79689877e+03  3.42380499e+02 -6.07366087e-03 -1.31641694e+07],671,964.1898215708791
494,494,[-2.59981936e+03  3.43381961e+02 -4.88980095e-03 -1.31641694e+07],698,964.6909018432755
495,495,[-2.76290309e+03  3.42380776e+02 -5.38537842e-03 -1.31641694e+07],314,964.3690426151011
496,496,[-2.74297796e+03  3.42380638e+02 -5.22777458e-03 -1.31641694e+07],274,964.9732939359261
497,497,[-2.60650244e+03  3.43381694e+02 -4.86595794e-03 -1.31641694e+07],279,964.8752974172419
498,498,[-2.73333469e+03  3.42380546e+02 -5.32625351e-03 -1.31641694e+07],584,965.052323974275
499,499,[-2.73802346e+03  3.42380799e+02 -4.95329307e-03 -1.31641694e+07],270,964.2816990355793
500,500,[-2.72741089e+03  3.42380525e+02 -4.60553600e-03 -1.31641694e+07],168,964.3814594759675
501,501,[-2.73924436e+03  3.42380464e+02 -5.35488527e-03 -1.31641694e+07],702,964.7658336002158
502,502,[-2.77781176e+03  3.42380698e+02 -6.14431060e-03 -1.31641694e+07],490,964.2069104068011
503,503,[-2.59430490e+03  3.43381784e+02 -4.33507947e-03 -1.31641694e+07],629,964.369359175588
504,504,[-2.70605078e+03  3.42380462e+02 -4.97844252e-03 -1.31641694e+07],394,964.8685458499148
505,505,[-2.70678160e+03  3.42380550e+02 -5.41149883e-03 -1.31641694e+07],0,964.3615704073231
506,506,[-2.73811596e+03  3.42380610e+02 -5.45358240e-03 -1.31641694e+07],568,964.2168651260899
507,507,[-2.72493334e+03  3.42380715e+02 -4.81042807e-03 -1.31641694e+07],152,964.4244887886643
508,508,[-2.72496857e+03  3.42380556e+02 -4.99776461e-03 -1.31641694e+07],563,964.1776561407714
509,509,[-2.54301432e+03  3.43381646e+02 -4.56611390e-03 -1.31641694e+07],421,964.0755222221943
510,510,[-2.58192373e+03  3.43381688e+02 -4.70789487e-03 -1.31641694e+07],343,965.2183521159375
511,511,[-2.73062599e+03  3.42380884e+02 -5.44338098e-03 -1.31641694e+07],303,965.0488507386734
512,512,[-2.61738790e+03  3.43381537e+02 -4.87819099e-03 -1.31641694e+07],665,964.3477185671218
513,513,[-2.70856975e+03  3.42380527e+02 -5.00965132e-03 -1.31641694e+07],643,964.5884874895918
514,514,[-2.74086390e+03  3.42381213e+02 -5.28733825e-03 -1.31641694e+07],509,964.9643919528994
515,515,[-2.75215775e+03  3.42380965e+02 -5.18508266e-03 -1.31641694e+07],625,964.6389471617871
516,516,[-2.69760935e+03  3.42380945e+02 -5.18896003e-03 -1.31641694e+07],734,964.6424798529534
517,517,[-2.74658969e+03  3.42380560e+02 -5.62950010e-03 -1.31641694e+07],26,964.6804166944407
518,518,[-2.74647750e+03  3.42380698e+02 -4.96391640e-03 -1.31641694e+07],101,964.8264847574745
519,519,[-2.76029938e+03  3.42380519e+02 -5.47250050e-03 -1.31641694e+07],417,964.7815664838513
520,520,[-2.60035112e+03  3.43381744e+02 -5.22364083e-03 -1.31641694e+07],161,963.9534492735332
521,521,[-2.38700570e+03  3.44382987e+02 -4.29513358e-03 -1.31641694e+07],276,964.3036485869175
522,522,[-2.39116205e+03  3.44382983e+02 -4.35852270e-03 -1.31641694e+07],809,963.9349547505536
523,523,[-2.41112087e+03  3.44382732e+02 -4.62856039e-03 -1.31641694e+07],431,962.140613600203
524,524,[-2.57975805e+03  3.43381558e+02 -4.57152694e-03 -1.31641694e+07],548,964.3686521790007
525,525,[-2.59604212e+03  3.43381626e+02 -4.60924197e-03 -1.31641694e+07],890,965.1058494949734
526,526,[-2.58661733e+03  3.43381550e+02 -4.58497163e-03 -1.31641694e+07],857,965.0248479851984
527,527,[-2.38999466e+03  3.44382995e+02 -4.18094987e-03 -1.31641694e+07],379,964.9076543011479
528,528,[-2.59506748e+03  3.43381626e+02 -4.74439999e-03 -1.31641694e+07],425,964.8794542798528
529,529,[-2.61048563e+03  3.43382122e+02 -4.91257925e-03 -1.31641694e+07],371,964.670302414805
530,530,[-2.57941383e+03  3.43381903e+02 -4.38369074e-03 -1.31641694e+07],815,964.8611045738464
531,531,[-2.74735013e+03  3.42380671e+02 -5.21263011e-03 -1.31641694e+07],181,964.9602001089214
532,532,[-2.58278019e+03  3.43381608e+02 -4.48683588e-03 -1.31641694e+07],775,964.5488597853616
533,533,[-2.60520336e+03  3.43382011e+02 -4.95939919e-03 -1.31641694e+07],696,964.5828726328122
534,534,[-2.73799514e+03  3.42380997e+02 -5.27040668e-03 -1.31641694e+07],369,965.1459890393908
535,535,[-2.73778034e+03  3.42380447e+02 -4.86551998e-03 -1.31641694e+07],539,964.7943978329574
536,536,[-2.76695934e+03  3.42380480e+02 -5.40495080e-03 -1.31641694e+07],459,964.7946530622487
537,537,[-2.38907030e+03  3.44382711e+02 -4.21799061e-03 -1.31641694e+07],722,964.6872511180551
538,538,[-2.39967747e+03  3.44383172e+02 -4.37271282e-03 -1.31641694e+07],7,964.6607523865825
539,539,[-2.38225271e+03  3.44382926e+02 -4.32646171e-03 -1.31641694e+07],885,964.022628464723
540,540,[-2.39092163e+03  3.44383650e+02 -4.27215188e-03 -1.31641694e+07],555,964.1436286902652
541,541,[-2.42643913e+03  3.44382836e+02 -4.72408349e-03 -1.31641694e+07],462,964.7891571145443
542,542,[-2.40084353e+03  3.44382693e+02 -4.31047855e-03 -1.31641694e+07],283,964.8922348228848
543,543,[-2.40386132e+03  3.44383311e+02 -4.55713776e-03 -1.31641694e+07],633,964.4004013517257
544,544,[-2.59663473e+03  3.43382098e+02 -4.72372893e-03 -1.31641694e+07],946,965.248392328919
545,545,[-2.72019633e+03  3.42380601e+02 -5.03482976e-03 -1.31641694e+07],808,965.0039322617702
546,546,[-2.36860704e+03  3.44383136e+02 -3.92850178e-03 -1.31641694e+07],862,963.3195001461055
547,547,[-2.60974385e+03  3.43382381e+02 -4.79081837e-03 -1.31641694e+07],807,963.3368841512631
548,548,[-2.39009536e+03  3.44383233e+02 -4.24010881e-03 -1.31641694e+07],680,964.0418178576576
549,549,[-2.40952580e+03  3.44383008e+02 -4.50439646e-03 -1.31641694e+07],205,964.13924193388
550,550,[-2.55935727e+03  3.43382468e+02 -4.61729888e-03 -1.31641694e+07],230,964.6087167060693
551,551,[-2.63436877e+03  3.43382095e+02 -6.14454805e-03 -1.31641694e+07],834,962.9333611680404
552,552,[-2.57528524e+03  3.43381882e+02 -4.61079995e-03 -1.31641694e+07],735,964.5584477506599
553,553,[-2.60040752e+03  3.43381820e+02 -4.74562509e-03 -1.31641694e+07],320,964.414539234733
554,554,[-2.60069993e+03  3.43381924e+02 -4.82865479e-03 -1.31641694e+07],562,964.8848234513287
555,555,[-2.73134520e+03  3.42380755e+02 -4.77844645e-03 -1.31641694e+07],891,964.0144472353977
556,556,[-2.73441415e+03  3.42380747e+02 -4.76707128e-03 -1.31641694e+07],883,963.6944052081503
557,557,[-2.58927097e+03  3.43381536e+02 -4.65577505e-03 -1.31641694e+07],184,965.2374952929945
558,558,[-2.58352925e+03  3.43381540e+02 -4.59669972e-03 -1.31641694e+07],520,965.1582792908407
559,559,[-2.59495340e+03  3.43381745e+02 -4.84106015e-03 -1.31641694e+07],384,964.7999044351549
560,560,[-2.56825328e+03  3.43381538e+02 -4.23827876e-03 -1.31641694e+07],237,964.5114821861409
561,561,[-2.71382714e+03  3.42380674e+02 -4.87240922e-03 -1.31641694e+07],18,964.5876471676438
562,562,[-2.62524176e+03  3.43381911e+02 -5.07958753e-03 -1.31641694e+07],268,963.9602418524547
563,563,[-2.61121834e+03  3.43381723e+02 -4.92185042e-03 -1.31641694e+07],889,964.0867886726948
564,564,[-2.73538863e+03  3.42380512e+02 -4.82446329e-03 -1.31641694e+07],810,964.5127335651002
565,565,[-2.61533263e+03  3.43382229e+02 -4.79340983e-03 -1.31641694e+07],241,965.017828442707
566,566,[-2.73914892e+03  3.42380506e+02 -5.53063769e-03 -1.31641694e+07],13,964.9901425707375
567,567,[-2.70686091e+03  3.42380578e+02 -5.01764967e-03 -1.31641694e+07],36,964.1135395191155
568,568,[-2.59236679e+03  3.43381627e+02 -4.41374410e-03 -1.31641694e+07],522,964.0890671914837
569,569,[-2.78460598e+03  3.42380618e+02 -5.36729375e-03 -1.31641694e+07],863,964.4843619576154
570,570,[-2.75412170e+03  3.42380496e+02 -5.63587921e-03 -1.31641694e+07],669,964.6271402885901
571,571,[-2.56676247e+03  3.43381965e+02 -4.36789375e-03 -1.31641694e+07],37,964.6749509139977
572,572,[-2.70312873e+03  3.42380777e+02 -4.35129597e-03 -1.31641694e+07],298,964.3231237760535
573,573,[-2.77530790e+03  3.42380545e+02 -5.87928138e-03 -1.31641694e+07],404,964.2063424281745
574,574,[-2.57054069e+03  3.43381693e+02 -4.43088093e-03 -1.31641694e+07],582,965.011735820204
575,575,[-2.57501846e+03  3.43381775e+02 -4.34770660e-03 -1.31641694e+07],700,964.722657230364
576,576,[-2.71738792e+03  3.42380895e+02 -4.58277185e-03 -1.31641694e+07],685,963.3874068987716
577,577,[-2.70713533e+03  3.42380985e+02 -4.85155088e-03 -1.31641694e+07],166,964.2593386585725
578,578,[-2.37109908e+03  3.44383167e+02 -4.10701910e-03 -1.31641694e+07],905,964.630412546913
579,579,[-2.67126367e+03  3.42380568e+02 -4.91520574e-03 -1.31641694e+07],965,963.8891887551847
580,580,[-2.72561012e+03  3.42380544e+02 -5.36858245e-03 -1.31641694e+07],868,964.4136591162535
581,581,[-2.67456907e+03  3.42380546e+02 -5.09146006e-03 -1.31641694e+07],225,963.4190554274944
582,582,[-2.66581355e+03  3.42380675e+02 -4.70510005e-03 -1.31641694e+07],813,963.9139573176972
583,583,[-2.37051496e+03  3.44382695e+02 -4.00048892e-03 -1.31641694e+07],4,964.417052289501
584,584,[-2.74480512e+03  3.42380996e+02 -5.63367158e-03 -1.31641694e+07],964,964.1009115734224
585,585,[-2.71314849e+03  3.42380825e+02 -4.58415969e-03 -1.31641694e+07],819,964.3610430534491
586,586,[-2.71314305e+03  3.42380519e+02 -4.48065832e-03 -1.31641694e+07],777,964.7168967300277
587,587,[-2.70209544e+03  3.42380484e+02 -4.58720129e-03 -1.31641694e+07],579,964.7731819922029
588,588,[-2.56014301e+03  3.43381883e+02 -4.57434958e-03 -1.31641694e+07],71,964.2026740153805
589,589,[-2.36472355e+03  3.44382648e+02 -4.08422762e-03 -1.31641694e+07],191,963.8104351046776
590,590,[-2.52973577e+03  3.43381575e+02 -4.57416263e-03 -1.31641694e+07],149,962.9522010588357
591,591,[-2.56781774e+03  3.43381586e+02 -4.70324407e-03 -1.31641694e+07],269,963.4663142226209
592,592,[-2.55676001e+03  3.43381790e+02 -4.50518254e-03 -1.31641694e+07],694,964.2928047430053
593,593,[-2.58547024e+03  3.43381569e+02 -4.69595257e-03 -1.31641694e+07],821,964.6892948342277
594,594,[-2.59817781e+03  3.43381555e+02 -4.80154760e-03 -1.31641694e+07],94,964.5973521349198
595,595,[-2.72257256e+03  3.42380494e+02 -5.19350968e-03 -1.31641694e+07],272,965.0844267316307
596,596,[-2.70510166e+03  3.42380598e+02 -5.03168197e-03 -1.31641694e+07],106,964.824997238188
597,597,[-2.72167594e+03  3.42380546e+02 -5.19957706e-03 -1.31641694e+07],105,965.0807181791538
598,598,[-2.77601615e+03  3.42380697e+02 -6.06807253e-03 -1.31641694e+07],956,964.3413813178386
599,599,[-2.70326417e+03  3.42380652e+02 -4.34628649e-03 -1.31641694e+07],789,964.3856836234828
600,600,[-2.72625515e+03  3.42380446e+02 -4.56242186e-03 -1.31641694e+07],638,964.4501039260899
601,601,[-2.73814811e+03  3.42381174e+02 -5.26625212e-03 -1.31641694e+07],196,965.0983684505247
602,602,[-2.72438540e+03  3.42380884e+02 -5.56592943e-03 -1.31641694e+07],763,964.8615862287845
603,603,[-2.53675421e+03  3.43382015e+02 -4.62458566e-03 -1.31641694e+07],197,964.6199180933719
604,604,[-2.52846068e+03  3.43381971e+02 -4.75518638e-03 -1.31641694e+07],328,963.2467494496574
605,605,[-2.40673895e+03  3.44382690e+02 -4.47101636e-03 -1.31641694e+07],203,963.479856031625
606,606,[-2.57865559e+03  3.43381906e+02 -4.72140744e-03 -1.31641694e+07],290,964.7574277583251
607,607,[-2.58806262e+03  3.43382279e+02 -4.65671223e-03 -1.31641694e+07],156,964.3500809026216
608,608,[-2.37444523e+03  3.44382844e+02 -4.02641900e-03 -1.31641694e+07],788,964.5784192149206
609,609,[-2.56162207e+03  3.43381641e+02 -4.35327407e-03 -1.31641694e+07],672,964.4944928795202
610,610,[-2.39051439e+03  3.44382784e+02 -4.21471821e-03 -1.31641694e+07],381,965.106211047899
611,611,[-2.59703494e+03  3.43382136e+02 -4.80495303e-03 -1.31641694e+07],944,964.8427662253421
612,612,[-2.59265901e+03  3.43381616e+02 -4.73997825e-03 -1.31641694e+07],413,965.0305600436261
613,613,[-2.76997244e+03  3.42380440e+02 -5.51250005e-03 -1.31641694e+07],34,965.0406075762216
614,614,[-2.69322484e+03  3.42380456e+02 -4.73339509e-03 -1.31641694e+07],1,964.8490559821006
615,615,[-2.37276500e+03  3.44382858e+02 -3.96313064e-03 -1.31641694e+07],322,965.0494085499362
616,616,[-2.35904872e+03  3.44382886e+02 -3.84273959e-03 -1.31641694e+07],148,963.790118868835
617,617,[-2.55555477e+03  3.43381544e+02 -4.46927693e-03 -1.31641694e+07],736,964.4409405973008
618,618,[-2.66604897e+03  3.42380769e+02 -5.08039100e-03 -1.31641694e+07],886,964.4028317505927
619,619,[-2.55615977e+03  3.43381957e+02 -4.83007739e-03 -1.31641694e+07],918,964.3194828189667
620,620,[-2.38489844e+03  3.44382686e+02 -4.23451147e-03 -1.31641694e+07],875,964.5508384469882
621,621,[-2.39696394e+03  3.44382723e+02 -4.31323524e-03 -1.31641694e+07],589,964.7417189626912
622,622,[-2.57980149e+03  3.43381644e+02 -4.72618708e-03 -1.31641694e+07],641,964.9372361490329
623,623,[-2.38770435e+03  3.44382766e+02 -4.27897701e-03 -1.31641694e+07],901,964.6480242877362
624,624,[-2.60359995e+03  3.43381670e+02 -4.92916281e-03 -1.31641694e+07],5,964.7566959547594
625,625,[-2.75088415e+03  3.42380463e+02 -4.85951589e-03 -1.31641694e+07],830,964.0707940094326
626,626,[-2.75495957e+03  3.42380565e+02 -5.07759186e-03 -1.31641694e+07],878,964.5887658141684
627,627,[-2.37760577e+03  3.44382772e+02 -4.16198839e-03 -1.31641694e+07],469,964.5151893948613
628,628,[-2.72240636e+03  3.42380544e+02 -5.71534355e-03 -1.31641694e+07],851,964.7332398543997
629,629,[-2.70230049e+03  3.42380642e+02 -5.24925050e-03 -1.31641694e+07],214,964.091327159878
630,630,[-2.57303799e+03  3.43381745e+02 -4.67067871e-03 -1.31641694e+07],776,964.771695152082
631,631,[-2.75314640e+03  3.42380860e+02 -6.03227642e-03 -1.31641694e+07],451,964.5019030190225
632,632,[-2.57805790e+03  3.43381882e+02 -4.52573696e-03 -1.31641694e+07],229,964.8504273914901
633,633,[-2.36436239e+03  3.44383414e+02 -3.90675707e-03 -1.31641694e+07],678,964.0062294162678
634,634,[-2.71683841e+03  3.42380833e+02 -4.93314705e-03 -1.31641694e+07],616,964.8259849722626
635,635,[-2.57333935e+03  3.43381676e+02 -4.64833958e-03 -1.31641694e+07],937,965.0227331429885
636,636,[-2.60023439e+03  3.43382119e+02 -4.79716509e-03 -1.31641694e+07],121,964.9010271163324
637,637,[-2.57924432e+03  3.43382321e+02 -4.62855177e-03 -1.31641694e+07],837,964.6624562745087
638,638,[-2.76859065e+03  3.42380701e+02 -5.88335850e-03 -1.31641694e+07],204,963.8530066381767
639,639,[-2.74446826e+03  3.42380767e+02 -5.14181901e-03 -1.31641694e+07],359,964.3932304551776
640,640,[-2.72864317e+03  3.42380987e+02 -4.94166317e-03 -1.31641694e+07],164,965.0936172910392
641,641,[-2.62245421e+03  3.43382050e+02 -5.20162102e-03 -1.31641694e+07],674,963.8092733324985
642,642,[-2.74243539e+03  3.42381245e+02 -5.85713339e-03 -1.31641694e+07],358,964.1475469950698
643,643,[-2.75733446e+03  3.42380684e+02 -5.41510240e-03 -1.31641694e+07],802,964.0800361700167
644,644,[-2.72562516e+03  3.42380496e+02 -4.39794298e-03 -1.31641694e+07],174,963.5550058259244
645,645,[-2.60239848e+03  3.43381676e+02 -4.75892924e-03 -1.31641694e+07],898,964.8402831900892
646,646,[-2.73861238e+03  3.42380461e+02 -5.48684720e-03 -1.31641694e+07],894,964.7510514699434
647,647,[-2.71369433e+03  3.42380628e+02 -5.30813579e-03 -1.31641694e+07],202,964.970662126278
648,648,[-2.74265188e+03  3.42380796e+02 -4.49269919e-03 -1.31641694e+07],801,964.2241168455256
649,649,[-2.60091351e+03  3.43381759e+02 -4.74280149e-03 -1.31641694e+07],673,964.6625821076992
650,650,[-2.72534549e+03  3.42380506e+02 -5.33886706e-03 -1.31641694e+07],162,964.8823530985376
651,651,[-2.73558627e+03  3.42380431e+02 -5.33600458e-03 -1.31641694e+07],236,964.6895101087124
652,652,[-2.57046421e+03  3.43381692e+02 -4.28660978e-03 -1.31641694e+07],659,964.9224492111975
653,653,[-2.74223272e+03  3.42380663e+02 -4.72378503e-03 -1.31641694e+07],159,964.2403113975741
654,654,[-2.57109455e+03  3.43381622e+02 -4.46544111e-03 -1.31641694e+07],919,964.6281214642953
655,655,[-2.73286707e+03  3.42380715e+02 -5.64951615e-03 -1.31641694e+07],959,964.8917050636936
656,656,[-2.73386794e+03  3.42380497e+02 -4.68106030e-03 -1.31641694e+07],661,964.3288033140605
657,657,[-2.79133721e+03  3.42380627e+02 -5.68812482e-03 -1.31641694e+07],464,963.7421431079572
658,658,[-2.77398839e+03  3.42380581e+02 -5.83899167e-03 -1.31641694e+07],657,964.4374443787167
659,659,[-2.65984333e+03  3.42380598e+02 -5.09293037e-03 -1.31641694e+07],749,963.7564216729842
660,660,[-2.80270785e+03  3.42380675e+02 -4.96431633e-03 -1.31641694e+07],797,963.7095586089187
661,661,[-2.70785491e+03  3.42380665e+02 -4.27221602e-03 -1.31641694e+07],120,963.7458080233624
662,662,[-2.73307436e+03  3.42380439e+02 -5.19285414e-03 -1.31641694e+07],748,964.4002606850852
663,663,[-2.58694138e+03  3.43381950e+02 -4.55503774e-03 -1.31641694e+07],70,963.521750065517
664,664,[-2.57633738e+03  3.43381662e+02 -4.45445118e-03 -1.31641694e+07],705,963.670015818006
665,665,[-2.57695380e+03  3.43381553e+02 -4.31187824e-03 -1.31641694e+07],331,964.0805756648944
666,666,[-2.73000328e+03  3.42380437e+02 -5.34507299e-03 -1.31641694e+07],412,964.510173119046
667,667,[-2.58740416e+03  3.43381634e+02 -4.45985992e-03 -1.31641694e+07],426,964.1714158808301
668,668,[-2.58745859e+03  3.43381568e+02 -4.34958806e-03 -1.31641694e+07],9,963.6754696889684
669,669,[-2.58728096e+03  3.43381542e+02 -4.45902499e-03 -1.31641694e+07],111,963.9230953542648
670,670,[-2.70769832e+03  3.42380576e+02 -5.09210568e-03 -1.31641694e+07],914,964.8344296186322
671,671,[-2.70919846e+03  3.42380768e+02 -5.22622609e-03 -1.31641694e+07],108,964.1129965988617
672,672,[-2.69854137e+03  3.42380786e+02 -5.03569563e-03 -1.31641694e+07],6,963.839061599311
673,673,[-2.41094350e+03  3.44382871e+02 -4.44871091e-03 -1.31641694e+07],660,963.7635544732641
674,674,[-2.77271264e+03  3.42380983e+02 -5.61500798e-03 -1.31641694e+07],897,963.779850490687
675,675,[-2.66709734e+03  3.42380532e+02 -4.76544323e-03 -1.31641694e+07],49,964.2179099417419
676,676,[-2.56963103e+03  3.43381764e+02 -4.23353337e-03 -1.31641694e+07],945,964.2275318313916
677,677,[-2.66580172e+03  3.42380817e+02 -4.15865657e-03 -1.31641694e+07],556,964.3493569539905
678,678,[-2.68697622e+03  3.42380494e+02 -4.17564151e-03 -1.31641694e+07],908,963.7905328683139
679,679,[-2.78947053e+03  3.42380661e+02 -4.87038646e-03 -1.31641694e+07],188,963.6843477773984
680,680,[-2.55113586e+03  3.43381712e+02 -4.18732880e-03 -1.31641694e+07],21,963.9755490672878
681,681,[-2.57240032e+03  3.43381815e+02 -4.29981876e-03 -1.31641694e+07],925,963.5488331563679
682,682,[-2.71580491e+03  3.42380621e+02 -4.30014002e-03 -1.31641694e+07],887,964.5660172690986
683,683,[-2.58726819e+03  3.43382176e+02 -4.40494772e-03 -1.31641694e+07],150,964.8523478595141
684,684,[-2.69844213e+03  3.42380658e+02 -5.15062859e-03 -1.31641694e+07],679,964.528600580933
685,685,[-2.55825251e+03  3.43381784e+02 -4.82691548e-03 -1.31641694e+07],444,963.90699867736
686,686,[-2.38330664e+03  3.44382686e+02 -4.28795112e-03 -1.31641694e+07],126,963.4946278453707
687,687,[-2.67062880e+03  3.42380879e+02 -5.01131186e-03 -1.31641694e+07],952,962.9068917817146
688,688,[-2.71378942e+03  3.42380539e+02 -5.00825224e-03 -1.31641694e+07],139,964.1871550499798
689,689,[-2.77492758e+03  3.42380539e+02 -5.50220222e-03 -1.31641694e+07],668,964.1187288577137
690,690,[-2.59908491e+03  3.43381810e+02 -4.76586807e-03 -1.31641694e+07],24,964.1622410245642
691,691,[-2.74001008e+03  3.42380962e+02 -5.27901867e-03 -1.31641694e+07],951,964.7506111219848
692,692,[-2.60116725e+03  3.43381997e+02 -4.83460374e-03 -1.31641694e+07],664,964.217690604375
693,693,[-2.73217271e+03  3.42380815e+02 -4.56361050e-03 -1.31641694e+07],100,964.4451499432932
694,694,[-2.36407375e+03  3.44383162e+02 -3.87413825e-03 -1.31641694e+07],318,963.8747965810755
695,695,[-2.58110191e+03  3.43381601e+02 -4.52587989e-03 -1.31641694e+07],877,965.0394341724269
696,696,[-2.68991777e+03  3.42380703e+02 -5.12125911e-03 -1.31641694e+07],904,964.0291478508444
697,697,[-2.70374584e+03  3.42380633e+02 -4.91841006e-03 -1.31641694e+07],227,964.4149516422534
698,698,[-2.74417798e+03  3.42380607e+02 -5.48179048e-03 -1.31641694e+07],843,964.1080751526105
699,699,[-2.74986159e+03  3.42381522e+02 -5.84536198e-03 -1.31641694e+07],85,963.4609120440987
700,700,[-2.68914074e+03  3.42380763e+02 -4.74124896e-03 -1.31641694e+07],853,963.9078853336412
701,701,[-2.59040184e+03  3.43381635e+02 -4.40830661e-03 -1.31641694e+07],338,964.6034332370162
702,702,[-2.73611614e+03  3.42380531e+02 -4.51237133e-03 -1.31641694e+07],382,964.0945710699962
703,703,[-2.59794107e+03  3.43381762e+02 -4.88851777e-03 -1.31641694e+07],893,964.4127208369845
704,704,[-2.75810927e+03  3.42380700e+02 -5.79356647e-03 -1.31641694e+07],278,964.1933185510464
705,705,[-2.75603343e+03  3.42380464e+02 -5.52772815e-03 -1.31641694e+07],137,963.7202824309511
706,706,[-2.74962061e+03  3.42380531e+02 -5.38286326e-03 -1.31641694e+07],177,964.2634167308995
707,707,[-2.73468071e+03  3.42380451e+02 -5.52172291e-03 -1.31641694e+07],831,964.5955700304579
708,708,[-2.75742218e+03  3.42380618e+02 -5.74967453e-03 -1.31641694e+07],201,964.1134632486029
709,709,[-2.71197626e+03  3.42380461e+02 -4.55114316e-03 -1.31641694e+07],285,964.2364566249341
710,710,[-2.60226911e+03  3.43381599e+02 -4.76963266e-03 -1.31641694e+07],145,964.42386975104
711,711,[-2.70526378e+03  3.42381107e+02 -4.98864411e-03 -1.31641694e+07],47,964.3789301518655
712,712,[-2.74711910e+03  3.42380431e+02 -5.61786120e-03 -1.31641694e+07],483,964.1731853225536
713,713,[-2.76391747e+03  3.42380568e+02 -5.68446720e-03 -1.31641694e+07],395,964.2818034846917
714,714,[-2.70614188e+03  3.42380573e+02 -4.54010403e-03 -1.31641694e+07],403,964.476958002737
715,715,[-2.73318915e+03  3.42380492e+02 -5.14401418e-03 -1.31641694e+07],391,965.0789510658922
716,716,[-2.74125154e+03  3.42380485e+02 -5.54071850e-03 -1.31641694e+07],138,964.5666882891293
717,717,[-2.57534053e+03  3.43381659e+02 -4.29995494e-03 -1.31641694e+07],231,964.1743642369913
718,718,[-2.71014477e+03  3.42380507e+02 -4.19266181e-03 -1.31641694e+07],189,963.357865596234
719,719,[-2.57475061e+03  3.43381558e+02 -4.31639323e-03 -1.31641694e+07],799,964.4710305217978
720,720,[-2.57582439e+03  3.43381660e+02 -4.38403531e-03 -1.31641694e+07],51,964.3044801004133
721,721,[-2.69966088e+03  3.42380535e+02 -4.27243646e-03 -1.31641694e+07],852,964.2511910483223
722,722,[-2.58518531e+03  3.43381721e+02 -4.30650179e-03 -1.31641694e+07],804,964.0210028616933
723,723,[-2.74731131e+03  3.42380879e+02 -5.19928587e-03 -1.31641694e+07],29,964.9457265116739
724,724,[-2.72631672e+03  3.42380511e+02 -5.40280581e-03 -1.31641694e+07],644,964.540690073902
725,725,[-2.73036932e+03  3.42380469e+02 -5.61933621e-03 -1.31641694e+07],173,964.1484365960462
726,726,[-2.36733626e+03  3.44382778e+02 -3.96607943e-03 -1.31641694e+07],132,964.3886475424648
727,727,[-2.69923686e+03  3.42380431e+02 -4.60711314e-03 -1.31641694e+07],681,964.9460494902114
728,728,[-2.69169495e+03  3.42380871e+02 -4.33233311e-03 -1.31641694e+07],119,964.2941603119995
729,729,[-2.55234539e+03  3.43381564e+02 -4.32153745e-03 -1.31641694e+07],125,964.9358564299889
730,730,[-2.56718864e+03  3.43381826e+02 -4.19910146e-03 -1.31641694e+07],193,964.4331037809588
731,731,[-2.70099259e+03  3.42380663e+02 -4.17737595e-03 -1.31641694e+07],949,964.4499746816838
732,732,[-2.71070031e+03  3.42380460e+02 -4.52247064e-03 -1.31641694e+07],822,964.480308694203
733,733,[-2.74879834e+03  3.42380484e+02 -5.38351193e-03 -1.31641694e+07],933,964.6573713477297
734,734,[-2.71764362e+03  3.42381323e+02 -5.83768854e-03 -1.31641694e+07],872,964.065165592837
735,735,[-2.71403110e+03  3.42380636e+02 -5.12351520e-03 -1.31641694e+07],928,963.9679005667008
736,736,[-2.76781793e+03  3.42381249e+02 -6.04083608e-03 -1.31641694e+07],165,963.8242397558346
737,737,[-2.73136726e+03  3.42380496e+02 -5.53716524e-03 -1.31641694e+07],663,964.2059632990164
738,738,[-2.76398754e+03  3.42381226e+02 -5.91792450e-03 -1.31641694e+07],370,963.4501544537709
739,739,[-2.70956219e+03  3.42380613e+02 -4.59125283e-03 -1.31641694e+07],932,964.6477415336633
740,740,[-2.58125190e+03  3.43381589e+02 -4.44888264e-03 -1.31641694e+07],800,964.7362694050914
741,741,[-2.59405313e+03  3.43381868e+02 -4.45546932e-03 -1.31641694e+07],686,964.5416383119335
742,742,[-2.58411627e+03  3.43381921e+02 -4.41993989e-03 -1.31641694e+07],110,964.5180534882873
743,743,[-2.69897987e+03  3.42380448e+02 -4.41797278e-03 -1.31641694e+07],899,964.6468809728897
744,744,[-2.72291629e+03  3.42380528e+02 -4.60483443e-03 -1.31641694e+07],605,964.6205529318242
745,745,[-2.58482420e+03  3.43381641e+02 -4.46916142e-03 -1.31641694e+07],14,964.3023212172712
746,746,[-2.37002566e+03  3.44382724e+02 -3.98488183e-03 -1.31641694e+07],943,965.0465283501405
747,747,[-2.37095923e+03  3.44382738e+02 -4.12687196e-03 -1.31641694e+07],591,964.5446973888562
748,748,[-2.64700091e+03  3.42380517e+02 -5.11956036e-03 -1.31641694e+07],337,963.7342621075779
749,749,[-2.72253121e+03  3.42380521e+02 -5.63419819e-03 -1.31641694e+07],248,963.7404508285199
750,750,[-2.76110346e+03  3.42381028e+02 -5.75424344e-03 -1.31641694e+07],699,964.3773672823853
751,751,[-2.74282812e+03  3.42380561e+02 -5.54281168e-03 -1.31641694e+07],79,964.4069606921773
752,752,[-2.73848511e+03  3.42380980e+02 -5.59679747e-03 -1.31641694e+07],805,964.5597722543162
753,753,[-2.67841242e+03  3.42380425e+02 -4.92167106e-03 -1.31641694e+07],926,964.755579745065
754,754,[-2.75483154e+03  3.42380653e+02 -5.57700930e-03 -1.31641694e+07],955,964.7516593435009
755,755,[-2.56066863e+03  3.43382033e+02 -4.23504600e-03 -1.31641694e+07],396,964.7384903601285
756,756,[-2.72409881e+03  3.42380571e+02 -4.62487715e-03 -1.31641694e+07],829,965.0544458721434
757,757,[-2.56977016e+03  3.43381752e+02 -4.32613552e-03 -1.31641694e+07],738,965.160905668409
758,758,[-2.59060139e+03  3.43382158e+02 -4.55334415e-03 -1.31641694e+07],450,964.6818678762711
759,759,[-2.71223076e+03  3.42380520e+02 -4.43108947e-03 -1.31641694e+07],178,965.0327577543535
760,760,[-2.57796519e+03  3.43382072e+02 -4.20835330e-03 -1.31641694e+07],859,963.2646674127479
761,761,[-2.57433576e+03  3.43381665e+02 -4.32714992e-03 -1.31641694e+07],870,964.5946984049709
762,762,[-2.70800950e+03  3.42381588e+02 -5.30970693e-03 -1.31641694e+07],176,965.059810670115
763,763,[-2.56907147e+03  3.43381724e+02 -4.81518479e-03 -1.31641694e+07],470,963.8503413466235
764,764,[-2.66917456e+03  3.42380458e+02 -5.44834258e-03 -1.31641694e+07],871,964.325527073622
765,765,[-2.73719268e+03  3.42380744e+02 -5.41341010e-03 -1.31641694e+07],581,964.7528883830851
766,766,[-2.59385502e+03  3.43381662e+02 -4.81038425e-03 -1.31641694e+07],880,964.497869650106
767,767,[-2.70392298e+03  3.42381062e+02 -5.04932903e-03 -1.31641694e+07],785,964.7671842254715
768,768,[-2.75785290e+03  3.42380881e+02 -5.51088413e-03 -1.31641694e+07],89,964.3898553416484
769,769,[-2.72646224e+03  3.42380760e+02 -5.17395207e-03 -1.31641694e+07],929,965.0009835183512
770,770,[-2.69718654e+03  3.42380598e+02 -4.32148283e-03 -1.31641694e+07],771,964.8748436395405
771,771,[-2.54684962e+03  3.43382096e+02 -4.02077797e-03 -1.31641694e+07],892,963.3995835008939
772,772,[-2.72651627e+03  3.42380460e+02 -5.10330214e-03 -1.31641694e+07],383,964.8157171398393
773,773,[-2.59954566e+03  3.43381766e+02 -4.87435385e-03 -1.31641694e+07],297,964.5161453564816
774,774,[-2.37542299e+03  3.44383056e+02 -4.17823968e-03 -1.31641694e+07],151,964.9100486472603
775,775,[-2.40530472e+03  3.44382874e+02 -4.87617102e-03 -1.31641694e+07],576,964.0304577508105
776,776,[-2.36424740e+03  3.44382664e+02 -4.22843373e-03 -1.31641694e+07],82,963.7980021445237
777,777,[-2.38882781e+03  3.44383143e+02 -4.33867852e-03 -1.31641694e+07],839,963.8897388283907
778,778,[-2.37546033e+03  3.44383342e+02 -4.11500251e-03 -1.31641694e+07],88,964.7288225416315
779,779,[-2.60822935e+03  3.43381584e+02 -5.90044128e-03 -1.31641694e+07],114,964.6924799746173
780,780,[-2.40214430e+03  3.44382655e+02 -4.32657645e-03 -1.31641694e+07],902,964.7657548858501
781,781,[-2.72374879e+03  3.42380842e+02 -5.12661479e-03 -1.31641694e+07],907,964.8251778350055
782,782,[-2.57691150e+03  3.43381743e+02 -4.67483289e-03 -1.31641694e+07],847,965.0833784965374
783,783,[-2.69699980e+03  3.42381047e+02 -4.89524455e-03 -1.31641694e+07],275,964.6623068339385
784,784,[-2.71382839e+03  3.42380667e+02 -4.70601297e-03 -1.31641694e+07],718,964.2648575747876
785,785,[-2.79079064e+03  3.42380465e+02 -5.19932548e-03 -1.31641694e+07],547,963.406285834845
786,786,[-2.58514717e+03  3.43381594e+02 -4.42769922e-03 -1.31641694e+07],855,964.9256359071119
787,787,[-2.56915016e+03  3.43381558e+02 -4.66941115e-03 -1.31641694e+07],881,964.8206951700197
788,788,[-2.54936847e+03  3.43381928e+02 -4.72157988e-03 -1.31641694e+07],963,963.8395677158969
789,789,[-2.53550006e+03  3.43381542e+02 -4.58588707e-03 -1.31641694e+07],167,963.856934591928
790,790,[-2.36934107e+03  3.44382959e+02 -4.13304035e-03 -1.31641694e+07],879,962.9896676332366
791,791,[-2.38737623e+03  3.44382664e+02 -4.21197178e-03 -1.31641694e+07],909,964.5644759292882
792,792,[-2.37851402e+03  3.44382879e+02 -4.18318057e-03 -1.31641694e+07],546,964.3589145374704
793,793,[-2.56890839e+03  3.43381716e+02 -4.58927750e-03 -1.31641694e+07],3,964.9369709914899
794,794,[-2.72191094e+03  3.42380529e+02 -5.27357713e-03 -1.31641694e+07],75,964.9442387277601
795,795,[-2.69184821e+03  3.42380472e+02 -4.58539021e-03 -1.31641694e+07],155,964.9438119785592
796,796,[-2.69930395e+03  3.42380468e+02 -4.21161058e-03 -1.31641694e+07],961,964.3175177573223
797,797,[-2.70307416e+03  3.42380598e+02 -4.26708840e-03 -1.31641694e+07],954,963.7365784621784
798,798,[-2.56487850e+03  3.43381594e+02 -4.13068585e-03 -1.31641694e+07],844,964.1926725479569
799,799,[-2.69925402e+03  3.42380472e+02 -4.26902710e-03 -1.31641694e+07],113,963.5679227698606
800,800,[-2.66987743e+03  3.42380734e+02 -4.40126604e-03 -1.31641694e+07],953,963.4979001543841
801,801,[-2.64296084e+03  3.42380676e+02 -5.07373657e-03 -1.31641694e+07],39,963.7647505380007
802,802,[-2.55946475e+03  3.43381706e+02 -4.76924766e-03 -1.31641694e+07],74,963.7777369949421
803,803,[-2.62745395e+03  3.42380650e+02 -4.97260576e-03 -1.31641694e+07],760,962.27276012246
804,804,[-2.56617293e+03  3.43381941e+02 -4.59614432e-03 -1.31641694e+07],302,963.562809216203
805,805,[-2.69634844e+03  3.42380823e+02 -4.68549999e-03 -1.31641694e+07],198,963.458359532703
806,806,[-2.77270691e+03  3.42380435e+02 -5.50720142e-03 -1.31641694e+07],192,963.1347986761966
807,807,[-2.71414462e+03  3.42380851e+02 -5.16496128e-03 -1.31641694e+07],604,963.9857042100724
808,808,[-2.73240797e+03  3.42380450e+02 -5.14358260e-03 -1.31641694e+07],122,963.9905294832865
809,809,[-2.74660049e+03  3.42380561e+02 -5.41315984e-03 -1.31641694e+07],854,964.0436093703798
810,810,[-2.69765384e+03  3.42380550e+02 -4.75404371e-03 -1.31641694e+07],95,963.9402921585037
811,811,[-2.70932066e+03  3.42380704e+02 -4.89287312e-03 -1.31641694e+07],146,964.1388285712753
812,812,[-2.72964032e+03  3.42380973e+02 -5.15573038e-03 -1.31641694e+07],950,964.6371113004194
813,813,[-2.56015030e+03  3.43382020e+02 -4.18028102e-03 -1.31641694e+07],836,963.9008886735761
814,814,[-2.72909725e+03  3.42380495e+02 -4.50757663e-03 -1.31641694e+07],915,962.4370300256695
815,815,[-2.71237527e+03  3.42380604e+02 -4.63236143e-03 -1.31641694e+07],947,964.0360621262234
816,816,[-2.70723075e+03  3.42380631e+02 -5.18489760e-03 -1.31641694e+07],175,964.3482119581397
817,817,[-2.72142487e+03  3.42380518e+02 -5.26434796e-03 -1.31641694e+07],850,962.8943773787743
818,818,[-2.76106068e+03  3.42380638e+02 -5.38228570e-03 -1.31641694e+07],869,962.8482114994353
819,819,[-2.37001789e+03  3.44382894e+02 -3.94966535e-03 -1.31641694e+07],924,963.89484832798
820,820,[-2.36336428e+03  3.44382912e+02 -3.89570653e-03 -1.31641694e+07],50,963.1292788293384
821,821,[-2.73057064e+03  3.42380792e+02 -5.11541135e-03 -1.31641694e+07],264,963.8739152398143
822,822,[-2.68564985e+03  3.42381188e+02 -4.81370308e-03 -1.31641694e+07],845,963.5321041389589
823,823,[-2.59018180e+03  3.43381853e+02 -4.37793454e-03 -1.31641694e+07],86,963.0119820567738
824,824,[-2.54138166e+03  3.43381620e+02 -3.88700694e-03 -1.31641694e+07],922,962.7615272554472
825,825,[-2.77864577e+03  3.42380547e+02 -5.51504756e-03 -1.31641694e+07],948,962.5104941396428
826,826,[-2.59722783e+03  3.43382141e+02 -4.53409367e-03 -1.31641694e+07],43,962.3044963718075
827,827,[-2.69979656e+03  3.42380568e+02 -4.52710238e-03 -1.31641694e+07],33,962.9897525693317
828,828,[-2.54603247e+03  3.43381655e+02 -3.99753747e-03 -1.31641694e+07],806,962.6812907717119
829,829,[-2.73918658e+03  3.42380433e+02 -4.69717331e-03 -1.31641694e+07],247,963.4519102548095
830,830,[-2.58369454e+03  3.43381596e+02 -4.48506268e-03 -1.31641694e+07],820,963.8052277983826
831,831,[-2.57797404e+03  3.43381596e+02 -4.36773533e-03 -1.31641694e+07],147,963.6184584295579
832,832,[-2.71977863e+03  3.42380566e+02 -4.26281184e-03 -1.31641694e+07],840,962.9549698825748
833,833,[-2.74117230e+03  3.42380559e+02 -4.64371094e-03 -1.31641694e+07],84,962.8769891410095
834,834,[-2.68272252e+03  3.42380713e+02 -4.61795870e-03 -1.31641694e+07],212,963.9681477679663
835,835,[-2.72051598e+03  3.42381217e+02 -4.96510582e-03 -1.31641694e+07],12,964.3696184158796
836,836,[-2.74296680e+03  3.42380619e+02 -5.46654421e-03 -1.31641694e+07],187,963.1998559890325
837,837,[-2.56664595e+03  3.43381812e+02 -4.31499474e-03 -1.31641694e+07],123,963.7874954810537
838,838,[-2.56804262e+03  3.43382066e+02 -4.30329611e-03 -1.31641694e+07],882,962.8671606677168
839,839,[-2.56276435e+03  3.43381687e+02 -4.19978678e-03 -1.31641694e+07],916,963.3764524768894
840,840,[-2.69486023e+03  3.42380722e+02 -4.10794110e-03 -1.31641694e+07],848,963.1187592757287
841,841,[-2.70545779e+03  3.42380610e+02 -4.04445294e-03 -1.31641694e+07],393,963.0082088162856
842,842,[-2.73340600e+03  3.42380909e+02 -4.19597193e-03 -1.31641694e+07],72,962.5142984636367
843,843,[-2.70262419e+03  3.42380569e+02 -4.26696807e-03 -1.31641694e+07],10,963.6524777044466
844,844,[-2.64576279e+03  3.42380425e+02 -4.51601546e-03 -1.31641694e+07],77,963.2766475223268
845,845,[-2.66330779e+03  3.42380829e+02 -4.38990195e-03 -1.31641694e+07],910,963.1650935119887
846,846,[-2.74835924e+03  3.42380796e+02 -5.53379411e-03 -1.31641694e+07],90,962.3444763788073
847,847,[-2.73061506e+03  3.42380775e+02 -5.24033218e-03 -1.31641694e+07],11,963.3680065770982
848,848,[-2.71395147e+03  3.42380980e+02 -5.14502150e-03 -1.31641694e+07],861,963.0780455075806
849,849,[-2.75474013e+03  3.42380659e+02 -5.48986566e-03 -1.31641694e+07],172,962.9342622594398
850,850,[-2.73749047e+03  3.42380578e+02 -5.32843418e-03 -1.31641694e+07],911,963.1751475744537
851,851,[-2.58659483e+03  3.43381581e+02 -4.34721745e-03 -1.31641694e+07],46,963.7984951225308
852,852,[-2.70541829e+03  3.42380587e+02 -4.53071995e-03 -1.31641694e+07],97,963.5631312134793
853,853,[-2.71040899e+03  3.42380542e+02 -5.11778129e-03 -1.31641694e+07],823,963.6479402259708
854,854,[-2.53843386e+03  3.43381864e+02 -4.03388145e-03 -1.31641694e+07],841,963.2393718229442
855,855,[-2.54973105e+03  3.43382042e+02 -4.06095991e-03 -1.31641694e+07],15,963.3357662637901
856,856,[-2.68105794e+03  3.42380597e+02 -4.90717024e-03 -1.31641694e+07],827,964.5477678888759
857,857,[-2.60649814e+03  3.43381865e+02 -4.85918716e-03 -1.31641694e+07],790,964.0393506018964
858,858,[-2.70317350e+03  3.42381057e+02 -5.01850373e-03 -1.31641694e+07],40,962.1819365470031
859,859,[-2.75576782e+03  3.42380452e+02 -5.41462487e-03 -1.31641694e+07],160,963.4407424670095
860,860,[-2.75428000e+03  3.42380461e+02 -5.59544245e-03 -1.31641694e+07],2,962.6324829119022
861,861,[-2.69932852e+03  3.42380710e+02 -4.69562495e-03 -1.31641694e+07],27,963.0436843069897
862,862,[-2.68680676e+03  3.42380450e+02 -4.97702614e-03 -1.31641694e+07],249,963.9886172467897
863,863,[-2.71793715e+03  3.42380488e+02 -4.71258949e-03 -1.31641694e+07],832,963.9278254532759
864,864,[-2.55237984e+03  3.43382398e+02 -3.96781438e-03 -1.31641694e+07],590,962.3448329017056
865,865,[-2.72578925e+03  3.42380428e+02 -4.57768319e-03 -1.31641694e+07],849,962.4999388550262
866,866,[-2.36537162e+03  3.44382871e+02 -3.95914564e-03 -1.31641694e+07],551,964.2648222757821
867,867,[-2.68432680e+03  3.42380473e+02 -4.88968991e-03 -1.31641694e+07],936,964.5317037806705
868,868,[-2.70554719e+03  3.42380509e+02 -5.33269938e-03 -1.31641694e+07],958,963.9017906292979
869,869,[-2.36309169e+03  3.44383151e+02 -3.93932127e-03 -1.31641694e+07],962,963.173773266221
870,870,[-2.74554518e+03  3.42380510e+02 -5.27350357e-03 -1.31641694e+07],687,963.4396678992072
871,871,[-2.68722292e+03  3.42380568e+02 -5.02169603e-03 -1.31641694e+07],817,963.4214284402227
872,872,[-2.69954800e+03  3.42380487e+02 -4.66271928e-03 -1.31641694e+07],83,963.5259284702474
873,873,[-2.58025951e+03  3.43381801e+02 -4.28533275e-03 -1.31641694e+07],833,962.5668933262367
874,874,[-2.76892952e+03  3.42380582e+02 -4.96529640e-03 -1.31641694e+07],64,962.4957064087687
875,875,[-2.57475468e+03  3.43381651e+02 -4.63113498e-03 -1.31641694e+07],838,963.8171940537362
876,876,[-2.73132904e+03  3.42380752e+02 -5.32575284e-03 -1.31641694e+07],25,964.19655237636
877,877,[-2.73763375e+03  3.42380483e+02 -5.48514983e-03 -1.31641694e+07],22,963.6603479938019
878,878,[-2.70950016e+03  3.42380575e+02 -5.27958986e-03 -1.31641694e+07],96,963.8010388318904
879,879,[-2.70350845e+03  3.42380488e+02 -5.10501247e-03 -1.31641694e+07],38,963.3270233524713
880,880,[-2.76591471e+03  3.42380456e+02 -5.71207169e-03 -1.31641694e+07],348,963.4100560477201
881,881,[-2.70891885e+03  3.42380426e+02 -4.69455165e-03 -1.31641694e+07],17,963.3320893246474
882,882,[-2.73943431e+03  3.42380801e+02 -4.54975102e-03 -1.31641694e+07],935,963.0807572481768
883,883,[-2.55748314e+03  3.43382306e+02 -4.21657167e-03 -1.31641694e+07],818,963.9587800944405
884,884,[-2.56287180e+03  3.43382024e+02 -4.54529591e-03 -1.31641694e+07],180,964.205671334121
885,885,[-2.68489347e+03  3.42380644e+02 -5.33168459e-03 -1.31641694e+07],57,964.0153731332668
886,886,[-2.58139091e+03  3.43381899e+02 -4.68372371e-03 -1.31641694e+07],163,963.8240356809561
887,887,[-2.72026616e+03  3.42380519e+02 -5.10130697e-03 -1.31641694e+07],154,963.6902186032404
888,888,[-2.73100247e+03  3.42380810e+02 -4.48924904e-03 -1.31641694e+07],179,962.4683643812175
889,889,[-2.67493030e+03  3.42380487e+02 -4.73409639e-03 -1.31641694e+07],912,963.9427311347318
890,890,[-2.57814080e+03  3.43381584e+02 -4.49651689e-03 -1.31641694e+07],226,964.0400201538869
891,891,[-2.71375650e+03  3.42380734e+02 -4.72671327e-03 -1.31641694e+07],45,963.9596307533429
892,892,[-2.69618435e+03  3.42380758e+02 -4.50986154e-03 -1.31641694e+07],824,963.397688573928
893,893,[-2.74069568e+03  3.42381324e+02 -5.14995406e-03 -1.31641694e+07],107,963.6347534217458
894,894,[-2.57223894e+03  3.43381756e+02 -4.22643433e-03 -1.31641694e+07],265,963.7673021703139
895,895,[-2.54694354e+03  3.43381948e+02 -3.99616648e-03 -1.31641694e+07],16,962.6999881814517
896,896,[-2.70629702e+03  3.42380674e+02 -5.08810496e-03 -1.31641694e+07],895,964.2174805445502
897,897,[-2.68423951e+03  3.42380515e+02 -4.84031580e-03 -1.31641694e+07],8,963.7064943970377
898,898,[-2.57178320e+03  3.43382042e+02 -4.56660909e-03 -1.31641694e+07],54,963.7679841010179
899,899,[-2.74722011e+03  3.42380684e+02 -5.19009337e-03 -1.31641694e+07],828,963.4815527956184
900,900,[-2.58437243e+03  3.43381676e+02 -4.54669672e-03 -1.31641694e+07],76,964.1377640038298
901,901,[-2.74588532e+03  3.42381386e+02 -5.39352023e-03 -1.31641694e+07],392,963.8080665837667
902,902,[-2.56115057e+03  3.43382134e+02 -4.11307088e-03 -1.31641694e+07],860,963.3713477803699
903,903,[-2.54325807e+03  3.43381604e+02 -4.06326317e-03 -1.31641694e+07],44,962.619151155643
904,904,[-2.71436705e+03  3.42380559e+02 -4.94210702e-03 -1.31641694e+07],58,963.6564924340445
905,905,[-2.38134987e+03  3.44383069e+02 -4.23667046e-03 -1.31641694e+07],920,963.9023235828513
906,906,[-2.59323827e+03  3.43381559e+02 -4.84948876e-03 -1.31641694e+07],127,964.1975601615035
907,907,[-2.71923341e+03  3.42380517e+02 -4.80394009e-03 -1.31641694e+07],903,963.3687292479023
908,908,[-2.75041958e+03  3.42380451e+02 -5.45404359e-03 -1.31641694e+07],81,963.6940986304057
909,909,[-2.73296245e+03  3.42380474e+02 -5.11209797e-03 -1.31641694e+07],873,963.3198640977142
910,910,[-2.68054743e+03  3.42380424e+02 -4.60762338e-03 -1.31641694e+07],99,963.0576419473215
911,911,[-2.36328410e+03  3.44382899e+02 -3.86145304e-03 -1.31641694e+07],87,963.0316219633434
912,912,[-2.58623370e+03  3.43381561e+02 -4.33986932e-03 -1.31641694e+07],213,962.7879233846483
913,913,[-2.74870057e+03  3.42380590e+02 -5.23778151e-03 -1.31641694e+07],136,964.2406382838193
914,914,[-2.74650163e+03  3.42380798e+02 -5.55628832e-03 -1.31641694e+07],28,963.7132441156244
915,915,[-2.69154955e+03  3.42380426e+02 -4.36789450e-03 -1.31641694e+07],842,963.1944433007448
916,916,[-2.73161650e+03  3.42380522e+02 -4.63335981e-03 -1.31641694e+07],825,963.0781331834282
917,917,[-2.53863056e+03  3.43381657e+02 -3.87681433e-03 -1.31641694e+07],865,962.469481154599
918,918,[-2.72127487e+03  3.42380522e+02 -4.74795813e-03 -1.31641694e+07],874,963.8217260192879
919,919,[-2.36732606e+03  3.44382839e+02 -3.95011677e-03 -1.31641694e+07],68,963.7504885277867
920,920,[-2.57956775e+03  3.43381563e+02 -4.30818848e-03 -1.31641694e+07],917,962.6258003473525
921,921,[-2.72065365e+03  3.42380476e+02 -4.40808471e-03 -1.31641694e+07],888,962.4168399521633
922,922,[-2.56562784e+03  3.43381742e+02 -4.13062970e-03 -1.31641694e+07],133,963.160612223576
923,923,[-2.73056573e+03  3.42380916e+02 -5.23639029e-03 -1.31641694e+07],200,964.3413863504454
924,924,[-2.70127158e+03  3.42380546e+02 -4.36767412e-03 -1.31641694e+07],814,963.1735804137872
925,925,[-2.68628379e+03  3.42380504e+02 -4.24819534e-03 -1.31641694e+07],52,963.6907572937697
926,926,[-2.56821312e+03  3.43381554e+02 -4.28748234e-03 -1.31641694e+07],957,963.4561053143747
927,927,[-2.54689925e+03  3.43381617e+02 -3.88540254e-03 -1.31641694e+07],921,962.3370732822814
928,928,[-2.71970487e+03  3.42380579e+02 -4.83235845e-03 -1.31641694e+07],20,963.5243321953443
929,929,[-2.57983393e+03  3.43381983e+02 -4.34609772e-03 -1.31641694e+07],463,963.402531785117
930,930,[-2.57122512e+03  3.43381714e+02 -4.13409622e-03 -1.31641694e+07],59,961.9766885452856
931,931,[-2.53850659e+03  3.43381813e+02 -3.88155766e-03 -1.31641694e+07],124,961.8970000811477
932,932,[-2.76793003e+03  3.42380504e+02 -5.14241585e-03 -1.31641694e+07],30,963.5103028708312
933,933,[-2.36350713e+03  3.44383010e+02 -3.95135724e-03 -1.31641694e+07],864,963.5278768157137
934,934,[-2.57659886e+03  3.43382198e+02 -4.29301296e-03 -1.31641694e+07],846,964.3903369344807
935,935,[-2.71160191e+03  3.42380425e+02 -4.29891333e-03 -1.31641694e+07],927,962.8487805885941
936,936,[-2.72201999e+03  3.42380493e+02 -4.34593243e-03 -1.31641694e+07],826,962.9325461563633
937,937,[-2.56361373e+03  3.43381851e+02 -4.23334340e-03 -1.31641694e+07],56,963.790038004076
938,938,[-2.67725641e+03  3.42380549e+02 -4.45395731e-03 -1.31641694e+07],803,962.267736559765
939,939,[-2.71158284e+03  3.42380705e+02 -5.21733585e-03 -1.31641694e+07],938,962.0466062434215
940,940,[-2.57590616e+03  3.43381601e+02 -4.35567689e-03 -1.31641694e+07],31,961.8999886299372
941,941,[-2.56964528e+03  3.43381571e+02 -4.37677883e-03 -1.31641694e+07],66,961.8712211630809
942,942,[-2.73732722e+03  3.42380472e+02 -4.39597477e-03 -1.31641694e+07],73,961.3773119918739
943,943,[-2.73916897e+03  3.42381017e+02 -4.69796920e-03 -1.31641694e+07],858,963.4716115978592
944,944,[-2.71975935e+03  3.42380475e+02 -4.84496573e-03 -1.31641694e+07],60,963.8365767748443
945,945,[-2.73369675e+03  3.42380500e+02 -5.57723920e-03 -1.31641694e+07],523,963.6962428926786
946,946,[-2.68660916e+03  3.42380566e+02 -5.33547976e-03 -1.31641694e+07],199,964.0044116275317
947,947,[-2.74034872e+03  3.42380435e+02 -5.63595055e-03 -1.31641694e+07],939,963.1770198692243
948,948,[-2.76893087e+03  3.42380636e+02 -5.54081085e-03 -1.31641694e+07],65,963.1505748466077
949,949,[-2.73247917e+03  3.42380512e+02 -5.07784481e-03 -1.31641694e+07],69,963.5333623681757
950,950,[-2.58268486e+03  3.43381830e+02 -4.40411582e-03 -1.31641694e+07],930,963.224970720781
951,951,[-2.55709028e+03  3.43381692e+02 -4.25325416e-03 -1.31641694e+07],61,963.6723064594604
952,952,[-2.37206773e+03  3.44382945e+02 -3.98541294e-03 -1.31641694e+07],80,963.6798626949592
953,953,[-2.59272074e+03  3.43381754e+02 -4.45323651e-03 -1.31641694e+07],940,963.2726185071707
954,954,[-2.57797035e+03  3.43381578e+02 -4.30480558e-03 -1.31641694e+07],931,963.2784572113096
955,955,[-2.58607613e+03  3.43381673e+02 -4.40662920e-03 -1.31641694e+07],941,963.4559457149467
956,956,[-2.57180428e+03  3.43381545e+02 -4.27244181e-03 -1.31641694e+07],53,963.8594001032191
957,957,[-2.54149258e+03  3.43381821e+02 -3.95492043e-03 -1.31641694e+07],23,962.4206252771452
958,958,[-2.72972525e+03  3.42380620e+02 -4.62084109e-03 -1.31641694e+07],67,962.9298701492669
959,959,[-2.57607711e+03  3.43381787e+02 -4.41329105e-03 -1.31641694e+07],32,963.7498391970056
960,960,[-2.67578321e+03  3.42380714e+02 -4.84923143e-03 -1.31641694e+07],98,964.1919799125344
961,961,[-2.57440917e+03  3.43381891e+02 -4.75736172e-03 -1.31641694e+07],134,963.2794032715368
962,962,[-2.63972302e+03  3.42380565e+02 -4.99784815e-03 -1.31641694e+07],135,962.9147839216264
963,963,[-2.71391475e+03  3.42380660e+02 -5.37060755e-03 -1.31641694e+07],942,963.3298316195047
964,964,[-2.72301601e+03  3.42380694e+02 -5.07367179e-03 -1.31641694e+07],55,963.8954312267347
965,965,[-2.74149790e+03  3.42380593e+02 -5.58508589e-03 -1.31641694e+07],452,963.9020713287728
966,966,[ 4.68364236e+03  2.97330574e+02 -9.95461366e-03 -1.31641694e+07],966,921.9214629154372
