,0,1,2,3
0,0,[-1.79826987e+03  3.55395224e+02 -8.68177018e-03 -1.31641694e+07],101,952.0931392657151
1,1,[-1.81725420e+03  3.56396812e+02 -9.56044808e-03 -1.31641694e+07],423,952.1660063534425
2,2,[-2.02415286e+03  2.63292699e+02 -2.91563555e-02 -1.31641694e+07],863,949.9232704684143
3,3,[-2.12745401e+03  2.70300460e+02 -2.49138667e-02 -1.31641694e+07],873,949.0438679064357
4,4,[-1.64221562e+03  3.54393878e+02 -7.17199433e-03 -1.31641694e+07],336,949.0992849651902
5,5,[-1.39322532e+03  3.56396446e+02 -4.38091271e-03 -1.31641694e+07],641,950.2187610200328
6,6,[-1.88616644e+03  2.70300744e+02 -2.65670689e-02 -1.31641694e+07],416,951.9932736591126
7,7,[-2.01813310e+03  2.63292618e+02 -2.94965771e-02 -1.31641694e+07],120,951.1817559408439
8,8,[-1.82079376e+03  3.56396088e+02 -9.55883154e-03 -1.31641694e+07],804,952.0209831843868
9,9,[-1.78572354e+03  3.56396455e+02 -9.47529538e-03 -1.31641694e+07],371,953.2417758868758
10,10,[-1.80434626e+03  3.54394766e+02 -8.71305883e-03 -1.31641694e+07],140,952.978271426988
11,11,[-1.80655372e+03  3.55395398e+02 -9.05612677e-03 -1.31641694e+07],751,952.2703081754054
12,12,[-1.77517435e+03  3.56396551e+02 -9.22892936e-03 -1.31641694e+07],482,948.9795092766627
13,13,[-2.01536721e+03  2.69299357e+02 -2.67482140e-02 -1.31641694e+07],872,948.9693882603283
14,14,[-1.64639858e+03  3.54394379e+02 -6.59296034e-03 -1.31641694e+07],273,947.7645061860893
15,15,[-1.46858062e+03  3.56398088e+02 -5.61047445e-03 -1.31641694e+07],370,948.8665966074149
16,16,[-1.38486653e+03  3.56396417e+02 -4.26903794e-03 -1.31641694e+07],131,950.201854689641
17,17,[-1.88587338e+03  2.70300383e+02 -2.50531317e-02 -1.31641694e+07],89,952.3702061941307
18,18,[-2.09819188e+03  2.64293837e+02 -2.85095799e-02 -1.31641694e+07],536,953.2476961874578
19,19,[-1.77658352e+03  3.56396151e+02 -9.63429966e-03 -1.31641694e+07],871,952.2189162070273
20,20,[-1.80440507e+03  3.55395018e+02 -9.17198300e-03 -1.31641694e+07],720,952.0048269992458
21,21,[-2.10016265e+03  2.64293850e+02 -2.82482245e-02 -1.31641694e+07],589,951.7349879376749
22,22,[-1.97375936e+03  2.65295550e+02 -2.81106481e-02 -1.31641694e+07],693,951.730846927571
23,23,[-1.85993115e+03  3.54394302e+02 -8.45937471e-03 -1.31641694e+07],142,952.1758150962644
24,24,[-2.10954620e+03  2.65295429e+02 -2.89656654e-02 -1.31641694e+07],252,952.5170082044876
25,25,[-2.13615102e+03  2.61290329e+02 -3.14426047e-02 -1.31641694e+07],375,952.724532995286
26,26,[-1.79348407e+03  3.55396574e+02 -8.55208827e-03 -1.31641694e+07],424,952.5317381744161
27,27,[-1.72509515e+03  3.55395025e+02 -8.67265116e-03 -1.31641694e+07],537,952.226453685512
28,28,[-1.77995430e+03  3.53392969e+02 -7.70899908e-03 -1.31641694e+07],669,950.2525700972574
29,29,[-1.79712142e+03  3.53394075e+02 -7.42299134e-03 -1.31641694e+07],869,951.668967580274
30,30,[-1.74429847e+03  3.55395975e+02 -7.34932372e-03 -1.31641694e+07],501,953.0551255674595
31,31,[-1.84368886e+03  3.57398195e+02 -9.77022012e-03 -1.31641694e+07],864,952.4617350822399
32,32,[-1.82310973e+03  3.55395082e+02 -8.56696972e-03 -1.31641694e+07],750,952.428998833061
33,33,[-1.79730463e+03  3.55395108e+02 -8.26320980e-03 -1.31641694e+07],899,953.395316367207
34,34,[-1.75849435e+03  3.56397446e+02 -8.98010583e-03 -1.31641694e+07],782,952.6602962880793
35,35,[-1.81559862e+03  3.55396201e+02 -8.61046259e-03 -1.31641694e+07],61,951.3821752376598
36,36,[-1.77388561e+03  3.54393974e+02 -8.13199257e-03 -1.31641694e+07],506,950.5101528706421
37,37,[-1.74713180e+03  3.54394857e+02 -8.13944419e-03 -1.31641694e+07],471,950.9046335446608
38,38,[-1.78489582e+03  3.54394416e+02 -7.69793879e-03 -1.31641694e+07],190,952.5221791507048
39,39,[-1.83944603e+03  3.55394927e+02 -8.69257055e-03 -1.31641694e+07],748,952.7745551585007
40,40,[-1.82350678e+03  3.56396429e+02 -9.04924819e-03 -1.31641694e+07],710,953.0995403595612
41,41,[-1.86461758e+03  3.54394613e+02 -8.22201040e-03 -1.31641694e+07],642,952.7959233083676
42,42,[-1.81326183e+03  3.54394145e+02 -8.28878023e-03 -1.31641694e+07],100,952.9910777324791
43,43,[-1.74119102e+03  3.55394998e+02 -8.48082274e-03 -1.31641694e+07],299,952.2514180811133
44,44,[-1.76866638e+03  3.54394183e+02 -8.31211567e-03 -1.31641694e+07],677,950.9198991147896
45,45,[-1.76055490e+03  3.54394011e+02 -8.19365282e-03 -1.31641694e+07],688,951.0004525121454
46,46,[-1.77515443e+03  3.54395421e+02 -7.97551410e-03 -1.31641694e+07],382,952.5488677121917
47,47,[-1.85279073e+03  3.55394916e+02 -8.34656170e-03 -1.31641694e+07],518,952.4573353365514
48,48,[-1.78212717e+03  3.57397935e+02 -9.29248554e-03 -1.31641694e+07],33,952.9114178700814
49,49,[-1.78969308e+03  3.56396250e+02 -8.72087990e-03 -1.31641694e+07],807,953.0690203850805
50,50,[-1.84474687e+03  3.54393952e+02 -8.32347745e-03 -1.31641694e+07],640,952.9007112506896
51,51,[-1.77229621e+03  3.56396509e+02 -8.95889998e-03 -1.31641694e+07],687,953.27366141827
52,52,[-1.79525714e+03  3.55395385e+02 -8.47119504e-03 -1.31641694e+07],525,951.5408660510169
53,53,[-1.76159412e+03  3.55395159e+02 -8.54500165e-03 -1.31641694e+07],420,950.8246517055467
54,54,[-1.78606494e+03  3.53392724e+02 -7.82793136e-03 -1.31641694e+07],929,949.3393115572958
55,55,[-1.74078152e+03  3.53393260e+02 -7.60263497e-03 -1.31641694e+07],374,949.3241441370249
56,56,[-1.39167987e+03  3.56396035e+02 -4.49274753e-03 -1.31641694e+07],791,949.9089341468534
57,57,[-1.78875719e+03  3.53393735e+02 -7.65896806e-03 -1.31641694e+07],372,951.7424820555215
58,58,[-1.76887711e+03  3.55394903e+02 -8.69660051e-03 -1.31641694e+07],866,951.3340697388113
59,59,[-1.81045145e+03  3.56396120e+02 -9.35095604e-03 -1.31641694e+07],947,952.6490607039984
60,60,[-1.83954869e+03  3.55395567e+02 -8.31617207e-03 -1.31641694e+07],726,952.8287379206558
61,61,[-1.75788880e+03  3.56397181e+02 -8.88882601e-03 -1.31641694e+07],870,953.4285744549129
62,62,[-1.78540229e+03  3.56396670e+02 -8.97510585e-03 -1.31641694e+07],907,953.0636474903854
63,63,[-1.68259357e+03  3.56397128e+02 -8.65683995e-03 -1.31641694e+07],705,952.0367241579712
64,64,[-1.75922784e+03  3.55395472e+02 -8.70086889e-03 -1.31641694e+07],266,950.7687117488244
65,65,[-1.79272569e+03  3.53393184e+02 -7.95015414e-03 -1.31641694e+07],923,949.323637196909
66,66,[-1.73148063e+03  3.54394287e+02 -8.12720360e-03 -1.31641694e+07],260,949.3269769348801
67,67,[-1.73762934e+03  3.53392997e+02 -7.48083564e-03 -1.31641694e+07],653,950.3484865767518
68,68,[-1.74295158e+03  3.53392672e+02 -7.70667380e-03 -1.31641694e+07],432,952.1841595656628
69,69,[-1.77535721e+03  3.55394975e+02 -8.79593338e-03 -1.31641694e+07],276,952.0510573818843
70,70,[-1.85338139e+03  3.55395913e+02 -9.05381366e-03 -1.31641694e+07],563,951.9581467869392
71,71,[-1.82467125e+03  3.56396389e+02 -9.24678112e-03 -1.31641694e+07],573,952.9991984509676
72,72,[-1.76739943e+03  3.56396966e+02 -8.99233184e-03 -1.31641694e+07],951,953.2751818403348
73,73,[-1.75621669e+03  3.55396072e+02 -8.65098347e-03 -1.31641694e+07],665,952.2281503102115
74,74,[-1.79095563e+03  3.54394010e+02 -8.18880579e-03 -1.31641694e+07],202,950.7580789136117
75,75,[-1.71059928e+03  3.54394631e+02 -8.17203778e-03 -1.31641694e+07],380,949.7495631015117
76,76,[-1.75685411e+03  3.53392907e+02 -7.81994045e-03 -1.31641694e+07],119,950.3711867682657
77,77,[-1.75662689e+03  3.53392886e+02 -7.80250116e-03 -1.31641694e+07],213,951.9048006054219
78,78,[-1.78471646e+03  3.54394181e+02 -8.55765957e-03 -1.31641694e+07],680,951.459959519262
79,79,[-1.75186161e+03  3.56396447e+02 -9.23258093e-03 -1.31641694e+07],749,952.7749980932047
80,80,[-1.84202219e+03  3.56396192e+02 -9.71056909e-03 -1.31641694e+07],535,952.7123660429171
81,81,[-1.82282750e+03  3.55395056e+02 -8.92234153e-03 -1.31641694e+07],467,953.1615177970982
82,82,[-1.77584100e+03  3.55395055e+02 -8.79101103e-03 -1.31641694e+07],557,953.1967883563982
83,83,[-1.82777082e+03  3.53393249e+02 -7.87353920e-03 -1.31641694e+07],419,951.3013750165513
84,84,[-1.74496947e+03  3.54393900e+02 -8.35094910e-03 -1.31641694e+07],401,949.0715425149322
85,85,[-1.10844490e+03  2.79310157e+02 -1.15035903e-05 -1.31641694e+07],201,950.693813151618
86,86,[-1.75243301e+03  3.54393981e+02 -8.32914904e-03 -1.31641694e+07],465,952.5473787605653
87,87,[-1.88791343e+03  3.53392680e+02 -8.23471988e-03 -1.31641694e+07],129,951.9747303945089
88,88,[-1.79528151e+03  3.55395888e+02 -8.64021730e-03 -1.31641694e+07],394,953.1976201686153
89,89,[-1.81223179e+03  3.55395169e+02 -8.80043346e-03 -1.31641694e+07],654,953.4809967597076
90,90,[-1.81206803e+03  3.56396119e+02 -9.20672853e-03 -1.31641694e+07],556,952.7547442993805
91,91,[-1.77759150e+03  3.56396534e+02 -9.03869946e-03 -1.31641694e+07],627,953.2157585069963
92,92,[-1.72243711e+03  3.56396161e+02 -9.30103399e-03 -1.31641694e+07],461,952.6322946072328
93,93,[-1.79831189e+03  2.64294255e+02 -2.66845537e-02 -1.31641694e+07],713,949.8779216521154
94,94,[-1.76949099e+03  3.53393752e+02 -7.94134229e-03 -1.31641694e+07],570,948.1941247040024
95,95,[-1.59114835e+03  2.70300896e+02 -2.40033998e-02 -1.31641694e+07],644,948.5063468298106
96,96,[-1.58145298e+03  2.66296447e+02 -2.55815660e-02 -1.31641694e+07],732,951.3862438098813
97,97,[-1.76019394e+03  3.54394368e+02 -8.45157849e-03 -1.31641694e+07],839,951.5822941212045
98,98,[-1.75969588e+03  3.55395718e+02 -8.92630824e-03 -1.31641694e+07],649,951.8297177791836
99,99,[-1.81833985e+03  3.56397671e+02 -9.57073797e-03 -1.31641694e+07],377,952.8977642449223
100,100,[-1.80342267e+03  3.55394926e+02 -8.74325309e-03 -1.31641694e+07],926,953.4088020535982
101,101,[-1.82240210e+03  3.54393865e+02 -8.69258438e-03 -1.31641694e+07],567,953.6184017146621
102,102,[-1.78669298e+03  3.55394975e+02 -8.76367966e-03 -1.31641694e+07],754,952.8849175792411
103,103,[-1.79130483e+03  3.52393275e+02 -7.57284545e-03 -1.31641694e+07],469,951.8418841343217
104,104,[-1.35559797e+03  2.78305930e+02 -1.88885570e-05 -1.31641694e+07],475,950.745273113095
105,105,[-1.65568843e+03  2.64294364e+02 -2.70977622e-02 -1.31641694e+07],354,949.3523362237961
106,106,[-1.85409436e+03  2.67297424e+02 -2.50915598e-02 -1.31641694e+07],867,950.7470050272896
107,107,[-1.78332808e+03  3.54393922e+02 -8.38688412e-03 -1.31641694e+07],151,952.300403356272
108,108,[-1.75513799e+03  3.55394956e+02 -9.13457593e-03 -1.31641694e+07],373,951.4812010264817
109,109,[-1.85422300e+03  3.53393059e+02 -8.03429653e-03 -1.31641694e+07],739,952.1309578643695
110,110,[-1.79424094e+03  3.54393788e+02 -8.76199586e-03 -1.31641694e+07],671,952.6857537053729
111,111,[-1.70767155e+03  3.55395010e+02 -8.61871044e-03 -1.31641694e+07],117,951.6979228468165
112,112,[-1.59759806e+03  2.67298304e+02 -2.64202710e-02 -1.31641694e+07],180,948.7932036166175
113,113,[-1.68154308e+03  2.70300500e+02 -2.52305465e-02 -1.31641694e+07],685,948.17932501039
114,114,[-1.72672845e+03  2.69299287e+02 -2.40880663e-02 -1.31641694e+07],360,949.1736630667655
115,115,[-1.77938255e+03  3.54394927e+02 -8.80210253e-03 -1.31641694e+07],237,952.5130282123916
116,116,[-1.80908015e+03  3.55395080e+02 -8.88425238e-03 -1.31641694e+07],428,952.5137732870498
117,117,[-1.81753055e+03  3.54394048e+02 -8.66223999e-03 -1.31641694e+07],515,953.2950832233795
118,118,[-1.81666924e+03  3.56397194e+02 -9.87859538e-03 -1.31641694e+07],868,952.5921756639452
119,119,[-1.85457934e+03  3.54394223e+02 -8.71208259e-03 -1.31641694e+07],460,953.358175033251
120,120,[-1.84041607e+03  3.54394930e+02 -8.80027479e-03 -1.31641694e+07],719,953.5490488762513
121,121,[-1.80227998e+03  3.55395408e+02 -9.09187715e-03 -1.31641694e+07],225,953.015682450661
122,122,[-1.72260969e+03  3.55395101e+02 -9.12537577e-03 -1.31641694e+07],211,950.8794462272908
123,123,[-1.70846484e+03  2.63292726e+02 -2.75798712e-02 -1.31641694e+07],503,950.6518454447385
124,124,[-1.77517500e+03  2.71302218e+02 -2.48456348e-02 -1.31641694e+07],508,949.1848343713904
125,125,[-1.70427931e+03  2.66295913e+02 -2.57772436e-02 -1.31641694e+07],702,948.9169135219472
126,126,[-1.95891508e+03  2.68298742e+02 -2.44381156e-02 -1.31641694e+07],709,950.7815603162977
127,127,[-1.76543806e+03  3.54393915e+02 -9.04150953e-03 -1.31641694e+07],72,951.2542627607462
128,128,[-1.80938281e+03  3.55395472e+02 -9.49050248e-03 -1.31641694e+07],337,952.1176517117296
129,129,[-1.81670592e+03  3.54394790e+02 -8.84942388e-03 -1.31641694e+07],744,953.3439503364696
130,130,[-1.81157481e+03  3.53393553e+02 -8.28193848e-03 -1.31641694e+07],51,953.0281413325052
131,131,[-1.74038179e+03  3.55394985e+02 -9.20124117e-03 -1.31641694e+07],663,953.4889738568417
132,132,[-1.88660156e+03  2.61290370e+02 -2.92174894e-02 -1.31641694e+07],376,952.0442176101978
133,133,[-1.75286661e+03  3.54393866e+02 -8.64418323e-03 -1.31641694e+07],607,949.9461970561492
134,134,[-1.61651731e+03  2.67297094e+02 -2.67474960e-02 -1.31641694e+07],362,949.0464842831367
135,135,[-1.63223998e+03  2.69299385e+02 -2.62501637e-02 -1.31641694e+07],725,950.182863404212
136,136,[-1.77479903e+03  2.62292345e+02 -2.79706741e-02 -1.31641694e+07],189,952.556152204539
137,137,[-1.81053201e+03  3.54394239e+02 -9.17815660e-03 -1.31641694e+07],520,951.7825458980317
138,138,[-1.85658808e+03  3.53392843e+02 -8.52787314e-03 -1.31641694e+07],150,952.9219422120151
139,139,[-1.80769551e+03  3.53393412e+02 -8.38516726e-03 -1.31641694e+07],826,953.1284514763266
140,140,[-1.79908608e+03  3.54394288e+02 -8.86472227e-03 -1.31641694e+07],582,953.5221582113072
141,141,[-1.74295681e+03  3.54395117e+02 -8.35169261e-03 -1.31641694e+07],797,953.2057708246934
142,142,[-1.55343259e+03  3.53392749e+02 -4.45910717e-03 -1.31641694e+07],636,953.4569128874391
143,143,[-1.74929142e+03  3.55395852e+02 -9.37187683e-03 -1.31641694e+07],566,952.5115567278646
144,144,[-1.94589234e+03  2.64294133e+02 -2.81120596e-02 -1.31641694e+07],280,952.2192930585203
145,145,[-1.79046707e+03  2.66296416e+02 -2.82165633e-02 -1.31641694e+07],381,950.9616826671356
146,146,[-1.76864919e+03  2.71301512e+02 -2.56227946e-02 -1.31641694e+07],774,950.540770583991
147,147,[-1.98449260e+03  2.71301732e+02 -2.38052690e-02 -1.31641694e+07],324,951.1018281489038
148,148,[-1.89514662e+03  3.51391576e+02 -7.62304169e-03 -1.31641694e+07],704,952.890761742314
149,149,[-1.83153343e+03  3.53392686e+02 -8.48425195e-03 -1.31641694e+07],473,953.02510990893
150,150,[-1.81588957e+03  3.54394626e+02 -8.99358457e-03 -1.31641694e+07],305,953.2641579218974
151,151,[-1.58431303e+03  2.58287473e+02 -3.08440362e-02 -1.31641694e+07],274,953.3012577967888
152,152,[-1.76015070e+03  3.54393922e+02 -8.59413215e-03 -1.31641694e+07],727,952.2991326416816
153,153,[-1.86435012e+03  2.62291650e+02 -2.90901013e-02 -1.31641694e+07],18,951.1251493699872
154,154,[-1.79951473e+03  2.69299338e+02 -2.67109243e-02 -1.31641694e+07],646,951.6777900936105
155,155,[-1.91846709e+03  2.69300129e+02 -2.52631419e-02 -1.31641694e+07],560,951.9019273442625
156,156,[-1.73468479e+03  3.52391611e+02 -7.26463574e-03 -1.31641694e+07],9,951.5905005892744
157,157,[-1.85286620e+03  2.72302565e+02 -2.39821758e-02 -1.31641694e+07],865,949.7781862238305
158,158,[-1.50051245e+03  3.54394007e+02 -5.54648241e-03 -1.31641694e+07],909,947.7979564496651
159,159,[-1.33270120e+03  3.52391853e+02 -5.81206568e-03 -1.31641694e+07],433,950.2555166341771
160,160,[-1.52429059e+03  3.55395065e+02 -6.77800719e-03 -1.31641694e+07],776,950.8752954796827
161,161,[-1.58613072e+03  2.61290398e+02 -3.04226878e-02 -1.31641694e+07],860,951.266608255459
162,162,[-1.78703697e+03  3.53392755e+02 -8.62623366e-03 -1.31641694e+07],408,952.3497384077139
163,163,[-1.78000586e+03  3.54394539e+02 -9.05082093e-03 -1.31641694e+07],773,953.111513130212
164,164,[-1.50211550e+03  2.79310007e+02 -2.41635627e-05 -1.31641694e+07],177,953.2127635893145
165,165,[-1.92087515e+03  2.64294055e+02 -2.91583152e-02 -1.31641694e+07],291,952.3876230856681
166,166,[-1.68629450e+03  2.70300506e+02 -2.77444623e-02 -1.31641694e+07],534,951.5260152415975
167,167,[-1.76793662e+03  2.61290344e+02 -3.07824155e-02 -1.31641694e+07],519,952.4766432817632
168,168,[-1.76394199e+03  2.68298332e+02 -2.83288011e-02 -1.31641694e+07],610,952.356716073543
169,169,[-1.97122927e+03  2.71301496e+02 -2.64705580e-02 -1.31641694e+07],621,951.4846493445434
170,170,[-1.62087638e+03  3.53392752e+02 -6.10378407e-03 -1.31641694e+07],470,949.7620245232665
171,171,[-1.60893214e+03  3.53392704e+02 -6.10573609e-03 -1.31641694e+07],91,950.9526573668755
172,172,[-1.51995988e+03  3.53393051e+02 -4.07750057e-03 -1.31641694e+07],658,952.2102135615157
173,173,[-1.64068415e+03  3.54394589e+02 -7.41807841e-03 -1.31641694e+07],801,951.4457340310023
174,174,[-1.65244905e+03  3.53393270e+02 -8.12564727e-03 -1.31641694e+07],164,952.3419155258064
175,175,[-1.75058624e+03  2.62291594e+02 -3.04500004e-02 -1.31641694e+07],707,952.4086734733687
176,176,[-1.81456008e+03  2.63292755e+02 -3.12160359e-02 -1.31641694e+07],781,952.4844678898719
177,177,[-1.99816588e+03  2.65295199e+02 -2.93605233e-02 -1.31641694e+07],802,953.2333058885888
178,178,[-1.77794683e+03  3.54394127e+02 -9.24189156e-03 -1.31641694e+07],357,952.7235839695484
179,179,[-2.01826185e+03  2.67297004e+02 -2.77843221e-02 -1.31641694e+07],141,953.0221054476141
180,180,[-1.84363980e+03  2.70300563e+02 -2.72805447e-02 -1.31641694e+07],338,953.2940950153019
181,181,[-1.93084187e+03  2.70300970e+02 -2.83714612e-02 -1.31641694e+07],224,952.8652799359699
182,182,[-1.87947291e+03  2.70300492e+02 -2.81402053e-02 -1.31641694e+07],214,951.9099334661887
183,183,[-1.67227365e+03  3.53393330e+02 -7.47217450e-03 -1.31641694e+07],88,951.14132333337
184,184,[-1.53197021e+03  3.54394264e+02 -5.79157376e-03 -1.31641694e+07],82,950.6025245298781
185,185,[-1.52958774e+03  3.54395319e+02 -5.39551951e-03 -1.31641694e+07],715,951.3778334455117
186,186,[-1.94062777e+03  2.69299433e+02 -2.65877210e-02 -1.31641694e+07],322,952.6535050132115
187,187,[-1.91447260e+03  2.68298497e+02 -2.92092449e-02 -1.31641694e+07],359,951.8489497376273
188,188,[-2.43568581e+03  2.67297338e+02 -2.82503976e-02 -1.31641694e+07],281,952.4615754087013
189,189,[-2.04985942e+03  2.65295495e+02 -2.99265574e-02 -1.31641694e+07],500,953.2650530896045
190,190,[-2.02322318e+03  2.68298362e+02 -2.80745016e-02 -1.31641694e+07],301,953.4252170976035
191,191,[-2.28466923e+03  2.67297158e+02 -2.61301607e-02 -1.31641694e+07],502,953.1687310007951
192,192,[-1.97265553e+03  2.67297426e+02 -2.52361876e-02 -1.31641694e+07],546,952.7842556984714
193,193,[-1.93652468e+03  2.66296038e+02 -3.02844882e-02 -1.31641694e+07],431,951.8047995652963
194,194,[-1.68503298e+03  2.68299039e+02 -2.59663592e-02 -1.31641694e+07],308,950.5687388185677
195,195,[-1.48845804e+03  3.55396486e+02 -6.05857405e-03 -1.31641694e+07],779,950.0753871507546
196,196,[-1.51508281e+03  3.53392762e+02 -4.63730361e-03 -1.31641694e+07],459,951.2473699748416
197,197,[-1.57851807e+03  3.52392204e+02 -4.45186572e-03 -1.31641694e+07],691,951.5935121543328
198,198,[-1.74148281e+03  2.71302092e+02 -2.85738102e-02 -1.31641694e+07],443,952.261559312509
199,199,[-1.72097109e+03  2.70301224e+02 -2.98304987e-02 -1.31641694e+07],637,951.9546780085941
200,200,[-2.13717350e+03  2.71301505e+02 -2.77343083e-02 -1.31641694e+07],558,952.5555939793998
201,201,[-2.10786583e+03  2.70300708e+02 -2.77303531e-02 -1.31641694e+07],657,953.3458028235133
202,202,[-2.01166632e+03  2.69299755e+02 -2.82841914e-02 -1.31641694e+07],438,953.3601255594422
203,203,[-2.11251636e+03  2.65294968e+02 -2.67370664e-02 -1.31641694e+07],906,953.0070996247135
204,204,[-2.02307075e+03  2.69299306e+02 -2.90228799e-02 -1.31641694e+07],613,952.4836461749837
205,205,[-1.63311491e+03  3.54395332e+02 -7.56451374e-03 -1.31641694e+07],429,951.106436873016
206,206,[-1.62924278e+03  3.54393838e+02 -8.41827503e-03 -1.31641694e+07],775,951.1182855800544
207,207,[-1.44872153e+03  3.55396407e+02 -5.49821949e-03 -1.31641694e+07],191,951.5875012793574
208,208,[-1.60014988e+03  3.52391964e+02 -5.00755042e-03 -1.31641694e+07],718,952.1157646639114
209,209,[-1.56154984e+03  2.71301455e+02 -3.01193874e-02 -1.31641694e+07],806,951.4840747977801
210,210,[-1.98480676e+03  2.71301748e+02 -3.01840961e-02 -1.31641694e+07],606,952.3169676778072
211,211,[-2.17109545e+03  2.69299400e+02 -2.84379637e-02 -1.31641694e+07],833,953.2836196672189
212,212,[-1.70962654e+03  3.53394132e+02 -7.82334736e-03 -1.31641694e+07],611,952.9373113380951
213,213,[-1.68321681e+03  3.53393204e+02 -8.39873964e-03 -1.31641694e+07],837,953.3579695301227
214,214,[-1.98015550e+03  2.67297409e+02 -2.69630558e-02 -1.31641694e+07],81,953.2004092022199
215,215,[-2.09010064e+03  2.71302051e+02 -2.89035833e-02 -1.31641694e+07],647,950.6544451203846
216,216,[-1.62696311e+03  3.54394198e+02 -7.51074420e-03 -1.31641694e+07],326,948.6640726480857
217,217,[-1.39826071e+03  3.55395212e+02 -4.95206230e-03 -1.31641694e+07],628,949.5293699614555
218,218,[-1.44273241e+03  3.54395657e+02 -5.59905552e-03 -1.31641694e+07],674,948.5670273217032
219,219,[-1.40318736e+03  3.54394489e+02 -4.51688138e-03 -1.31641694e+07],881,950.0914766068721
220,220,[-1.51347536e+03  3.55395711e+02 -6.81687300e-03 -1.31641694e+07],780,951.5763160562029
221,221,[-1.69466643e+03  2.69299267e+02 -3.09419435e-02 -1.31641694e+07],862,950.4667315702404
222,222,[-2.18457880e+03  2.68299086e+02 -3.11236766e-02 -1.31641694e+07],730,951.1924323051695
223,223,[-1.61476929e+03  3.54393836e+02 -7.25699078e-03 -1.31641694e+07],612,952.3331311736779
224,224,[-1.66746559e+03  3.54393955e+02 -8.50038685e-03 -1.31641694e+07],888,953.2028442847812
225,225,[-1.77915115e+03  2.68298275e+02 -2.77634410e-02 -1.31641694e+07],622,953.2850103814961
226,226,[-1.58625563e+03  3.54394053e+02 -7.10108242e-03 -1.31641694e+07],407,953.1215832162623
227,227,[-1.73440881e+03  2.66296236e+02 -2.74820701e-02 -1.31641694e+07],425,952.7833706089041
228,228,[-1.63104298e+03  2.68299062e+02 -2.75892456e-02 -1.31641694e+07],711,951.259493865814
229,229,[-1.45338148e+03  3.55395178e+02 -5.52911566e-03 -1.31641694e+07],700,951.3871263655851
230,230,[-1.50351239e+03  3.55395487e+02 -6.52108432e-03 -1.31641694e+07],941,952.5789866403102
231,231,[-1.44887073e+03  3.53393750e+02 -4.08717720e-03 -1.31641694e+07],345,951.6343179980852
232,232,[-1.46940591e+03  3.53393379e+02 -4.34808874e-03 -1.31641694e+07],585,951.8504862485378
233,233,[-1.50768025e+03  3.54394295e+02 -5.55915401e-03 -1.31641694e+07],787,952.3479173173895
234,234,[-1.68317725e+03  3.53394469e+02 -8.59403500e-03 -1.31641694e+07],723,952.0073843682032
235,235,[-1.66754268e+03  3.54393775e+02 -8.34094299e-03 -1.31641694e+07],504,951.9393204646224
236,236,[-1.70826193e+03  3.54394726e+02 -8.08659024e-03 -1.31641694e+07],922,952.7375011023036
237,237,[-1.94685443e+03  2.66295989e+02 -2.84401411e-02 -1.31641694e+07],633,953.2905422543806
238,238,[-1.69749921e+03  3.53392910e+02 -8.50018734e-03 -1.31641694e+07],683,951.1233016134414
239,239,[-1.47053399e+03  3.55394907e+02 -5.80057147e-03 -1.31641694e+07],743,951.5120232814639
240,240,[-1.40126454e+03  3.54393925e+02 -3.95368926e-03 -1.31641694e+07],507,951.8251321406236
241,241,[-1.57671706e+03  2.66296063e+02 -2.76464755e-02 -1.31641694e+07],740,951.8745321724596
242,242,[-1.45993004e+03  2.67297119e+02 -2.83891854e-02 -1.31641694e+07],256,951.9802267284538
243,243,[-1.62730042e+03  3.55395126e+02 -7.82295757e-03 -1.31641694e+07],808,952.5514372094702
244,244,[-2.06385804e+03  2.70300341e+02 -2.92411138e-02 -1.31641694e+07],441,952.6601931498308
245,245,[-1.66218843e+03  3.54395727e+02 -8.84474126e-03 -1.31641694e+07],442,952.2391863334079
246,246,[-1.60746584e+03  3.54393931e+02 -7.27377446e-03 -1.31641694e+07],139,951.6294217546099
247,247,[-1.43187246e+03  3.54393914e+02 -4.85194743e-03 -1.31641694e+07],517,952.395039424266
248,248,[-1.51764970e+03  3.54393990e+02 -5.71766558e-03 -1.31641694e+07],676,952.8586071759552
249,249,[-1.44424789e+03  3.55395101e+02 -5.22083626e-03 -1.31641694e+07],803,952.3095906247775
250,250,[-1.57858970e+03  3.55395467e+02 -7.75825152e-03 -1.31641694e+07],379,952.1544510866643
251,251,[-1.81638189e+03  3.52392330e+02 -8.53049895e-03 -1.31641694e+07],226,952.8193907700431
252,252,[-1.67022468e+03  3.53394229e+02 -7.39353697e-03 -1.31641694e+07],823,953.4544208885795
253,253,[-1.72272915e+03  2.68299021e+02 -2.74138180e-02 -1.31641694e+07],745,951.9616722921977
254,254,[-1.58420717e+03  3.54394052e+02 -6.77186326e-03 -1.31641694e+07],163,952.2040770258731
255,255,[-1.48245726e+03  3.53394420e+02 -4.33476032e-03 -1.31641694e+07],430,952.5362536142402
256,256,[-1.48736683e+03  3.53392670e+02 -4.04205847e-03 -1.31641694e+07],796,953.1308676501737
257,257,[-1.86367526e+03  2.69299227e+02 -3.06380594e-02 -1.31641694e+07],698,952.0820411192477
258,258,[-1.58525351e+03  3.55394961e+02 -7.01052050e-03 -1.31641694e+07],457,952.4652190199487
259,259,[-1.55408808e+03  3.54394071e+02 -6.21239601e-03 -1.31641694e+07],950,952.697359475927
260,260,[-1.73909416e+03  3.53392711e+02 -8.42187471e-03 -1.31641694e+07],734,953.368247474522
261,261,[-1.51308261e+03  3.53393523e+02 -4.78985608e-03 -1.31641694e+07],40,952.2604307645255
262,262,[-1.66531773e+03  3.53392682e+02 -7.17289183e-03 -1.31641694e+07],928,952.5122112808081
263,263,[-1.48811772e+03  3.54394332e+02 -5.04843823e-03 -1.31641694e+07],667,952.758693048674
264,264,[-1.51522020e+03  3.53393136e+02 -4.64492244e-03 -1.31641694e+07],314,952.3224130980047
265,265,[-1.87081070e+03  2.68298426e+02 -2.94369764e-02 -1.31641694e+07],650,952.3960097830882
266,266,[-1.49906576e+03  3.55395133e+02 -6.07237619e-03 -1.31641694e+07],692,953.3710021477948
267,267,[-1.39028247e+03  3.55395028e+02 -4.96731942e-03 -1.31641694e+07],516,952.7809679524986
268,268,[-1.39018643e+03  3.54395428e+02 -3.82260347e-03 -1.31641694e+07],686,952.4673623104984
269,269,[-1.61736783e+03  3.54393862e+02 -8.61837835e-03 -1.31641694e+07],572,952.267234434787
270,270,[-1.49851139e+03  3.56396783e+02 -7.01222533e-03 -1.31641694e+07],832,951.6163755091836
271,271,[-1.51084457e+03  3.56396701e+02 -6.77607368e-03 -1.31641694e+07],670,952.2752564076106
272,272,[-1.48486848e+03  3.55394905e+02 -5.92534037e-03 -1.31641694e+07],466,952.6600564150567
273,273,[-1.56885752e+03  3.55396660e+02 -7.22847112e-03 -1.31641694e+07],562,953.4961147371343
274,274,[-1.57718249e+03  3.55395815e+02 -7.12882842e-03 -1.31641694e+07],361,953.2560803903655
275,275,[-1.73046042e+03  3.54394128e+02 -8.46363664e-03 -1.31641694e+07],684,953.0327090611185
276,276,[-1.61849338e+03  3.54393912e+02 -6.81813383e-03 -1.31641694e+07],900,953.3657728490796
277,277,[-1.52297858e+03  3.55395305e+02 -6.53074969e-03 -1.31641694e+07],287,952.9475100444412
278,278,[-1.42947189e+03  3.55394906e+02 -5.12210029e-03 -1.31641694e+07],694,951.604096172177
279,279,[-1.51860487e+03  3.55396054e+02 -6.59735478e-03 -1.31641694e+07],953,952.7935381141708
280,280,[-1.51416773e+03  3.54394770e+02 -5.59384707e-03 -1.31641694e+07],836,953.2594099934588
281,281,[-1.47607929e+03  3.53392905e+02 -4.26986260e-03 -1.31641694e+07],49,953.1951262082331
282,282,[-1.41039574e+03  3.55395366e+02 -4.89614616e-03 -1.31641694e+07],904,952.7903362472058
283,283,[-1.49440949e+03  3.55395494e+02 -6.16502598e-03 -1.31641694e+07],898,952.6757052114898
284,284,[-1.61000619e+03  3.54393949e+02 -8.12277706e-03 -1.31641694e+07],679,952.5161085117923
285,285,[-1.43510117e+03  3.55395971e+02 -5.44902243e-03 -1.31641694e+07],62,952.6595110176064
286,286,[-1.44940013e+03  3.55396487e+02 -5.45701408e-03 -1.31641694e+07],753,952.9039536427292
287,287,[-1.60561389e+03  3.54394356e+02 -7.54546785e-03 -1.31641694e+07],820,953.0758278461169
288,288,[-1.53106084e+03  3.55396449e+02 -6.86729560e-03 -1.31641694e+07],318,952.2281963579369
289,289,[-1.62978718e+03  3.54394480e+02 -9.31440657e-03 -1.31641694e+07],468,952.0322626844609
290,290,[-1.64485298e+03  3.55395253e+02 -8.30579961e-03 -1.31641694e+07],447,952.3454669856743
291,291,[-1.49050025e+03  3.55395616e+02 -6.01198676e-03 -1.31641694e+07],30,953.2332792360592
292,292,[-1.41685269e+03  3.54396123e+02 -4.47605419e-03 -1.31641694e+07],741,952.1561464176098
293,293,[-1.60995717e+03  3.53393051e+02 -6.78784596e-03 -1.31641694e+07],306,952.7243513699353
294,294,[-1.62996252e+03  3.53393225e+02 -6.06907042e-03 -1.31641694e+07],939,952.6677825597485
295,295,[-1.58791055e+03  3.55395626e+02 -7.18257793e-03 -1.31641694e+07],422,952.9281348533617
296,296,[-1.70260668e+03  3.54393871e+02 -8.73528054e-03 -1.31641694e+07],521,952.947105331751
297,297,[-1.70348322e+03  3.54394078e+02 -9.00625733e-03 -1.31641694e+07],538,952.6954712313899
298,298,[-1.43148023e+03  3.55395642e+02 -5.27301620e-03 -1.31641694e+07],634,952.9110669880475
299,299,[-1.56500294e+03  3.54395020e+02 -6.70794175e-03 -1.31641694e+07],309,953.4077929234909
300,300,[-1.63418863e+03  3.54394242e+02 -8.32172279e-03 -1.31641694e+07],564,952.8921067918312
301,301,[-1.51754633e+03  3.53393835e+02 -4.77681978e-03 -1.31641694e+07],458,953.1880555521685
302,302,[-1.50160346e+03  3.54394523e+02 -5.61226149e-03 -1.31641694e+07],733,952.9972230852054
303,303,[-1.45399729e+03  3.56396434e+02 -7.48095360e-03 -1.31641694e+07],666,952.6911064706119
304,304,[-1.67564214e+03  3.54394045e+02 -8.92615253e-03 -1.31641694e+07],952,952.2984480185082
305,305,[-1.44711840e+03  3.55395399e+02 -5.29645653e-03 -1.31641694e+07],901,953.25619504792
306,306,[-1.47957238e+03  3.53392892e+02 -4.29306436e-03 -1.31641694e+07],905,953.0534888969515
307,307,[-1.69781267e+03  3.53393057e+02 -7.45857279e-03 -1.31641694e+07],275,952.8975206489931
308,308,[-1.57060479e+03  3.53393725e+02 -5.61635310e-03 -1.31641694e+07],439,953.1813419647979
309,309,[-1.48644394e+03  3.53392924e+02 -4.85280561e-03 -1.31641694e+07],655,953.0416181220901
310,310,[-1.65135750e+03  3.53393055e+02 -7.89859317e-03 -1.31641694e+07],130,952.7188235053375
311,311,[-1.67463085e+03  3.53393381e+02 -7.31945390e-03 -1.31641694e+07],547,952.7730497637261
312,312,[-1.55455365e+03  3.51391340e+02 -4.12703751e-03 -1.31641694e+07],149,952.7929530420628
313,313,[-1.70420196e+03  3.53392718e+02 -7.69398998e-03 -1.31641694e+07],378,952.2246417454983
314,314,[-1.54249934e+03  3.53393283e+02 -5.09654611e-03 -1.31641694e+07],903,953.0951078742481
315,315,[-1.45400325e+03  3.55395520e+02 -5.49861828e-03 -1.31641694e+07],179,952.5836000625594
316,316,[-1.53082639e+03  3.53392856e+02 -5.08994431e-03 -1.31641694e+07],421,952.9191070553792
317,317,[-1.52848099e+03  3.53393600e+02 -4.84462217e-03 -1.31641694e+07],673,952.7575237260332
318,318,[-1.49466316e+03  3.55395347e+02 -6.24814035e-03 -1.31641694e+07],437,953.0591230187938
319,319,[-1.49944154e+03  3.55395197e+02 -6.32271509e-03 -1.31641694e+07],121,952.9733907428609
320,320,[-1.41914676e+03  3.56397480e+02 -6.28859436e-03 -1.31641694e+07],917,952.8915650237797
321,321,[-1.44871168e+03  3.54395228e+02 -4.65610984e-03 -1.31641694e+07],651,952.8978547838846
322,322,[-1.52557850e+03  3.54394195e+02 -5.58826665e-03 -1.31641694e+07],706,953.1959932675786
323,323,[-1.38758972e+03  3.55395169e+02 -4.86429486e-03 -1.31641694e+07],436,952.6047914494986
324,324,[-1.53545385e+03  3.55395968e+02 -7.27067053e-03 -1.31641694e+07],855,953.2571562141516
325,325,[-1.49545343e+03  3.54394467e+02 -5.27866643e-03 -1.31641694e+07],203,952.4064971536039
326,326,[-1.55929900e+03  3.54395197e+02 -6.66928611e-03 -1.31641694e+07],545,953.1608132902095
327,327,[-1.60348031e+03  3.54393886e+02 -7.00152391e-03 -1.31641694e+07],890,952.864374501305
328,328,[-1.63481818e+03  3.54394646e+02 -7.23467322e-03 -1.31641694e+07],735,952.5406285393941
329,329,[-1.49004151e+03  3.55395097e+02 -5.86738319e-03 -1.31641694e+07],856,952.4373684473874
330,330,[-1.48869417e+03  3.53392862e+02 -4.37971480e-03 -1.31641694e+07],71,952.8893162793195
331,331,[-1.58819664e+03  3.54395087e+02 -7.62943183e-03 -1.31641694e+07],940,952.818258089052
332,332,[-1.54678628e+03  3.55394994e+02 -7.29105574e-03 -1.31641694e+07],302,952.7756780538756
333,333,[-1.63224992e+03  3.53392991e+02 -6.01107386e-03 -1.31641694e+07],876,952.8463721817998
334,334,[-1.52359391e+03  3.55395019e+02 -6.59925073e-03 -1.31641694e+07],944,952.9775752257299
335,335,[-1.62389765e+03  3.55395395e+02 -7.95856197e-03 -1.31641694e+07],42,952.8160450947387
336,336,[-1.48213504e+03  3.55395130e+02 -6.06548016e-03 -1.31641694e+07],825,953.5777042468852
337,337,[-1.43363515e+03  3.55395367e+02 -5.70808158e-03 -1.31641694e+07],452,953.2738686593034
338,338,[-1.50006651e+03  3.55396079e+02 -6.49250843e-03 -1.31641694e+07],625,953.2057657933501
339,339,[-1.72297388e+03  3.52392119e+02 -7.91270557e-03 -1.31641694e+07],742,952.5355965864812
340,340,[-1.51123186e+03  3.53392721e+02 -5.74494671e-03 -1.31641694e+07],784,950.8761785671807
341,341,[-1.50444611e+03  3.54393847e+02 -6.35161093e-03 -1.31641694e+07],668,951.94172923015
342,342,[-1.48126967e+03  3.53393376e+02 -4.20332307e-03 -1.31641694e+07],579,952.0700735546751
343,343,[-1.47933031e+03  3.56396641e+02 -7.84454253e-03 -1.31641694e+07],884,951.9214159359174
344,344,[-1.62377851e+03  3.54394608e+02 -7.01875194e-03 -1.31641694e+07],699,952.9702614832039
345,345,[-1.64487474e+03  3.54393850e+02 -7.51672389e-03 -1.31641694e+07],10,953.1465538638827
346,346,[-1.68237663e+03  3.53392849e+02 -8.48095316e-03 -1.31641694e+07],921,952.9278442457885
347,347,[-1.50349560e+03  3.54393904e+02 -5.49944624e-03 -1.31641694e+07],334,951.2425264751457
348,348,[-1.40435241e+03  3.55395144e+02 -5.39679051e-03 -1.31641694e+07],319,949.7464737480906
349,349,[-1.32863907e+03  3.55395063e+02 -4.18094521e-03 -1.31641694e+07],474,952.0633853917701
350,350,[-1.39580546e+03  3.55395085e+02 -5.01402306e-03 -1.31641694e+07],697,952.1233743220192
351,351,[-1.51355111e+03  3.55395232e+02 -7.07178923e-03 -1.31641694e+07],463,951.7729328712439
352,352,[-1.50141708e+03  3.55395745e+02 -6.65618842e-03 -1.31641694e+07],344,952.8756843071882
353,353,[-1.53018464e+03  3.55394885e+02 -7.20181976e-03 -1.31641694e+07],747,952.7121147242033
354,354,[-1.74911425e+03  3.52392034e+02 -8.45504116e-03 -1.31641694e+07],409,953.3030062263963
355,355,[-1.67426707e+03  3.52392780e+02 -8.84456969e-03 -1.31641694e+07],911,951.5292435430302
356,356,[-1.44319084e+03  3.54394353e+02 -4.89582757e-03 -1.31641694e+07],632,951.6468727340629
357,357,[-1.48635438e+03  3.53392945e+02 -4.40106939e-03 -1.31641694e+07],490,953.2066615839349
358,358,[-1.42722580e+03  3.54394623e+02 -4.39218397e-03 -1.31641694e+07],565,952.7384781534978
359,359,[-1.45767133e+03  3.55395086e+02 -5.53961100e-03 -1.31641694e+07],919,953.1959360294325
360,360,[-1.54429919e+03  3.55395273e+02 -6.98771910e-03 -1.31641694e+07],404,953.2932085563738
361,361,[-1.40521079e+03  3.55395117e+02 -4.77854796e-03 -1.31641694e+07],499,953.0848887735754
362,362,[-1.49720828e+03  3.55395458e+02 -6.19549595e-03 -1.31641694e+07],568,953.2687582152766
363,363,[-1.43203256e+03  3.55396474e+02 -5.30159398e-03 -1.31641694e+07],764,952.0755071244388
364,364,[-1.36320296e+03  3.56396464e+02 -5.45561830e-03 -1.31641694e+07],714,950.9926715963833
365,365,[-1.39722844e+03  3.54394401e+02 -4.38508254e-03 -1.31641694e+07],618,950.5432886115173
366,366,[-1.60159926e+03  3.53392704e+02 -5.96352693e-03 -1.31641694e+07],731,952.508807425404
367,367,[-1.57674291e+03  3.55395102e+02 -8.78096228e-03 -1.31641694e+07],277,951.7161569412963
368,368,[-1.59929468e+03  3.55395015e+02 -7.39058277e-03 -1.31641694e+07],296,952.9022333590549
369,369,[-1.43306902e+03  3.55395539e+02 -5.20902885e-03 -1.31641694e+07],690,952.8780204596958
370,370,[-1.50117401e+03  3.55395984e+02 -6.31658768e-03 -1.31641694e+07],661,953.4928557967285
371,371,[-1.46281933e+03  3.55394921e+02 -5.64926309e-03 -1.31641694e+07],838,953.5262009738434
372,372,[-1.51522104e+03  3.55395757e+02 -6.80367132e-03 -1.31641694e+07],212,953.3761410075338
373,373,[-1.58648299e+03  3.53393033e+02 -6.60180791e-03 -1.31641694e+07],512,953.2965607385624
374,374,[-1.45660077e+03  3.54394684e+02 -5.11271273e-03 -1.31641694e+07],295,953.3842909483897
375,375,[-1.48343798e+03  3.54394575e+02 -5.42204093e-03 -1.31641694e+07],824,953.4496498070181
376,376,[-1.55861530e+03  3.54394670e+02 -6.92982266e-03 -1.31641694e+07],769,953.2694244582453
377,377,[-1.39553075e+03  3.55396318e+02 -5.05194133e-03 -1.31641694e+07],346,953.3164657330024
378,378,[-1.55758273e+03  3.54394592e+02 -6.33826466e-03 -1.31641694e+07],851,953.0246074658295
379,379,[-1.55467054e+03  3.54394337e+02 -6.08882210e-03 -1.31641694e+07],599,953.12324898058
380,380,[-1.51073106e+03  3.53392880e+02 -4.47321311e-03 -1.31641694e+07],138,953.3584840762934
381,381,[-1.51432581e+03  3.53393923e+02 -4.70241776e-03 -1.31641694e+07],316,953.2587178517755
382,382,[-1.56866979e+03  3.52391901e+02 -5.04528827e-03 -1.31641694e+07],678,953.4065284870187
383,383,[-1.39849801e+03  3.55395728e+02 -4.83950551e-03 -1.31641694e+07],454,952.7911998195704
384,384,[-1.49193251e+03  3.55395412e+02 -6.13179755e-03 -1.31641694e+07],48,951.3085815648041
385,385,[-1.53225415e+03  3.53393327e+02 -5.33639906e-03 -1.31641694e+07],298,949.9252324072319
386,386,[-1.45835933e+03  3.54394288e+02 -5.13260115e-03 -1.31641694e+07],395,949.6050476629439
387,387,[-1.36860998e+03  3.54394177e+02 -4.84296626e-03 -1.31641694e+07],886,948.0417828132925
388,388,[-1.39541841e+03  3.54394877e+02 -5.53525704e-03 -1.31641694e+07],440,949.2230500849134
389,389,[-1.36443322e+03  3.55395480e+02 -5.11194960e-03 -1.31641694e+07],505,949.8112276763553
390,390,[-1.48930288e+03  3.55394992e+02 -6.12683961e-03 -1.31641694e+07],859,949.3503146716475
391,391,[-1.37007061e+03  3.55395118e+02 -4.67363703e-03 -1.31641694e+07],286,950.7487873495036
392,392,[-1.63602983e+03  3.54393837e+02 -8.52012494e-03 -1.31641694e+07],368,952.3352210944057
393,393,[-1.59195922e+03  3.53393958e+02 -6.24650253e-03 -1.31641694e+07],50,952.7365169782793
394,394,[-1.38082445e+03  3.55395492e+02 -4.60291075e-03 -1.31641694e+07],321,953.3426340024713
395,395,[-1.55344795e+03  3.53393667e+02 -5.01755762e-03 -1.31641694e+07],99,952.9092631565046
396,396,[-1.48748996e+03  3.55395247e+02 -5.79327552e-03 -1.31641694e+07],307,952.1725063908866
397,397,[-1.62898025e+03  3.53392869e+02 -7.39559075e-03 -1.31641694e+07],933,951.7776226510636
398,398,[-1.44619569e+03  3.54394046e+02 -4.87133655e-03 -1.31641694e+07],916,952.7831522908925
399,399,[-1.39886218e+03  3.55395122e+02 -4.85045873e-03 -1.31641694e+07],896,952.7576023243396
400,400,[-1.52614773e+03  3.55396062e+02 -7.33009756e-03 -1.31641694e+07],540,952.6726727587409
401,401,[-1.41704094e+03  3.55395552e+02 -4.96085133e-03 -1.31641694e+07],300,953.3475066678606
402,402,[-1.42904151e+03  3.55394891e+02 -6.09208749e-03 -1.31641694e+07],798,952.0154285914197
403,403,[-1.43340591e+03  3.54393912e+02 -4.73330143e-03 -1.31641694e+07],320,951.5625795740987
404,404,[-1.43660380e+03  3.54393897e+02 -4.62566485e-03 -1.31641694e+07],148,952.9579119674336
405,405,[-1.46906953e+03  3.54394387e+02 -5.07599587e-03 -1.31641694e+07],524,951.8461669255055
406,406,[-1.58431211e+03  3.53394019e+02 -6.44718770e-03 -1.31641694e+07],330,952.785200691569
407,407,[-1.60480049e+03  3.53393133e+02 -7.68934483e-03 -1.31641694e+07],793,953.1519063674609
408,408,[-1.51243326e+03  3.54393940e+02 -5.63503436e-03 -1.31641694e+07],102,953.2361052294013
409,409,[-1.45992567e+03  3.53392745e+02 -4.07549808e-03 -1.31641694e+07],369,952.963248166272
410,410,[-1.40422370e+03  3.55395253e+02 -5.00476578e-03 -1.31641694e+07],352,952.3050922755903
411,411,[-1.42126681e+03  3.54394336e+02 -4.56151965e-03 -1.31641694e+07],609,951.678429791187
412,412,[-1.55261847e+03  3.54393950e+02 -6.53728611e-03 -1.31641694e+07],948,952.2735894658804
413,413,[-1.39284474e+03  3.56396222e+02 -5.74155705e-03 -1.31641694e+07],736,951.984942658361
414,414,[-1.56355510e+03  3.55394960e+02 -6.74489971e-03 -1.31641694e+07],550,952.4290181760497
415,415,[-1.66685666e+03  3.53393764e+02 -7.68234448e-03 -1.31641694e+07],450,952.6561035057673
416,416,[-1.49022318e+03  3.54393934e+02 -5.49882017e-03 -1.31641694e+07],746,953.5600229819604
417,417,[-1.48778484e+03  3.54394784e+02 -5.47094418e-03 -1.31641694e+07],695,952.4225269546821
418,418,[-1.51828784e+03  3.53393193e+02 -5.26681570e-03 -1.31641694e+07],181,952.7666589657539
419,419,[-1.50107621e+03  3.53393743e+02 -4.62691878e-03 -1.31641694e+07],327,953.3493107678552
420,420,[-1.47839437e+03  3.53393209e+02 -4.46712583e-03 -1.31641694e+07],648,953.3852720439161
421,421,[-1.49377557e+03  3.54394340e+02 -5.84649586e-03 -1.31641694e+07],828,953.0206399309694
422,422,[-1.48210319e+03  3.55395375e+02 -6.22194459e-03 -1.31641694e+07],248,953.0493116301348
423,423,[-1.39790423e+03  3.55395502e+02 -4.82149438e-03 -1.31641694e+07],794,953.5838837873505
424,424,[-1.48290148e+03  3.54394616e+02 -5.27700060e-03 -1.31641694e+07],333,953.4483434507608
425,425,[-1.46447957e+03  3.55395253e+02 -6.31653513e-03 -1.31641694e+07],721,953.1508718795819
426,426,[-1.44340808e+03  3.55396141e+02 -5.50823240e-03 -1.31641694e+07],533,951.4697238323402
427,427,[-1.43689447e+03  3.55394909e+02 -5.60869101e-03 -1.31641694e+07],717,952.6758387511715
428,428,[-1.41769347e+03  3.55396992e+02 -5.19553561e-03 -1.31641694e+07],937,953.2889640489647
429,429,[-1.40880104e+03  3.54394408e+02 -4.15086975e-03 -1.31641694e+07],600,953.1689397676321
430,430,[-1.63334786e+03  3.54395210e+02 -8.10326094e-03 -1.31641694e+07],629,953.1097986193461
431,431,[-1.45789382e+03  3.55395836e+02 -5.67536890e-03 -1.31641694e+07],60,953.1838825148285
432,432,[-1.45285829e+03  3.55396362e+02 -5.89310996e-03 -1.31641694e+07],724,953.3672755879328
433,433,[-1.53756565e+03  3.54394047e+02 -6.97656746e-03 -1.31641694e+07],914,953.2387191804719
434,434,[-1.48217488e+03  3.55395648e+02 -6.26233675e-03 -1.31641694e+07],251,951.9695734616216
435,435,[-1.45378509e+03  3.55395995e+02 -5.93809194e-03 -1.31641694e+07],331,952.2668718660613
436,436,[-1.47020460e+03  3.55394893e+02 -5.99482340e-03 -1.31641694e+07],335,953.0128682477183
437,437,[-1.60534093e+03  3.52391782e+02 -5.94860980e-03 -1.31641694e+07],850,953.0190692802526
438,438,[-1.45063958e+03  3.55396725e+02 -5.44891153e-03 -1.31641694e+07],829,953.1729059503234
439,439,[-1.44016171e+03  3.56396128e+02 -6.37453811e-03 -1.31641694e+07],902,953.0323908516658
440,440,[-1.43902906e+03  3.56396673e+02 -6.69302990e-03 -1.31641694e+07],755,952.9081960441436
441,441,[-1.50692164e+03  3.54394795e+02 -6.25569276e-03 -1.31641694e+07],643,953.1288580199066
442,442,[-1.58988331e+03  3.52391966e+02 -5.02557329e-03 -1.31641694e+07],805,953.1287274671539
443,443,[-1.60764421e+03  3.52392135e+02 -5.40163339e-03 -1.31641694e+07],783,953.1785264981147
444,444,[-1.51080173e+03  3.53394276e+02 -4.85635575e-03 -1.31641694e+07],662,952.5296612694634
445,445,[-1.44946870e+03  3.55395008e+02 -5.71429425e-03 -1.31641694e+07],785,952.6083238347424
446,446,[-1.46772087e+03  3.54394726e+02 -5.21255422e-03 -1.31641694e+07],689,952.6801237894905
447,447,[-1.39965161e+03  3.55396157e+02 -4.79674700e-03 -1.31641694e+07],620,953.0555927119782
448,448,[-1.45244463e+03  3.54394520e+02 -5.71005217e-03 -1.31641694e+07],771,952.7340717042931
449,449,[-1.66218928e+03  3.53392789e+02 -7.84000284e-03 -1.31641694e+07],41,951.8029539175286
450,450,[-1.46602246e+03  3.54394110e+02 -5.14912405e-03 -1.31641694e+07],575,952.8694414693662
451,451,[-1.40632940e+03  3.54393804e+02 -4.10777206e-03 -1.31641694e+07],279,952.7479437006527
452,452,[-1.52422379e+03  3.54394110e+02 -6.87419365e-03 -1.31641694e+07],489,952.989079369327
453,453,[-1.45620258e+03  3.54393775e+02 -4.86123179e-03 -1.31641694e+07],312,952.7267235945585
454,454,[-1.52353979e+03  3.53392909e+02 -4.94932367e-03 -1.31641694e+07],788,952.9119372545478
455,455,[-1.51418440e+03  3.55395525e+02 -6.78532894e-03 -1.31641694e+07],383,952.2770118195817
456,456,[-1.49686701e+03  3.55396704e+02 -6.56275023e-03 -1.31641694e+07],282,952.6289460487387
457,457,[-1.47655485e+03  3.53393088e+02 -4.43730823e-03 -1.31641694e+07],522,953.103393034211
458,458,[-1.46349986e+03  3.53394300e+02 -4.13693664e-03 -1.31641694e+07],406,953.0408861537593
459,459,[-1.48773395e+03  3.54394341e+02 -6.13019044e-03 -1.31641694e+07],192,953.179115882807
460,460,[-1.47381394e+03  3.53392772e+02 -4.20594676e-03 -1.31641694e+07],887,953.2857417817887
461,461,[-1.39331300e+03  3.55395151e+02 -5.00795402e-03 -1.31641694e+07],227,953.3364465442517
462,462,[-1.51527600e+03  3.54393900e+02 -6.46483319e-03 -1.31641694e+07],398,952.6836308629483
463,463,[-1.52801512e+03  3.53393143e+02 -4.76393614e-03 -1.31641694e+07],267,952.9703170272993
464,464,[-1.53879564e+03  3.55395496e+02 -7.40177587e-03 -1.31641694e+07],708,952.70400920809
465,465,[-1.39615018e+03  3.55395224e+02 -5.05940546e-03 -1.31641694e+07],332,953.3454168993763
466,466,[-1.44885785e+03  3.55396038e+02 -5.83365984e-03 -1.31641694e+07],79,953.0863745724126
467,467,[-1.41817200e+03  3.55396023e+02 -5.10335996e-03 -1.31641694e+07],39,953.3543098316542
468,468,[-1.53060556e+03  3.55395042e+02 -6.93147311e-03 -1.31641694e+07],311,953.058650299659
469,469,[-1.71294646e+03  3.52392982e+02 -8.74018505e-03 -1.31641694e+07],722,953.3072364623912
470,470,[-1.39168253e+03  3.54395092e+02 -4.09684074e-03 -1.31641694e+07],656,953.2185392781731
471,471,[-1.48514946e+03  3.53393280e+02 -4.37509312e-03 -1.31641694e+07],927,953.4266776754786
472,472,[-1.51182794e+03  3.54395350e+02 -6.48073712e-03 -1.31641694e+07],580,952.5962298699377
473,473,[-1.59039929e+03  3.52392921e+02 -4.84823516e-03 -1.31641694e+07],418,953.2562686438799
474,474,[-1.50902889e+03  3.54394570e+02 -6.08860609e-03 -1.31641694e+07],729,952.9733441148361
475,475,[-1.45851072e+03  3.54394011e+02 -5.24027200e-03 -1.31641694e+07],263,953.3036192862513
476,476,[-1.49400133e+03  3.55394984e+02 -7.44695802e-03 -1.31641694e+07],399,952.6318814101621
477,477,[-1.41957242e+03  3.54394344e+02 -4.70183065e-03 -1.31641694e+07],317,950.8709745281882
478,478,[-1.40517863e+03  3.54394233e+02 -4.67964363e-03 -1.31641694e+07],90,951.4626620704275
479,479,[-1.50679574e+03  3.52392982e+02 -3.95005842e-03 -1.31641694e+07],830,952.268111747324
480,480,[-1.42938458e+03  3.55397156e+02 -5.36851951e-03 -1.31641694e+07],772,952.2778480522202
481,481,[-1.68894555e+03  3.53393143e+02 -8.22537818e-03 -1.31641694e+07],451,952.1412986200129
482,482,[-1.44555201e+03  3.55395856e+02 -5.55216534e-03 -1.31641694e+07],660,953.5091990779554
483,483,[-1.41662163e+03  3.56396066e+02 -6.74458827e-03 -1.31641694e+07],925,952.2666525268637
484,484,[-1.43300195e+03  3.55395286e+02 -5.73434675e-03 -1.31641694e+07],358,952.0554503069677
485,485,[-1.41906354e+03  3.54394572e+02 -4.67109601e-03 -1.31641694e+07],236,951.3461635935861
486,486,[-1.44241795e+03  3.53393486e+02 -4.07538313e-03 -1.31641694e+07],631,951.6665696246059
487,487,[-1.39634990e+03  3.55395195e+02 -5.78576773e-03 -1.31641694e+07],393,950.5652942081763
488,488,[-1.66116576e+03  3.53393074e+02 -8.72466318e-03 -1.31641694e+07],897,951.7571472354716
489,489,[-1.53767694e+03  3.54394208e+02 -5.59055274e-03 -1.31641694e+07],448,952.7929808850031
490,490,[-1.51907965e+03  3.54393797e+02 -5.81146455e-03 -1.31641694e+07],453,952.9617449794781
491,491,[-1.45546099e+03  3.56396540e+02 -6.84822427e-03 -1.31641694e+07],25,952.356427182213
492,492,[-1.51654820e+03  3.53393171e+02 -5.35603937e-03 -1.31641694e+07],293,952.1674720884636
493,493,[-1.42552199e+03  3.54394604e+02 -5.01614005e-03 -1.31641694e+07],178,950.8421462596629
494,494,[-1.47900733e+03  3.53392817e+02 -4.83244180e-03 -1.31641694e+07],310,951.9275310840166
495,495,[-1.41136160e+03  3.55396062e+02 -5.41671770e-03 -1.31641694e+07],799,952.2756848941227
496,496,[-1.63183785e+03  3.53392729e+02 -8.23233297e-03 -1.31641694e+07],80,951.4594513777848
497,497,[-1.44789602e+03  3.56396364e+02 -6.76941888e-03 -1.31641694e+07],353,952.4135594652439
498,498,[-1.55773164e+03  3.54394255e+02 -5.91332341e-03 -1.31641694e+07],588,952.6902791910446
499,499,[-1.65727683e+03  3.53394275e+02 -7.12002996e-03 -1.31641694e+07],464,952.9578080747434
500,500,[-1.47087251e+03  3.55395252e+02 -5.96576578e-03 -1.31641694e+07],840,953.1935602193129
501,501,[-1.47688172e+03  3.54394028e+02 -5.43572389e-03 -1.31641694e+07],554,953.4352462053996
502,502,[-1.47006867e+03  3.54393960e+02 -5.64917479e-03 -1.31641694e+07],605,953.1853227786823
503,503,[-1.56360323e+03  3.53392836e+02 -5.85639432e-03 -1.31641694e+07],778,953.2825833443896
504,504,[-1.69242737e+03  3.53393094e+02 -8.29767941e-03 -1.31641694e+07],259,953.1436842161087
505,505,[-1.48214554e+03  3.55395232e+02 -5.94733939e-03 -1.31641694e+07],297,952.9075884650691
506,506,[-1.46343381e+03  3.54395018e+02 -5.02758898e-03 -1.31641694e+07],918,953.4282311656925
507,507,[-1.54046716e+03  3.53393612e+02 -5.29203180e-03 -1.31641694e+07],303,953.1341729392414
508,508,[-1.45729569e+03  3.55396026e+02 -5.85103795e-03 -1.31641694e+07],498,953.2823491933276
509,509,[-1.66020570e+03  3.51390887e+02 -1.05110792e-02 -1.31641694e+07],110,952.5420049287525
510,510,[-1.48033016e+03  3.53393091e+02 -4.63078220e-03 -1.31641694e+07],462,951.2992240301013
511,511,[-1.37802592e+03  3.55394951e+02 -5.07317148e-03 -1.31641694e+07],446,951.0105620479977
512,512,[-1.41031646e+03  3.54394642e+02 -4.41039890e-03 -1.31641694e+07],427,952.9328880757637
513,513,[-1.35669579e+03  3.56396865e+02 -5.76090338e-03 -1.31641694e+07],283,951.5393732464496
514,514,[-1.60935918e+03  3.54394613e+02 -7.20574940e-03 -1.31641694e+07],400,952.0766659685721
515,515,[-1.61207319e+03  3.53393099e+02 -6.60361810e-03 -1.31641694e+07],882,953.2879454229893
516,516,[-1.48818182e+03  3.54394394e+02 -5.32164024e-03 -1.31641694e+07],294,953.0927938089314
517,517,[-1.40863461e+03  3.55395139e+02 -5.44031764e-03 -1.31641694e+07],879,953.1281811566329
518,518,[-1.45112269e+03  3.54393793e+02 -4.91865790e-03 -1.31641694e+07],34,953.4058321390653
519,519,[-1.45107338e+03  3.54393783e+02 -5.01319331e-03 -1.31641694e+07],244,953.229275922307
520,520,[-1.54198812e+03  3.53392939e+02 -5.80782656e-03 -1.31641694e+07],272,953.2642814529912
521,521,[-1.39569014e+03  3.55395475e+02 -5.40201080e-03 -1.31641694e+07],285,953.0446783674929
522,522,[-1.54429424e+03  3.54394971e+02 -6.49218766e-03 -1.31641694e+07],812,952.7895082359942
523,523,[-1.47585663e+03  3.53392835e+02 -4.23770087e-03 -1.31641694e+07],415,952.4077532325143
524,524,[-1.68223559e+03  3.53393552e+02 -7.82379935e-03 -1.31641694e+07],770,952.8899502436749
525,525,[-1.57497346e+03  3.54394251e+02 -6.93540497e-03 -1.31641694e+07],931,953.3872678199972
526,526,[-1.43351981e+03  3.55394920e+02 -5.49340073e-03 -1.31641694e+07],186,952.6208118949191
527,527,[-1.41637154e+03  3.54393815e+02 -4.81152195e-03 -1.31641694e+07],659,951.0967350906385
528,528,[-1.41471259e+03  3.54393989e+02 -4.98898586e-03 -1.31641694e+07],59,949.7413261386399
529,529,[-1.42226928e+03  3.53392707e+02 -4.62567791e-03 -1.31641694e+07],728,948.6744757568224
530,530,[-1.40203790e+03  3.54394343e+02 -4.71190403e-03 -1.31641694e+07],795,952.2445068086464
531,531,[-1.43618382e+03  3.55395341e+02 -5.78564665e-03 -1.31641694e+07],696,951.1090201740121
532,532,[-1.50480067e+03  3.55395140e+02 -6.39235673e-03 -1.31641694e+07],768,951.5974357765211
533,533,[-1.47801711e+03  3.54394150e+02 -5.13919862e-03 -1.31641694e+07],92,952.8407439470056
534,534,[-1.66522558e+03  3.53392726e+02 -7.82356125e-03 -1.31641694e+07],476,953.2302180036739
535,535,[-1.62534496e+03  3.53393516e+02 -7.44608500e-03 -1.31641694e+07],559,953.3554160223657
536,536,[-1.44906648e+03  3.55396401e+02 -5.87220271e-03 -1.31641694e+07],456,953.478852743191
537,537,[-1.50361898e+03  3.53393201e+02 -5.20905119e-03 -1.31641694e+07],942,953.4480829306868
538,538,[-1.42965985e+03  3.55394954e+02 -6.06824144e-03 -1.31641694e+07],752,953.0428767925463
539,539,[-1.50436735e+03  3.53393242e+02 -4.92541137e-03 -1.31641694e+07],608,952.1913002488433
540,540,[-1.47268143e+03  3.54395035e+02 -5.19641387e-03 -1.31641694e+07],635,952.8921153422281
541,541,[-1.42398474e+03  3.55395006e+02 -6.14197240e-03 -1.31641694e+07],526,951.7881043998046
542,542,[-1.42881119e+03  3.55394988e+02 -5.70437335e-03 -1.31641694e+07],936,951.4929822906281
543,543,[-1.46863290e+03  3.55395482e+02 -5.98796884e-03 -1.31641694e+07],578,952.6037773225036
544,544,[-1.44722972e+03  3.56397022e+02 -6.23073312e-03 -1.31641694e+07],561,952.4851296566824
545,545,[-1.58957344e+03  3.53393424e+02 -5.75799654e-03 -1.31641694e+07],777,953.0058355578032
546,546,[-1.48435820e+03  3.54395542e+02 -5.48968331e-03 -1.31641694e+07],445,953.1851440743345
547,547,[-1.41061339e+03  3.55395238e+02 -5.29637130e-03 -1.31641694e+07],323,953.0265071889711
548,548,[-1.50138404e+03  3.54393944e+02 -6.12545974e-03 -1.31641694e+07],543,952.5649427043498
549,549,[-1.44024011e+03  3.55394947e+02 -5.75857407e-03 -1.31641694e+07],617,951.5032206073083
550,550,[-1.42402323e+03  3.54393970e+02 -4.66508360e-03 -1.31641694e+07],472,952.8702354414748
551,551,[-1.49942712e+03  3.53393249e+02 -4.92025968e-03 -1.31641694e+07],932,952.0777046788572
552,552,[-1.65243976e+03  3.53392839e+02 -8.57242019e-03 -1.31641694e+07],630,951.8784062178902
553,553,[-1.65627162e+03  3.53392821e+02 -8.54350305e-03 -1.31641694e+07],118,952.3971137704552
554,554,[-1.50408453e+03  3.55394938e+02 -6.66187894e-03 -1.31641694e+07],878,952.7022724268487
555,555,[-1.79898168e+03  3.52392104e+02 -9.41020679e-03 -1.31641694e+07],639,952.571381907567
556,556,[-1.47322998e+03  3.55396003e+02 -6.11385751e-03 -1.31641694e+07],315,953.3416439477759
557,557,[-1.56879594e+03  3.54394070e+02 -6.81444671e-03 -1.31641694e+07],230,953.3514062361901
558,558,[-1.49192043e+03  3.54394634e+02 -5.99434375e-03 -1.31641694e+07],555,953.1758399954238
559,559,[-1.54876540e+03  3.53392670e+02 -5.81600788e-03 -1.31641694e+07],817,952.6310266063675
560,560,[-1.49856680e+03  3.53392765e+02 -4.37748105e-03 -1.31641694e+07],548,953.2426420109333
561,561,[-1.43965279e+03  3.56396168e+02 -6.27555569e-03 -1.31641694e+07],136,952.6156852230969
562,562,[-1.68115659e+03  3.53393472e+02 -7.66954833e-03 -1.31641694e+07],200,953.0853884904349
563,563,[-1.65953601e+03  3.53393007e+02 -7.39591762e-03 -1.31641694e+07],792,953.3655402105139
564,564,[-1.61491646e+03  3.54394644e+02 -6.94585700e-03 -1.31641694e+07],243,953.0409730483883
565,565,[-1.46068912e+03  3.55394994e+02 -5.84136718e-03 -1.31641694e+07],577,952.9617353624222
566,566,[-1.47734603e+03  3.54395633e+02 -5.37763402e-03 -1.31641694e+07],46,953.2610189049593
567,567,[-1.45116050e+03  3.55396092e+02 -5.99713758e-03 -1.31641694e+07],86,953.3106152623412
568,568,[-1.54756930e+03  3.53393932e+02 -5.95653329e-03 -1.31641694e+07],675,952.957602666032
569,569,[-1.41853287e+03  3.55394979e+02 -5.44181694e-03 -1.31641694e+07],626,951.7988402103268
570,570,[-1.43207943e+03  3.55395380e+02 -5.65796504e-03 -1.31641694e+07],509,953.3309550236
571,571,[-1.47437550e+03  3.53392930e+02 -4.24412652e-03 -1.31641694e+07],328,952.3863058159267
572,572,[-1.62729130e+03  3.53393816e+02 -6.97265172e-03 -1.31641694e+07],255,953.0906209901264
573,573,[-1.44138214e+03  3.55395377e+02 -5.61424562e-03 -1.31641694e+07],339,953.3653139187605
574,574,[-1.47933486e+03  3.53394535e+02 -4.65414949e-03 -1.31641694e+07],703,952.0126761696223
575,575,[-1.53700515e+03  3.54394313e+02 -6.16445929e-03 -1.31641694e+07],602,952.7947496047738
576,576,[-1.57311294e+03  3.54395119e+02 -8.23675353e-03 -1.31641694e+07],26,952.1284809962882
577,577,[-1.49767606e+03  3.55395139e+02 -6.14928839e-03 -1.31641694e+07],949,952.5499871718724
578,578,[-1.70549087e+03  3.52391863e+02 -9.09704028e-03 -1.31641694e+07],444,952.6176278508128
579,579,[-1.59459387e+03  3.52391714e+02 -5.23853717e-03 -1.31641694e+07],664,952.9838735553044
580,580,[-1.47720987e+03  3.53393661e+02 -4.48144695e-03 -1.31641694e+07],38,952.7670099370083
581,581,[-1.49507115e+03  3.53393414e+02 -4.92028669e-03 -1.31641694e+07],619,952.4919413373462
582,582,[-1.46901634e+03  3.55395295e+02 -6.16646353e-03 -1.31641694e+07],738,953.2616207755899
583,583,[-1.49913212e+03  3.53392990e+02 -4.89043759e-03 -1.31641694e+07],24,952.1609749128698
584,584,[-1.41731830e+03  3.54393983e+02 -4.73428014e-03 -1.31641694e+07],913,950.9587962495032
585,585,[-1.44456406e+03  3.54393871e+02 -4.77925879e-03 -1.31641694e+07],284,953.1445852038831
586,586,[-1.53429254e+03  3.54393842e+02 -6.80031972e-03 -1.31641694e+07],652,951.6893446306519
587,587,[-1.77452214e+03  3.52393197e+02 -1.01222220e-02 -1.31641694e+07],116,952.1754327374297
588,588,[-1.44185596e+03  3.55395186e+02 -5.45671990e-03 -1.31641694e+07],115,952.7087699267877
589,589,[-1.66100059e+03  3.53392951e+02 -7.96499528e-03 -1.31641694e+07],262,953.4675682050108
590,590,[-1.48931075e+03  3.54393913e+02 -6.57543564e-03 -1.31641694e+07],143,952.0274013478394
591,591,[-1.39410840e+03  3.55396068e+02 -5.13382608e-03 -1.31641694e+07],597,951.9857578849974
592,592,[-1.39200579e+03  3.54394238e+02 -4.59104914e-03 -1.31641694e+07],831,950.1800045133105
593,593,[-1.44845371e+03  3.53392702e+02 -4.32494505e-03 -1.31641694e+07],366,951.5666898871275
594,594,[-1.39801688e+03  3.55395528e+02 -5.49842235e-03 -1.31641694e+07],716,950.7270203864662
595,595,[-1.45145505e+03  3.55395186e+02 -5.85291439e-03 -1.31641694e+07],765,951.3022287736499
596,596,[-1.44298254e+03  3.55395123e+02 -5.79257609e-03 -1.31641694e+07],893,951.7874037898737
597,597,[-1.45243942e+03  3.55395365e+02 -5.85760034e-03 -1.31641694e+07],682,952.5103216007521
598,598,[-1.47787526e+03  3.55395132e+02 -6.51230180e-03 -1.31641694e+07],894,952.3683245064951
599,599,[-1.41599485e+03  3.55395075e+02 -5.19334655e-03 -1.31641694e+07],945,952.9223819611422
600,600,[-1.42477246e+03  3.55395981e+02 -5.72531577e-03 -1.31641694e+07],581,952.8305252451878
601,601,[-1.51220995e+03  3.53393249e+02 -5.02488296e-03 -1.31641694e+07],880,951.0554037011381
602,602,[-1.58835056e+03  3.52392004e+02 -4.90557442e-03 -1.31641694e+07],544,952.532128648721
603,603,[-1.43782133e+03  3.55396167e+02 -6.19769495e-03 -1.31641694e+07],176,951.1505049037153
604,604,[-1.64027259e+03  3.53392982e+02 -8.73334589e-03 -1.31641694e+07],638,952.3520346056397
605,605,[-1.54200061e+03  3.55395646e+02 -6.81285703e-03 -1.31641694e+07],204,952.6984269071337
606,606,[-1.66804948e+03  3.53392821e+02 -7.91086151e-03 -1.31641694e+07],167,953.1670584734154
607,607,[-1.49314441e+03  3.53392751e+02 -4.83287889e-03 -1.31641694e+07],790,953.2691206136277
608,608,[-1.48970821e+03  3.53393051e+02 -4.93039099e-03 -1.31641694e+07],819,952.6216994115118
609,609,[-1.47851590e+03  3.55395379e+02 -6.08481996e-03 -1.31641694e+07],268,952.8724339516277
610,610,[-1.55256261e+03  3.53392703e+02 -5.52211878e-03 -1.31641694e+07],258,953.2289855432474
611,611,[-1.65611435e+03  3.53392870e+02 -7.86294273e-03 -1.31641694e+07],31,953.1659974183985
612,612,[-1.67622652e+03  3.53392918e+02 -7.89413488e-03 -1.31641694e+07],188,953.1567646298479
613,613,[-1.46624706e+03  3.55397087e+02 -5.95317710e-03 -1.31641694e+07],47,953.1706472669583
614,614,[-1.72659525e+03  3.52391847e+02 -1.08360305e-02 -1.31641694e+07],885,952.11366457895
615,615,[-1.43661547e+03  3.55396972e+02 -5.18806211e-03 -1.31641694e+07],615,952.4398856107567
616,616,[-1.49572394e+03  3.54393915e+02 -5.59148201e-03 -1.31641694e+07],329,952.3893265833964
617,617,[-1.42276615e+03  3.55396150e+02 -5.21490843e-03 -1.31641694e+07],910,952.6028089978007
618,618,[-1.47670141e+03  3.55395132e+02 -6.54506141e-03 -1.31641694e+07],414,952.9507966700563
619,619,[-1.44507610e+03  3.54394416e+02 -4.85118877e-03 -1.31641694e+07],32,952.5216602582868
620,620,[-1.42894949e+03  3.54394300e+02 -4.51594012e-03 -1.31641694e+07],809,952.798180295642
621,621,[-1.53929186e+03  3.53392749e+02 -5.41923017e-03 -1.31641694e+07],895,953.2218568644035
622,622,[-1.43999390e+03  3.55395222e+02 -5.73534960e-03 -1.31641694e+07],934,953.1538471944147
623,623,[-1.41928849e+03  3.55396242e+02 -5.97709773e-03 -1.31641694e+07],417,952.0673980200016
624,624,[-1.42299367e+03  3.55395388e+02 -5.79812397e-03 -1.31641694e+07],846,952.1360112950772
625,625,[-1.48575522e+03  3.54393815e+02 -5.39520111e-03 -1.31641694e+07],497,952.98875360355
626,626,[-1.57073303e+03  3.52392730e+02 -4.64594011e-03 -1.31641694e+07],175,952.5432470482633
627,627,[-1.44633737e+03  3.55395082e+02 -6.05980362e-03 -1.31641694e+07],935,953.3403548738746
628,628,[-1.43596884e+03  3.54393878e+02 -4.60798683e-03 -1.31641694e+07],523,953.160401566563
629,629,[-1.43252903e+03  3.55395792e+02 -6.16391440e-03 -1.31641694e+07],325,952.8297609928449
630,630,[-1.46341669e+03  3.54394339e+02 -5.04385515e-03 -1.31641694e+07],938,952.5939275729174
631,631,[-1.42155511e+03  3.55395064e+02 -5.59544233e-03 -1.31641694e+07],553,952.7374901608405
632,632,[-1.51629556e+03  3.52392252e+02 -4.04445603e-03 -1.31641694e+07],265,952.9618540402058
633,633,[-1.44769350e+03  3.54393772e+02 -5.08576957e-03 -1.31641694e+07],247,953.1388329464228
634,634,[-1.53978893e+03  3.54394605e+02 -6.59814399e-03 -1.31641694e+07],616,953.0418048674821
635,635,[-1.45972625e+03  3.55395021e+02 -6.41141231e-03 -1.31641694e+07],165,952.6208753991372
636,636,[-1.50567263e+03  3.53393061e+02 -4.56639602e-03 -1.31641694e+07],571,953.2612167287651
637,637,[-1.41302156e+03  3.54394085e+02 -4.63012367e-03 -1.31641694e+07],946,953.1782399594198
638,638,[-1.46449247e+03  3.55395256e+02 -7.04793795e-03 -1.31641694e+07],861,952.4837170992876
639,639,[-1.61539096e+03  3.52391600e+02 -5.30946229e-03 -1.31641694e+07],17,952.5908589963421
640,640,[-1.52252356e+03  3.52392079e+02 -4.47428696e-03 -1.31641694e+07],598,953.3896076681281
641,641,[-1.49531799e+03  3.54393812e+02 -5.70805364e-03 -1.31641694e+07],168,953.567033180731
642,642,[-1.49098429e+03  3.53393668e+02 -4.86160317e-03 -1.31641694e+07],491,953.4108521520117
643,643,[-1.67601718e+03  3.53393908e+02 -8.02471899e-03 -1.31641694e+07],604,952.8069739753622
644,644,[-1.51790403e+03  3.53393396e+02 -5.25350335e-03 -1.31641694e+07],818,953.3294189351479
645,645,[-1.48721084e+03  3.55395220e+02 -6.54997122e-03 -1.31641694e+07],162,952.2173102912952
646,646,[-1.47806019e+03  3.54395908e+02 -5.54951470e-03 -1.31641694e+07],930,953.2458787430179
647,647,[-1.45957231e+03  3.55395718e+02 -6.29814468e-03 -1.31641694e+07],233,953.1609362509456
648,648,[-1.49311235e+03  3.53393228e+02 -5.19523934e-03 -1.31641694e+07],954,952.8626223833035
649,649,[-1.43606327e+03  3.54394179e+02 -4.60061578e-03 -1.31641694e+07],290,953.3235290744827
650,650,[-1.48716114e+03  3.54394908e+02 -6.15012374e-03 -1.31641694e+07],174,953.0938529327157
651,651,[-1.44329023e+03  3.53393010e+02 -4.55766740e-03 -1.31641694e+07],392,953.0155048372181
652,652,[-1.45475679e+03  3.53393385e+02 -4.20260543e-03 -1.31641694e+07],854,952.5156403018938
653,653,[-1.42845436e+03  3.55395389e+02 -5.64670604e-03 -1.31641694e+07],223,953.3677621328658
654,654,[-1.56171275e+03  3.52391753e+02 -4.36539216e-03 -1.31641694e+07],264,953.3424564309938
655,655,[-1.52777653e+03  3.53394192e+02 -5.36124332e-03 -1.31641694e+07],210,953.0321332631127
656,656,[-1.39050204e+03  3.55395607e+02 -5.49497720e-03 -1.31641694e+07],249,952.7722578054857
657,657,[-1.48896240e+03  3.53392765e+02 -4.66000491e-03 -1.31641694e+07],410,953.1741582925669
658,658,[-1.49061848e+03  3.54394054e+02 -5.60508909e-03 -1.31641694e+07],766,953.2148468445145
659,659,[-1.53955947e+03  3.53392781e+02 -5.49406207e-03 -1.31641694e+07],107,952.6528640978515
660,660,[-1.44549325e+03  3.54393867e+02 -4.98255439e-03 -1.31641694e+07],152,952.7443907814571
661,661,[-1.53213134e+03  3.53392751e+02 -5.27834520e-03 -1.31641694e+07],304,952.9393185354237
662,662,[-1.48100967e+03  3.54394063e+02 -5.20774099e-03 -1.31641694e+07],712,952.8014407576952
663,663,[-1.45280533e+03  3.54393851e+02 -4.79929916e-03 -1.31641694e+07],681,953.2700287468596
664,664,[-1.46199199e+03  3.53393712e+02 -4.46067420e-03 -1.31641694e+07],761,952.5245537073831
665,665,[-1.42154537e+03  3.55395467e+02 -5.58880195e-03 -1.31641694e+07],480,953.364429352012
666,666,[-1.50436495e+03  3.53392876e+02 -4.79394310e-03 -1.31641694e+07],455,953.0379941388118
667,667,[-1.53330922e+03  3.52392066e+02 -4.16586030e-03 -1.31641694e+07],495,953.0973955867709
668,668,[-1.44412957e+03  3.55395942e+02 -6.08453364e-03 -1.31641694e+07],271,952.9847253857267
669,669,[-1.45493339e+03  3.54393856e+02 -4.82579465e-03 -1.31641694e+07],412,953.4473510127442
670,670,[-1.44124943e+03  3.54394341e+02 -5.08093335e-03 -1.31641694e+07],11,953.0896128863501
671,671,[-1.43104073e+03  3.55395453e+02 -5.74678826e-03 -1.31641694e+07],479,953.2955574037578
672,672,[-1.43132897e+03  3.54394643e+02 -4.90405742e-03 -1.31641694e+07],269,952.2378462296639
673,673,[-1.47914775e+03  3.54394426e+02 -5.42914637e-03 -1.31641694e+07],435,953.0197524920554
674,674,[-1.46769209e+03  3.54393881e+02 -4.99684147e-03 -1.31641694e+07],483,953.1581493195837
675,675,[-1.42629288e+03  3.54394533e+02 -4.73210123e-03 -1.31641694e+07],889,952.5464738558304
676,676,[-1.41799015e+03  3.55396441e+02 -5.80276019e-03 -1.31641694e+07],198,953.1257532120114
677,677,[-1.57643740e+03  3.51391421e+02 -3.96542090e-03 -1.31641694e+07],908,953.4072606524746
678,678,[-1.46675598e+03  3.54395300e+02 -5.40188870e-03 -1.31641694e+07],261,952.9185672541686
679,679,[-1.46155934e+03  3.55395711e+02 -6.17828048e-03 -1.31641694e+07],43,953.0650742426092
680,680,[-1.52931444e+03  3.52392050e+02 -4.20213277e-03 -1.31641694e+07],530,953.3578939683497
681,681,[-1.53616163e+03  3.55395095e+02 -7.13954640e-03 -1.31641694e+07],757,952.2888619259951
682,682,[-1.40119361e+03  3.56397197e+02 -6.29126693e-03 -1.31641694e+07],245,952.502636529461
683,683,[-1.45340476e+03  3.54394104e+02 -5.04955094e-03 -1.31641694e+07],672,953.1367914523532
684,684,[-1.44362816e+03  3.55395331e+02 -5.76681107e-03 -1.31641694e+07],288,953.080614096422
685,685,[-1.53708382e+03  3.52392009e+02 -4.51999782e-03 -1.31641694e+07],73,953.2937293287836
686,686,[-1.49426891e+03  3.55395712e+02 -6.15575455e-03 -1.31641694e+07],27,953.0913410929822
687,687,[-1.53888380e+03  3.53394151e+02 -5.26709671e-03 -1.31641694e+07],313,953.3888044926218
688,688,[-1.44349031e+03  3.55395119e+02 -5.68945875e-03 -1.31641694e+07],943,953.4068203524912
689,689,[-1.57909796e+03  3.53392710e+02 -6.20841154e-03 -1.31641694e+07],144,952.799946415843
690,690,[-1.55700704e+03  3.53394796e+02 -5.82590571e-03 -1.31641694e+07],19,952.9454795959454
691,691,[-1.45624265e+03  3.55395199e+02 -6.06352237e-03 -1.31641694e+07],645,953.1786942567545
692,692,[-1.55753213e+03  3.53392952e+02 -5.71014484e-03 -1.31641694e+07],756,953.0928917485465
693,693,[-1.42384106e+03  3.55396409e+02 -5.48342394e-03 -1.31641694e+07],172,953.4639740203745
694,694,[-1.50337643e+03  3.53393084e+02 -5.06395124e-03 -1.31641694e+07],254,953.0738111656683
695,695,[-1.52519275e+03  3.53393846e+02 -5.42348934e-03 -1.31641694e+07],539,952.866839256801
696,696,[-1.43685827e+03  3.55394916e+02 -5.66993841e-03 -1.31641694e+07],68,952.6440312033571
697,697,[-1.54151205e+03  3.53392881e+02 -4.96698143e-03 -1.31641694e+07],23,952.9705644499898
698,698,[-1.54496133e+03  3.53392689e+02 -5.32894501e-03 -1.31641694e+07],587,953.1077851836988
699,699,[-1.45843175e+03  3.55395459e+02 -6.11469695e-03 -1.31641694e+07],396,952.9800763234017
700,700,[-1.45932964e+03  3.54393895e+02 -5.10982024e-03 -1.31641694e+07],492,953.1490814412732
701,701,[-1.51678450e+03  3.55395192e+02 -7.11414338e-03 -1.31641694e+07],1,951.6941331124941
702,702,[-1.50643163e+03  3.53394103e+02 -5.11194235e-03 -1.31641694e+07],583,953.2792331681472
703,703,[-1.54317040e+03  3.54394341e+02 -6.13808388e-03 -1.31641694e+07],292,952.5344599867185
704,704,[-1.41104638e+03  3.55396737e+02 -5.38677805e-03 -1.31641694e+07],250,953.2568193822053
705,705,[-1.41468317e+03  3.54394887e+02 -4.65782212e-03 -1.31641694e+07],481,953.3712902165731
706,706,[-1.45625257e+03  3.55395002e+02 -6.02347860e-03 -1.31641694e+07],624,953.0133730603173
707,707,[-1.43311089e+03  3.55395581e+02 -5.80263754e-03 -1.31641694e+07],845,953.2122350488542
708,708,[-1.49960363e+03  3.52392657e+02 -4.00687529e-03 -1.31641694e+07],109,952.7758624192176
709,709,[-1.53321702e+03  3.53392827e+02 -5.21445896e-03 -1.31641694e+07],576,953.2754583687458
710,710,[-1.51948867e+03  3.53393816e+02 -5.15804934e-03 -1.31641694e+07],350,953.4147634282438
711,711,[-1.50531828e+03  3.53393938e+02 -5.00496843e-03 -1.31641694e+07],892,953.1493211744225
712,712,[-1.47326498e+03  3.54393878e+02 -5.10222839e-03 -1.31641694e+07],924,952.2916375424085
713,713,[-1.55707973e+03  3.53392969e+02 -5.71054159e-03 -1.31641694e+07],800,953.3357047590744
714,714,[-1.53016370e+03  3.53392749e+02 -5.22029604e-03 -1.31641694e+07],128,952.9519780610425
715,715,[-1.42755928e+03  3.55395007e+02 -5.70588238e-03 -1.31641694e+07],208,953.1961381494344
716,716,[-1.42667057e+03  3.54393792e+02 -4.61152989e-03 -1.31641694e+07],912,952.507197362208
717,717,[-1.44528911e+03  3.55395129e+02 -6.08488379e-03 -1.31641694e+07],614,952.834592848161
718,718,[-1.53771617e+03  3.52391832e+02 -4.19825399e-03 -1.31641694e+07],0,953.1686435407643
719,719,[-1.46638007e+03  3.53392802e+02 -4.31761942e-03 -1.31641694e+07],815,953.2850973340014
720,720,[-1.45901797e+03  3.54393972e+02 -5.07920473e-03 -1.31641694e+07],786,953.4720214301244
721,721,[-1.52153652e+03  3.53393348e+02 -5.48484934e-03 -1.31641694e+07],257,952.8411854951117
722,722,[-1.54297634e+03  3.54393910e+02 -6.12915763e-03 -1.31641694e+07],551,952.7725992454504
723,723,[-1.55707935e+03  3.53393117e+02 -6.06260957e-03 -1.31641694e+07],514,953.1436846487836
724,724,[-1.44032406e+03  3.54394803e+02 -4.77564893e-03 -1.31641694e+07],363,952.8253637117615
725,725,[-1.52250589e+03  3.53393282e+02 -5.01853577e-03 -1.31641694e+07],342,953.2672607315438
726,726,[-1.41982599e+03  3.55395266e+02 -5.42312359e-03 -1.31641694e+07],623,953.3742176924703
727,727,[-1.44472381e+03  3.54394767e+02 -4.99007601e-03 -1.31641694e+07],349,953.2560609038431
728,728,[-1.52092502e+03  3.54393992e+02 -6.23279847e-03 -1.31641694e+07],915,952.649024687263
729,729,[-1.45902768e+03  3.55395259e+02 -6.16418180e-03 -1.31641694e+07],484,952.7635133615602
730,730,[-1.51728062e+03  3.52392681e+02 -3.98059704e-03 -1.31641694e+07],920,953.156882506488
731,731,[-1.56257135e+03  3.53392832e+02 -5.93776624e-03 -1.31641694e+07],69,952.9482376023964
732,732,[-1.43982421e+03  3.55395288e+02 -5.55803019e-03 -1.31641694e+07],132,953.3293547128096
733,733,[-1.40650083e+03  3.54394464e+02 -4.52649730e-03 -1.31641694e+07],63,953.0381476640915
734,734,[-1.50949475e+03  3.52391652e+02 -3.95873770e-03 -1.31641694e+07],289,953.1001592784078
735,735,[-1.48882555e+03  3.54394250e+02 -5.43978622e-03 -1.31641694e+07],590,953.0026646208648
736,736,[-1.44267684e+03  3.54394161e+02 -4.96949448e-03 -1.31641694e+07],8,952.8718604370954
737,737,[-1.48572624e+03  3.53392989e+02 -4.65492048e-03 -1.31641694e+07],402,951.7186083934905
738,738,[-1.46715883e+03  3.53392872e+02 -4.33699501e-03 -1.31641694e+07],574,952.5191373605015
739,739,[-1.41401356e+03  3.54393927e+02 -4.67354915e-03 -1.31641694e+07],234,953.2956901882122
740,740,[-1.44412709e+03  3.54394582e+02 -4.88684026e-03 -1.31641694e+07],20,953.1317953464953
741,741,[-1.42964520e+03  3.55395234e+02 -5.56737330e-03 -1.31641694e+07],827,953.0545425475939
742,742,[-1.42611438e+03  3.54394728e+02 -4.67551170e-03 -1.31641694e+07],6,952.9871836507435
743,743,[-1.44198170e+03  3.54393844e+02 -4.77440811e-03 -1.31641694e+07],591,953.1343834492724
744,744,[-1.53878215e+03  3.53393741e+02 -5.20921848e-03 -1.31641694e+07],413,953.2737552056745
745,745,[-1.47839611e+03  3.55395751e+02 -5.94504805e-03 -1.31641694e+07],242,953.113529313674
746,746,[-1.46104070e+03  3.54393875e+02 -4.87471538e-03 -1.31641694e+07],87,952.8673673025904
747,747,[-1.46895748e+03  3.55394920e+02 -6.17693418e-03 -1.31641694e+07],434,952.9683002439241
748,748,[-1.46171308e+03  3.53393744e+02 -4.58131513e-03 -1.31641694e+07],253,953.416940372919
749,749,[-1.45289010e+03  3.54393808e+02 -5.04107494e-03 -1.31641694e+07],70,953.3565127868131
750,750,[-1.42449056e+03  3.55394931e+02 -5.58197841e-03 -1.31641694e+07],199,953.4325917264388
751,751,[-1.42150987e+03  3.54394386e+02 -4.75337472e-03 -1.31641694e+07],789,953.512932721723
752,752,[-1.51092182e+03  3.55395098e+02 -6.86902604e-03 -1.31641694e+07],341,952.6221934267229
753,753,[-1.53209160e+03  3.53392923e+02 -5.24357469e-03 -1.31641694e+07],235,953.0606466211077
754,754,[-1.42951570e+03  3.55395478e+02 -5.49025717e-03 -1.31641694e+07],849,953.310071931318
755,755,[-1.45694333e+03  3.55395403e+02 -5.72006864e-03 -1.31641694e+07],494,952.8077566836849
756,756,[-1.44132012e+03  3.54394312e+02 -4.72827591e-03 -1.31641694e+07],767,952.2128432037892
757,757,[-1.44963707e+03  3.55394921e+02 -6.05191838e-03 -1.31641694e+07],343,952.2441493751201
758,758,[-1.44767844e+03  3.54393802e+02 -5.14049892e-03 -1.31641694e+07],182,950.8953210230458
759,759,[-1.31803162e+03  3.54393847e+02 -3.61691372e-03 -1.31641694e+07],77,949.0990377012524
760,760,[-1.25616281e+03  3.55395471e+02 -3.88912973e-03 -1.31641694e+07],155,948.718310593171
761,761,[-1.31961150e+03  3.54393977e+02 -3.53293089e-03 -1.31641694e+07],816,952.2813838565654
762,762,[-1.39017766e+03  3.55395730e+02 -5.26657577e-03 -1.31641694e+07],552,950.4626636917712
763,763,[-1.40274519e+03  3.55395028e+02 -5.46655740e-03 -1.31641694e+07],241,950.745845948287
764,764,[-1.44677277e+03  3.54395912e+02 -5.06739772e-03 -1.31641694e+07],232,952.9538386988097
765,765,[-1.42613381e+03  3.54395786e+02 -4.73492158e-03 -1.31641694e+07],187,952.5057705750369
766,766,[-1.42604502e+03  3.55395189e+02 -5.68437681e-03 -1.31641694e+07],405,952.3045029922134
767,767,[-1.42468484e+03  3.54394192e+02 -4.87557454e-03 -1.31641694e+07],103,951.9217976389147
768,768,[-1.43060925e+03  3.54394329e+02 -4.94436471e-03 -1.31641694e+07],98,952.6423934199623
769,769,[-1.42879879e+03  3.54394153e+02 -4.75111831e-03 -1.31641694e+07],883,952.9279026860285
770,770,[-1.46143855e+03  3.55394957e+02 -5.83461255e-03 -1.31641694e+07],240,952.654370619421
771,771,[-1.43561187e+03  3.54394644e+02 -4.84205873e-03 -1.31641694e+07],814,952.7960927752553
772,772,[-1.42885124e+03  3.54394547e+02 -4.80730369e-03 -1.31641694e+07],193,952.7500084416104
773,773,[-1.44494632e+03  3.54394414e+02 -4.98975897e-03 -1.31641694e+07],449,953.2348506209297
774,774,[-1.52311456e+03  3.53393184e+02 -5.23496628e-03 -1.31641694e+07],569,953.2583795283832
775,775,[-1.42316931e+03  3.55395700e+02 -5.49416459e-03 -1.31641694e+07],877,953.1688000531475
776,776,[-1.42360773e+03  3.55395091e+02 -5.61804455e-03 -1.31641694e+07],541,953.2377965179691
777,777,[-1.45123638e+03  3.55395438e+02 -6.13573132e-03 -1.31641694e+07],596,952.6121982718871
778,778,[-1.42724184e+03  3.55395044e+02 -5.44760414e-03 -1.31641694e+07],137,952.6977669555786
779,779,[-1.45961525e+03  3.53392807e+02 -4.10740658e-03 -1.31641694e+07],852,953.1806058855436
780,780,[-1.43935647e+03  3.54394617e+02 -5.09350348e-03 -1.31641694e+07],853,953.1574357882146
781,781,[-1.42935132e+03  3.55395437e+02 -5.74073609e-03 -1.31641694e+07],397,953.209155722864
782,782,[-1.44949049e+03  3.54394026e+02 -4.83617139e-03 -1.31641694e+07],351,953.4297646385047
783,783,[-1.51960624e+03  3.51390770e+02 -3.97071665e-03 -1.31641694e+07],488,952.805271995979
784,784,[-1.41208844e+03  3.55394938e+02 -5.72416867e-03 -1.31641694e+07],57,952.9869446380013
785,785,[-1.44897892e+03  3.54394819e+02 -5.08792214e-03 -1.31641694e+07],21,952.8005978227444
786,786,[-1.46441907e+03  3.53392813e+02 -4.40523411e-03 -1.31641694e+07],22,952.0845257724899
787,787,[-1.51963418e+03  3.51390889e+02 -3.82809875e-03 -1.31641694e+07],737,953.1443149462866
788,788,[-1.43855181e+03  3.54394028e+02 -4.78710000e-03 -1.31641694e+07],367,952.7916553203744
789,789,[-1.46739066e+03  3.53393133e+02 -4.24368752e-03 -1.31641694e+07],111,951.9449471518744
790,790,[-1.43963926e+03  3.55396610e+02 -6.00015589e-03 -1.31641694e+07],701,952.4707905479502
791,791,[-1.40934621e+03  3.55395015e+02 -5.46124521e-03 -1.31641694e+07],586,953.3841627417492
792,792,[-1.49037652e+03  3.52392378e+02 -4.21361082e-03 -1.31641694e+07],835,952.5523881092253
793,793,[-1.39728093e+03  3.55396148e+02 -5.25186842e-03 -1.31641694e+07],411,952.8852253051342
794,794,[-1.42599497e+03  3.55394893e+02 -5.71604742e-03 -1.31641694e+07],154,952.8549582502148
795,795,[-1.41336750e+03  3.55395237e+02 -5.70037258e-03 -1.31641694e+07],858,952.6482027737552
796,796,[-1.43449795e+03  3.55394890e+02 -5.63526153e-03 -1.31641694e+07],29,953.109243810766
797,797,[-1.46546049e+03  3.54394166e+02 -5.10423454e-03 -1.31641694e+07],486,953.2612221641415
798,798,[-1.44209014e+03  3.55394897e+02 -5.87071639e-03 -1.31641694e+07],891,952.8918516046423
799,799,[-1.44739586e+03  3.55395648e+02 -5.64740629e-03 -1.31641694e+07],356,952.7177474383581
800,800,[-1.45872679e+03  3.55396450e+02 -6.10709942e-03 -1.31641694e+07],231,952.1187381266357
801,801,[-1.48126006e+03  3.53393034e+02 -5.07251450e-03 -1.31641694e+07],246,953.2130677495916
802,802,[-1.43361604e+03  3.55396579e+02 -5.81176318e-03 -1.31641694e+07],270,953.2078863584112
803,803,[-1.44240129e+03  3.54394059e+02 -5.05410609e-03 -1.31641694e+07],874,953.1234840485356
804,804,[-1.53481417e+03  3.52391604e+02 -4.22265166e-03 -1.31641694e+07],278,953.5294521085126
805,805,[-1.45180270e+03  3.54394598e+02 -4.92738433e-03 -1.31641694e+07],532,952.8058887155291
806,806,[-1.44986403e+03  3.54395571e+02 -4.92406806e-03 -1.31641694e+07],197,953.1677972849432
807,807,[-1.42845501e+03  3.55395402e+02 -5.48057010e-03 -1.31641694e+07],156,953.3924194336805
808,808,[-1.43752363e+03  3.54393870e+02 -4.77446118e-03 -1.31641694e+07],207,953.1301433735968
809,809,[-1.39072269e+03  3.56397492e+02 -6.20232644e-03 -1.31641694e+07],97,952.4284103820758
810,810,[-1.45029178e+03  3.54395512e+02 -5.37451513e-03 -1.31641694e+07],220,951.3087383944072
811,811,[-1.32253912e+03  3.54394553e+02 -3.51687750e-03 -1.31641694e+07],593,950.5212692852895
812,812,[-1.42177604e+03  3.54394237e+02 -4.93264778e-03 -1.31641694e+07],403,952.6569742221507
813,813,[-1.41710413e+03  3.54395027e+02 -4.68589965e-03 -1.31641694e+07],834,951.302709617051
814,814,[-1.42686250e+03  3.55394953e+02 -5.42338760e-03 -1.31641694e+07],52,951.8174038087564
815,815,[-1.57508436e+03  3.53393401e+02 -6.31238386e-03 -1.31641694e+07],513,952.0856208311312
816,816,[-1.49900141e+03  3.53393910e+02 -5.27542708e-03 -1.31641694e+07],822,951.8906584875276
817,817,[-1.41988705e+03  3.54395134e+02 -4.85735136e-03 -1.31641694e+07],857,952.5650756567235
818,818,[-1.46611884e+03  3.53392734e+02 -4.25406221e-03 -1.31641694e+07],355,952.3512959616211
819,819,[-1.40412085e+03  3.55396202e+02 -5.67535297e-03 -1.31641694e+07],166,952.4678944294726
820,820,[-1.44971570e+03  3.54394219e+02 -4.77873821e-03 -1.31641694e+07],239,953.0605362820893
821,821,[-1.43547123e+03  3.55395158e+02 -6.06025478e-03 -1.31641694e+07],549,951.0545716072161
822,822,[-1.35912476e+03  3.55395135e+02 -5.48548957e-03 -1.31641694e+07],542,951.535656573566
823,823,[-1.56146570e+03  3.51390955e+02 -4.04166853e-03 -1.31641694e+07],169,953.1187135085277
824,824,[-1.43936604e+03  3.55395050e+02 -5.56500691e-03 -1.31641694e+07],209,952.9279498473231
825,825,[-1.48364336e+03  3.54394158e+02 -5.17224620e-03 -1.31641694e+07],108,952.9898135741477
826,826,[-1.41552199e+03  3.55394991e+02 -5.47355757e-03 -1.31641694e+07],426,953.2639418364893
827,827,[-1.44219546e+03  3.54394377e+02 -4.97074342e-03 -1.31641694e+07],478,951.9938517871833
828,828,[-1.46602296e+03  3.53392967e+02 -4.18741218e-03 -1.31641694e+07],78,952.8600501284341
829,829,[-1.41581375e+03  3.55395161e+02 -5.84523701e-03 -1.31641694e+07],496,952.810618357706
830,830,[-1.41459269e+03  3.55395954e+02 -5.58947910e-03 -1.31641694e+07],173,952.7534938143281
831,831,[-1.46468269e+03  3.55396178e+02 -5.67185049e-03 -1.31641694e+07],229,952.510221380512
832,832,[-1.52331565e+03  3.53392757e+02 -5.02557452e-03 -1.31641694e+07],96,953.0899171800572
833,833,[-1.42365910e+03  3.55395512e+02 -5.62845537e-03 -1.31641694e+07],35,953.1660667891931
834,834,[-1.50019019e+03  3.53393305e+02 -5.14161629e-03 -1.31641694e+07],841,951.5500285740967
835,835,[-1.44610116e+03  3.54394593e+02 -5.06389566e-03 -1.31641694e+07],185,951.6840006991231
836,836,[-1.42948358e+03  3.54393780e+02 -4.79786302e-03 -1.31641694e+07],875,953.0721491993702
837,837,[-1.52399996e+03  3.52391771e+02 -4.56090350e-03 -1.31641694e+07],485,953.1646029540659
838,838,[-1.42442497e+03  3.55394921e+02 -5.61873894e-03 -1.31641694e+07],58,952.9387621769836
839,839,[-1.49382324e+03  3.52391855e+02 -4.10817181e-03 -1.31641694e+07],810,953.3271855077454
840,840,[-1.46650683e+03  3.53393405e+02 -4.63327653e-03 -1.31641694e+07],384,952.7028259689816
841,841,[-1.52057170e+03  3.53392759e+02 -5.31292691e-03 -1.31641694e+07],813,951.3810411028169
842,842,[-1.47440401e+03  3.53392870e+02 -5.11055743e-03 -1.31641694e+07],595,949.7755728911137
843,843,[-1.32039987e+03  3.54395495e+02 -3.60105651e-03 -1.31641694e+07],83,949.2018103615401
844,844,[-1.39138302e+03  3.54393992e+02 -5.81610440e-03 -1.31641694e+07],510,949.2820363000443
845,845,[-1.29597131e+03  3.55395709e+02 -4.09525829e-03 -1.31641694e+07],161,952.1329914862855
846,846,[-1.31469811e+03  3.54394243e+02 -3.56211171e-03 -1.31641694e+07],228,952.4188668866807
847,847,[-1.41226000e+03  3.52391819e+02 -3.28940668e-03 -1.31641694e+07],127,949.9990613220938
848,848,[-1.31977978e+03  3.54395011e+02 -3.71930671e-03 -1.31641694e+07],196,949.9414441805466
849,849,[-1.32660731e+03  3.54393796e+02 -3.55705273e-03 -1.31641694e+07],347,951.9362589038586
850,850,[-1.40599031e+03  3.54394418e+02 -4.81964606e-03 -1.31641694e+07],222,952.8130979292421
851,851,[-1.43855853e+03  3.54393874e+02 -4.90639303e-03 -1.31641694e+07],7,952.9244626817206
852,852,[-1.41097166e+03  3.55397270e+02 -5.60807090e-03 -1.31641694e+07],603,951.7819445842898
853,853,[-1.44131766e+03  3.55395170e+02 -5.98771488e-03 -1.31641694e+07],183,951.7804501084233
854,854,[-1.41612686e+03  3.55395131e+02 -5.70974725e-03 -1.31641694e+07],153,952.3340678984804
855,855,[-1.43159769e+03  3.54394761e+02 -4.97068096e-03 -1.31641694e+07],238,953.0112549845121
856,856,[-1.43485844e+03  3.54393805e+02 -4.86188493e-03 -1.31641694e+07],206,953.0007795304589
857,857,[-1.41439972e+03  3.55394921e+02 -5.56659073e-03 -1.31641694e+07],531,951.5304592427183
858,858,[-1.42477790e+03  3.54394408e+02 -5.19355468e-03 -1.31641694e+07],205,951.6703978580637
859,859,[-1.42440214e+03  3.54393890e+02 -4.76564660e-03 -1.31641694e+07],147,952.906339725417
860,860,[-1.46624670e+03  3.53392713e+02 -4.33516821e-03 -1.31641694e+07],527,953.2361438116626
861,861,[-1.45695061e+03  3.53392972e+02 -4.26238182e-03 -1.31641694e+07],601,952.3757694998035
862,862,[-1.46797491e+03  3.53393092e+02 -4.93392073e-03 -1.31641694e+07],821,953.1569985726626
863,863,[-1.44393608e+03  3.54395137e+02 -5.16923786e-03 -1.31641694e+07],511,953.5829769463621
864,864,[-1.43052460e+03  3.54394629e+02 -4.85474928e-03 -1.31641694e+07],45,953.4335662776225
865,865,[-1.43563105e+03  3.55395058e+02 -5.67228758e-03 -1.31641694e+07],364,953.239865585895
866,866,[-1.47138527e+03  3.54394226e+02 -5.22084759e-03 -1.31641694e+07],145,953.3753631710656
867,867,[-1.42864363e+03  3.55395691e+02 -5.59994166e-03 -1.31641694e+07],584,953.3024056235292
868,868,[-1.44556249e+03  3.54395056e+02 -4.94884640e-03 -1.31641694e+07],171,953.2874846507399
869,869,[-1.45023044e+03  3.54394002e+02 -5.16738603e-03 -1.31641694e+07],44,953.4379855172432
870,870,[-1.43741019e+03  3.54394879e+02 -4.82792935e-03 -1.31641694e+07],37,953.3738565897357
871,871,[-1.50674702e+03  3.53392806e+02 -5.03113114e-03 -1.31641694e+07],758,953.4745466251674
872,872,[-1.46352222e+03  3.54393942e+02 -5.02213255e-03 -1.31641694e+07],122,953.506576517385
873,873,[-1.40424274e+03  3.55395105e+02 -5.32712431e-03 -1.31641694e+07],340,953.5785149500274
874,874,[-1.38196087e+03  3.55395979e+02 -5.65858772e-03 -1.31641694e+07],160,951.6102328413301
875,875,[-1.43823022e+03  3.54394819e+02 -5.36193766e-03 -1.31641694e+07],477,951.3614587549611
876,876,[-1.45440954e+03  3.53393825e+02 -4.26132442e-03 -1.31641694e+07],493,952.9946291268922
877,877,[-1.48308803e+03  3.52392387e+02 -4.16702757e-03 -1.31641694e+07],53,951.7943657903403
878,878,[-1.47592750e+03  3.54395222e+02 -5.08836329e-03 -1.31641694e+07],126,952.5921372286134
879,879,[-1.42707514e+03  3.55394917e+02 -5.68645508e-03 -1.31641694e+07],64,952.6634490240156
880,880,[-1.44343206e+03  3.55395032e+02 -5.92903899e-03 -1.31641694e+07],74,952.4858058554872
881,881,[-1.44375757e+03  3.54393858e+02 -5.01187975e-03 -1.31641694e+07],391,953.1579198361162
882,882,[-1.41750413e+03  3.55395998e+02 -5.82630169e-03 -1.31641694e+07],106,952.6690758943768
883,883,[-1.42528291e+03  3.54394533e+02 -5.09406917e-03 -1.31641694e+07],763,951.8274760900478
884,884,[-1.42125873e+03  3.54394015e+02 -4.90774409e-03 -1.31641694e+07],104,952.982620417241
885,885,[-1.47071799e+03  3.53392837e+02 -4.47096563e-03 -1.31641694e+07],594,952.442934682074
886,886,[-1.38586407e+03  3.54395588e+02 -4.54150933e-03 -1.31641694e+07],85,952.9091136426332
887,887,[-1.48232209e+03  3.54394459e+02 -5.76629154e-03 -1.31641694e+07],215,952.7838388421317
888,888,[-1.41119286e+03  3.55395695e+02 -5.50320047e-03 -1.31641694e+07],123,953.156746879137
889,889,[-1.47470216e+03  3.53393228e+02 -4.59218517e-03 -1.31641694e+07],184,952.2631509688232
890,890,[-1.43352759e+03  3.54394515e+02 -4.86160759e-03 -1.31641694e+07],194,953.0037622414725
891,891,[-1.46153472e+03  3.53392750e+02 -4.85109893e-03 -1.31641694e+07],487,951.6656652442381
892,892,[-1.42757213e+03  3.55395534e+02 -5.97027299e-03 -1.31641694e+07],365,952.122866809251
893,893,[-1.43895700e+03  3.55396025e+02 -6.13752469e-03 -1.31641694e+07],146,952.5041638973452
894,894,[-1.50647632e+03  3.54393967e+02 -5.57527609e-03 -1.31641694e+07],811,952.4952283444576
895,895,[-1.48127634e+03  3.55395028e+02 -6.47907792e-03 -1.31641694e+07],36,952.4273352019912
896,896,[-1.43319194e+03  3.55396868e+02 -5.89636995e-03 -1.31641694e+07],221,952.8932573460338
897,897,[-1.46254144e+03  3.54394939e+02 -4.88364728e-03 -1.31641694e+07],762,952.7352098877692
898,898,[-1.51556163e+03  3.53393465e+02 -5.14427608e-03 -1.31641694e+07],76,953.0659172263214
899,899,[-1.45480062e+03  3.54394163e+02 -5.24192238e-03 -1.31641694e+07],67,953.4320006387651
900,900,[-1.45703509e+03  3.54393962e+02 -5.04725421e-03 -1.31641694e+07],159,953.0767993266853
901,901,[-1.51843347e+03  3.54394230e+02 -5.89599620e-03 -1.31641694e+07],28,953.0358878008093
902,902,[-1.45121498e+03  3.55395894e+02 -5.71820071e-03 -1.31641694e+07],5,952.8088309566892
903,903,[-1.43699304e+03  3.55395297e+02 -5.41814998e-03 -1.31641694e+07],16,953.0235201895531
904,904,[-1.48665743e+03  3.54394469e+02 -5.21286232e-03 -1.31641694e+07],135,953.0679176696352
905,905,[-1.52450483e+03  3.53393348e+02 -5.14552001e-03 -1.31641694e+07],592,953.0344861011507
906,906,[-1.41002343e+03  3.55395524e+02 -5.38157050e-03 -1.31641694e+07],219,953.1724800637509
907,907,[-1.42474560e+03  3.54396116e+02 -4.85898886e-03 -1.31641694e+07],195,953.3722762582152
908,908,[-1.44976009e+03  3.56397752e+02 -6.79170867e-03 -1.31641694e+07],847,952.2606431926051
909,909,[-1.51983510e+03  3.53392916e+02 -5.26689954e-03 -1.31641694e+07],133,953.239330829923
910,910,[-1.45178651e+03  3.53392922e+02 -4.60329205e-03 -1.31641694e+07],848,952.4318002449169
911,911,[-1.49280099e+03  3.53393511e+02 -4.37641061e-03 -1.31641694e+07],385,952.9625113581815
912,912,[-1.39986042e+03  3.55395106e+02 -5.43312130e-03 -1.31641694e+07],2,952.1139437293273
913,913,[-1.42782801e+03  3.55395954e+02 -5.58300002e-03 -1.31641694e+07],56,952.5165703413292
914,914,[-1.45991975e+03  3.53392949e+02 -4.55538456e-03 -1.31641694e+07],93,952.8253450250832
915,915,[-1.42090825e+03  3.55395569e+02 -6.01867445e-03 -1.31641694e+07],389,952.0572737677447
916,916,[-1.48156756e+03  3.54393812e+02 -5.30138994e-03 -1.31641694e+07],157,952.8941470904906
917,917,[-1.44656565e+03  3.54393853e+02 -5.18809484e-03 -1.31641694e+07],842,953.0156075397327
918,918,[-1.45490007e+03  3.54394002e+02 -4.97886747e-03 -1.31641694e+07],170,952.6920532064274
919,919,[-1.50737176e+03  3.53392767e+02 -5.20510122e-03 -1.31641694e+07],75,952.9597512717354
920,920,[-1.44552839e+03  3.54395156e+02 -5.16962896e-03 -1.31641694e+07],348,952.0542489361612
921,921,[-1.47127427e+03  3.53393394e+02 -4.37911462e-03 -1.31641694e+07],528,952.9782168603347
922,922,[-1.44683062e+03  3.54394597e+02 -4.91862490e-03 -1.31641694e+07],386,953.139757664954
923,923,[-1.48251551e+03  3.53392913e+02 -4.41561475e-03 -1.31641694e+07],217,953.3702765254645
924,924,[-1.40253788e+03  3.55396411e+02 -5.72971743e-03 -1.31641694e+07],105,952.1197703164877
925,925,[-1.45013975e+03  3.55394990e+02 -5.69337676e-03 -1.31641694e+07],390,952.7419366966369
926,926,[-1.45414967e+03  3.54393804e+02 -5.18283400e-03 -1.31641694e+07],54,953.3144235369134
927,927,[-1.45528969e+03  3.54393912e+02 -4.94062802e-03 -1.31641694e+07],66,952.7683212202054
928,928,[-1.45260020e+03  3.54394543e+02 -5.14293700e-03 -1.31641694e+07],55,953.0976061962149
929,929,[-1.47724435e+03  3.54395161e+02 -5.41417335e-03 -1.31641694e+07],65,953.3848680320237
930,930,[-1.40148190e+03  3.56396355e+02 -6.43491315e-03 -1.31641694e+07],844,952.3489418711977
931,931,[-1.38856197e+03  3.56396150e+02 -6.07918597e-03 -1.31641694e+07],388,952.6536630939822
932,932,[-1.52208192e+03  3.53393101e+02 -5.10845103e-03 -1.31641694e+07],843,952.5956137292119
933,933,[-1.45901370e+03  3.55394924e+02 -5.92701137e-03 -1.31641694e+07],124,952.8949000408616
934,934,[-1.46357103e+03  3.55395202e+02 -5.88293025e-03 -1.31641694e+07],114,952.4271588142825
935,935,[-1.42895917e+03  3.55395473e+02 -5.57285760e-03 -1.31641694e+07],4,952.4086343100164
936,936,[-1.47496868e+03  3.54394555e+02 -5.31854880e-03 -1.31641694e+07],759,952.6181222275194
937,937,[-1.44160523e+03  3.55395931e+02 -5.53649639e-03 -1.31641694e+07],84,952.8313330713919
938,938,[-1.43884821e+03  3.55395166e+02 -5.82736316e-03 -1.31641694e+07],134,952.4019676783231
939,939,[-1.44302430e+03  3.54393789e+02 -5.05632153e-03 -1.31641694e+07],3,953.0521401317764
940,940,[-1.50574501e+03  3.53392699e+02 -5.16670522e-03 -1.31641694e+07],12,952.997710643478
941,941,[-1.40762381e+03  3.55395145e+02 -5.35469030e-03 -1.31641694e+07],13,953.1473460155881
942,942,[-1.43205794e+03  3.55394940e+02 -5.59704666e-03 -1.31641694e+07],125,952.6262328862136
943,943,[-1.43128442e+03  3.55395484e+02 -5.77499605e-03 -1.31641694e+07],15,952.2218272577582
944,944,[-1.47257572e+03  3.54393837e+02 -5.12950647e-03 -1.31641694e+07],112,952.9928952829796
945,945,[-1.47889053e+03  3.54394251e+02 -5.18450809e-03 -1.31641694e+07],760,952.4926307614239
946,946,[-1.53477193e+03  3.53393656e+02 -5.17126211e-03 -1.31641694e+07],529,952.3773813418969
947,947,[-1.45636899e+03  3.54394256e+02 -5.22860727e-03 -1.31641694e+07],216,953.3745397555509
948,948,[-1.45639114e+03  3.54393983e+02 -5.25375823e-03 -1.31641694e+07],218,952.8719835009525
949,949,[-1.43722967e+03  3.54394310e+02 -4.94509372e-03 -1.31641694e+07],95,952.5303492988385
950,950,[-1.40947460e+03  3.55395247e+02 -5.47463104e-03 -1.31641694e+07],94,953.1017563168638
951,951,[-1.47884133e+03  3.53392746e+02 -4.37582252e-03 -1.31641694e+07],113,953.3651628032637
952,952,[-1.43820669e+03  3.54393917e+02 -5.14919199e-03 -1.31641694e+07],387,953.0377886303532
953,953,[-1.44629282e+03  3.54394467e+02 -5.23881653e-03 -1.31641694e+07],158,953.0735989138334
954,954,[-1.50056147e+03  3.53392917e+02 -4.88753713e-03 -1.31641694e+07],14,952.3478099723409
