,0,1,2,3
0,0,[-2.74509490e+03  3.41379750e+02 -3.17771103e-03 -1.31641694e+07],364,769.6727716643027
1,1,[-3.06241177e+03  3.40378348e+02 -3.57273282e-03 -1.31641694e+07],400,781.9792698006344
2,2,[-2.45260724e+03  3.43381695e+02 -3.12703915e-03 -1.31641694e+07],347,776.1758673868445
3,3,[-2.70477711e+03  3.41379354e+02 -3.00203169e-03 -1.31641694e+07],390,783.9084321149105
4,4,[-3.33233199e+03  3.38376098e+02 -3.88115464e-03 -1.31641694e+07],436,784.6898236795093
5,5,[-3.07055997e+03  3.39377429e+02 -3.33210482e-03 -1.31641694e+07],344,777.6063988097046
6,6,[-2.77447808e+03  3.41379615e+02 -3.11449170e-03 -1.31641694e+07],512,775.6287618542634
7,7,[-2.74619141e+03  3.41379420e+02 -3.18999419e-03 -1.31641694e+07],368,784.0568889807519
8,8,[-2.51067456e+03  3.42380482e+02 -2.85568926e-03 -1.31641694e+07],88,784.6616948122763
9,9,[-2.42263316e+03  3.43382257e+02 -3.10431123e-03 -1.31641694e+07],83,783.3165231181902
10,10,[-3.22374734e+03  3.40378797e+02 -4.05881987e-03 -1.31641694e+07],89,775.1984012831908
11,11,[-2.69007560e+03  3.41379423e+02 -2.92964285e-03 -1.31641694e+07],338,776.1826458344678
12,12,[-2.77057708e+03  3.41379391e+02 -3.19217314e-03 -1.31641694e+07],339,782.3544412277512
13,13,[-2.74293668e+03  3.41379377e+02 -3.19007671e-03 -1.31641694e+07],427,784.1929572492721
14,14,[-2.78671654e+03  3.41379706e+02 -3.13499463e-03 -1.31641694e+07],358,781.6593470488119
15,15,[-2.74994198e+03  3.41379385e+02 -3.06526807e-03 -1.31641694e+07],283,784.534651368211
16,16,[-2.73943233e+03  3.41379541e+02 -3.13072059e-03 -1.31641694e+07],360,784.4956609619516
17,17,[-2.58662654e+03  3.42380470e+02 -3.06401432e-03 -1.31641694e+07],382,784.752168387093
18,18,[-2.72446947e+03  3.41379313e+02 -3.13326825e-03 -1.31641694e+07],301,783.2670864461018
19,19,[-2.65620257e+03  3.41379552e+02 -2.79494758e-03 -1.31641694e+07],367,783.0500231258986
20,20,[-2.98214246e+03  3.39377099e+02 -3.37504015e-03 -1.31641694e+07],370,781.2303282142647
21,21,[-2.73645665e+03  3.41379379e+02 -3.22578929e-03 -1.31641694e+07],766,780.3925655273039
22,22,[-2.75635655e+03  3.41379507e+02 -3.10864239e-03 -1.31641694e+07],774,781.9078388277709
23,23,[-3.16607069e+03  3.39377648e+02 -3.68547790e-03 -1.31641694e+07],361,782.9390094002498
24,24,[-2.73284330e+03  3.41379863e+02 -3.10071865e-03 -1.31641694e+07],351,783.1170847591054
25,25,[-2.57787541e+03  3.42380621e+02 -3.02082336e-03 -1.31641694e+07],366,783.3608526217284
26,26,[-2.73936540e+03  3.41379596e+02 -3.18863689e-03 -1.31641694e+07],468,783.3631989982306
27,27,[-2.55771193e+03  3.42380582e+02 -2.88306960e-03 -1.31641694e+07],96,782.5002706606344
28,28,[-2.66659182e+03  3.41379530e+02 -2.95797900e-03 -1.31641694e+07],522,782.9195367297418
29,29,[-2.70189248e+03  3.41379723e+02 -2.95913040e-03 -1.31641694e+07],417,783.039132979524
30,30,[-2.57854184e+03  3.42380515e+02 -2.98026077e-03 -1.31641694e+07],365,783.606895333133
31,31,[-2.51868994e+03  3.42380947e+02 -2.85434793e-03 -1.31641694e+07],327,782.7521346072417
32,32,[-2.84985380e+03  3.40378465e+02 -3.07291654e-03 -1.31641694e+07],630,782.9969299804868
33,33,[-2.75589885e+03  3.41379359e+02 -3.19125884e-03 -1.31641694e+07],421,784.256671559684
34,34,[-2.74032054e+03  3.41379406e+02 -3.11214155e-03 -1.31641694e+07],84,783.0728434401684
35,35,[-2.76363463e+03  3.41379421e+02 -3.09210897e-03 -1.31641694e+07],362,785.3188543689685
36,36,[-2.90168157e+03  3.40378550e+02 -3.28165115e-03 -1.31641694e+07],348,783.6356594945144
37,37,[-2.75667846e+03  3.41379388e+02 -3.30224979e-03 -1.31641694e+07],79,783.7529560852543
38,38,[-2.68538897e+03  3.41380024e+02 -2.95178147e-03 -1.31641694e+07],413,784.3547339565312
39,39,[-2.87019583e+03  3.40378468e+02 -3.20297501e-03 -1.31641694e+07],318,783.2931187416565
40,40,[-2.66893558e+03  3.41379609e+02 -2.98406116e-03 -1.31641694e+07],259,784.2616340800873
41,41,[-2.68805169e+03  3.41379443e+02 -2.85282924e-03 -1.31641694e+07],517,776.2599549782942
42,42,[-2.74167539e+03  3.41380160e+02 -3.06841067e-03 -1.31641694e+07],402,777.2211171523825
43,43,[-2.88360664e+03  3.40378364e+02 -3.30837922e-03 -1.31641694e+07],386,783.0452016667303
44,44,[-2.50618759e+03  3.42380911e+02 -2.80314918e-03 -1.31641694e+07],462,782.6183680219875
45,45,[-2.56362238e+03  3.42380537e+02 -3.08952558e-03 -1.31641694e+07],279,780.5607073597707
46,46,[-3.10568069e+03  3.40378485e+02 -3.84488738e-03 -1.31641694e+07],213,783.0159157982134
47,47,[-2.52960659e+03  3.42380811e+02 -2.99298990e-03 -1.31641694e+07],779,779.064146408612
48,48,[-2.52129946e+03  3.42381288e+02 -2.99699218e-03 -1.31641694e+07],398,782.9024630105312
49,49,[-2.58441321e+03  3.42380921e+02 -3.04418561e-03 -1.31641694e+07],354,784.5727098352178
50,50,[-3.09125221e+03  3.40378434e+02 -3.88612013e-03 -1.31641694e+07],329,782.7849958983421
51,51,[-2.47892867e+03  3.42380475e+02 -2.84976054e-03 -1.31641694e+07],401,783.3121778860692
52,52,[-2.49843828e+03  3.42381082e+02 -2.85570854e-03 -1.31641694e+07],317,783.668053970207
53,53,[-2.75197313e+03  3.41379355e+02 -3.35344753e-03 -1.31641694e+07],293,781.7599572619695
54,54,[-3.13152542e+03  3.40378247e+02 -3.98348037e-03 -1.31641694e+07],148,781.1864013450507
55,55,[-2.74950445e+03  3.41379521e+02 -3.15598104e-03 -1.31641694e+07],387,784.775378243046
56,56,[-3.23819453e+03  3.39377299e+02 -4.00542404e-03 -1.31641694e+07],326,784.5187220280106
57,57,[-2.74551501e+03  3.41379487e+02 -3.14808016e-03 -1.31641694e+07],80,785.1305655802255
58,58,[-2.74963642e+03  3.41379952e+02 -3.08267553e-03 -1.31641694e+07],255,784.4356854504966
59,59,[-2.68147783e+03  3.41379573e+02 -2.94638678e-03 -1.31641694e+07],437,781.1696657136079
60,60,[-2.85637216e+03  3.40378769e+02 -3.10266680e-03 -1.31641694e+07],336,784.0430632453719
61,61,[-2.82967393e+03  3.40378758e+02 -3.10825052e-03 -1.31641694e+07],439,783.2910496615028
62,62,[-2.75538097e+03  3.41380093e+02 -3.12682183e-03 -1.31641694e+07],93,784.5699169544043
63,63,[-2.75793231e+03  3.41379477e+02 -3.07149968e-03 -1.31641694e+07],450,784.0094387861519
64,64,[-2.42605990e+03  3.43381721e+02 -3.12882317e-03 -1.31641694e+07],343,782.5402672145696
65,65,[-2.38564926e+03  3.43381680e+02 -3.13129446e-03 -1.31641694e+07],459,771.7668075213758
66,66,[-2.91941411e+03  3.40378425e+02 -3.15317132e-03 -1.31641694e+07],383,780.4989898451735
67,67,[-2.47833000e+03  3.42380447e+02 -2.85780197e-03 -1.31641694e+07],719,778.9613687312188
68,68,[-2.65380331e+03  3.41379728e+02 -2.88567629e-03 -1.31641694e+07],374,784.5604271095389
69,69,[-2.50418934e+03  3.42380622e+02 -2.81607765e-03 -1.31641694e+07],94,782.4166499709839
70,70,[-2.57005915e+03  3.42380474e+02 -3.09205781e-03 -1.31641694e+07],295,780.4335375898282
71,71,[-3.10448996e+03  3.40378556e+02 -4.17285221e-03 -1.31641694e+07],280,780.8536290330348
72,72,[-2.68485062e+03  3.41380256e+02 -2.93400692e-03 -1.31641694e+07],355,781.216570262902
73,73,[-3.10045538e+03  3.39377147e+02 -3.60452692e-03 -1.31641694e+07],643,778.9315971163154
74,74,[-2.82619428e+03  3.40378281e+02 -3.03632786e-03 -1.31641694e+07],553,762.8353397102005
75,75,[-2.90578742e+03  3.40378253e+02 -3.23121275e-03 -1.31641694e+07],426,760.3503647119816
76,76,[-2.56668859e+03  3.42380822e+02 -2.88687861e-03 -1.31641694e+07],239,773.2547459116573
77,77,[-2.57709407e+03  3.42380635e+02 -3.01057277e-03 -1.31641694e+07],357,777.604111212738
78,78,[-2.66011025e+03  3.42380700e+02 -3.28258971e-03 -1.31641694e+07],130,767.7668547442162
79,79,[-2.50523729e+03  3.42381004e+02 -2.86732440e-03 -1.31641694e+07],381,786.2802644828788
80,80,[-2.75734736e+03  3.41379383e+02 -3.12509780e-03 -1.31641694e+07],322,786.0363093161388
81,81,[-2.73947700e+03  3.41379395e+02 -3.07514557e-03 -1.31641694e+07],406,785.5825294429145
82,82,[-2.90743567e+03  3.40378832e+02 -3.36162387e-03 -1.31641694e+07],394,785.7322308061272
83,83,[-2.74871383e+03  3.41379344e+02 -3.07663904e-03 -1.31641694e+07],702,786.916577611798
84,84,[-2.75468571e+03  3.41379543e+02 -3.12964206e-03 -1.31641694e+07],284,786.2978782072165
85,85,[-2.67377125e+03  3.41379312e+02 -2.99666909e-03 -1.31641694e+07],211,784.99660655303
86,86,[-2.75106678e+03  3.41379573e+02 -3.08213972e-03 -1.31641694e+07],435,784.895784539453
87,87,[-2.78218544e+03  3.41379387e+02 -3.26937083e-03 -1.31641694e+07],481,784.7841731364974
88,88,[-2.74304725e+03  3.41379680e+02 -3.16108283e-03 -1.31641694e+07],330,786.9168195117592
89,89,[-2.88032164e+03  3.40378266e+02 -3.37988228e-03 -1.31641694e+07],82,786.8992774410292
90,90,[-2.74539858e+03  3.41379572e+02 -3.30913476e-03 -1.31641694e+07],391,785.4670563135047
91,91,[-2.75064908e+03  3.41379405e+02 -3.11336722e-03 -1.31641694e+07],515,784.9233305076899
92,92,[-2.75390117e+03  3.41379516e+02 -3.11741276e-03 -1.31641694e+07],294,784.3989113475046
93,93,[-2.49790863e+03  3.42380636e+02 -2.76649344e-03 -1.31641694e+07],552,785.9989956643243
94,94,[-2.76290494e+03  3.41379391e+02 -3.17640720e-03 -1.31641694e+07],285,785.9300165574903
95,95,[-2.77306984e+03  3.41379398e+02 -3.08012801e-03 -1.31641694e+07],458,784.9275746828935
96,96,[-2.83543992e+03  3.40378656e+02 -3.08436168e-03 -1.31641694e+07],369,786.4206274320973
97,97,[-3.14851313e+03  3.39377317e+02 -3.97761886e-03 -1.31641694e+07],142,784.5873791945236
98,98,[-3.19415878e+03  3.39377153e+02 -3.92149386e-03 -1.31641694e+07],765,784.8355551747701
99,99,[-2.73377018e+03  3.41379318e+02 -3.11876640e-03 -1.31641694e+07],516,785.4641766163844
100,100,[-2.50413493e+03  3.42380466e+02 -2.85217386e-03 -1.31641694e+07],356,779.3453857536705
101,101,[-2.65514013e+03  3.41379325e+02 -3.08066317e-03 -1.31641694e+07],673,762.7473453962197
102,102,[-2.48816619e+03  3.42380622e+02 -2.84578270e-03 -1.31641694e+07],277,784.5013958800533
103,103,[-2.93226161e+03  3.40378225e+02 -3.65671103e-03 -1.31641694e+07],496,780.92542533806
104,104,[-2.95830968e+03  3.40378893e+02 -3.03942985e-03 -1.31641694e+07],431,768.5805609433344
105,105,[-2.54637657e+03  3.42380773e+02 -2.99844255e-03 -1.31641694e+07],520,784.4194841090812
106,106,[-2.89548860e+03  3.40378325e+02 -3.56865038e-03 -1.31641694e+07],81,775.9075388938984
107,107,[-2.58897062e+03  3.42380450e+02 -3.04565302e-03 -1.31641694e+07],126,781.5003136352126
108,108,[-3.07472469e+03  3.40378352e+02 -3.97723603e-03 -1.31641694e+07],750,782.6256937933306
109,109,[-2.73592285e+03  3.41379404e+02 -3.17428984e-03 -1.31641694e+07],408,783.7399453219492
110,110,[-2.65706086e+03  3.41379375e+02 -3.00458722e-03 -1.31641694e+07],442,783.718606754827
111,111,[-2.55131269e+03  3.42380549e+02 -3.13236473e-03 -1.31641694e+07],385,779.880091121969
112,112,[-2.74543858e+03  3.41379461e+02 -3.18619920e-03 -1.31641694e+07],291,783.2269813805489
113,113,[-2.56538680e+03  3.42380721e+02 -2.96596627e-03 -1.31641694e+07],214,780.5229542556433
114,114,[-2.68271442e+03  3.41379511e+02 -2.79284354e-03 -1.31641694e+07],376,776.2538502181768
115,115,[-2.87868597e+03  3.40378746e+02 -3.16481132e-03 -1.31641694e+07],375,783.5899875475627
116,116,[-3.11649691e+03  3.40378365e+02 -4.05674525e-03 -1.31641694e+07],463,780.7990895504583
117,117,[-2.75322558e+03  3.41379796e+02 -3.19250727e-03 -1.31641694e+07],274,782.5036641146361
118,118,[-2.69181911e+03  3.41379524e+02 -2.94001361e-03 -1.31641694e+07],506,779.9099878727966
119,119,[-2.43676678e+03  3.43382076e+02 -3.11713708e-03 -1.31641694e+07],90,778.6313395864773
120,120,[-2.75227233e+03  3.41379486e+02 -3.04341190e-03 -1.31641694e+07],99,783.0416292968911
121,121,[-2.49860423e+03  3.42381002e+02 -2.85511081e-03 -1.31641694e+07],422,778.4657932576707
122,122,[-2.86300378e+03  3.40378351e+02 -3.20837324e-03 -1.31641694e+07],352,782.2098059626437
123,123,[-2.75079605e+03  3.41379426e+02 -3.10308612e-03 -1.31641694e+07],634,784.8359943575578
124,124,[-3.08708632e+03  3.39377386e+02 -3.64328846e-03 -1.31641694e+07],313,784.6303791251933
125,125,[-3.01893085e+03  3.39377317e+02 -3.64405954e-03 -1.31641694e+07],307,783.2798061408441
126,126,[-2.72774979e+03  3.41380033e+02 -3.14973033e-03 -1.31641694e+07],246,785.5824835373
127,127,[-2.52206323e+03  3.42380627e+02 -2.83706716e-03 -1.31641694e+07],672,783.5101012573002
128,128,[-2.53426144e+03  3.42380557e+02 -3.11013381e-03 -1.31641694e+07],305,781.9533396125331
129,129,[-2.73466664e+03  3.41379552e+02 -3.10826943e-03 -1.31641694e+07],736,784.8855794090546
130,130,[-3.19726117e+03  3.39377147e+02 -3.71959451e-03 -1.31641694e+07],260,785.8579020268277
131,131,[-2.42802134e+03  3.43381916e+02 -3.10563206e-03 -1.31641694e+07],392,785.0709369865531
132,132,[-2.73085639e+03  3.41379508e+02 -3.13922550e-03 -1.31641694e+07],510,785.0352515542252
133,133,[-2.70456499e+03  3.41379412e+02 -3.03786619e-03 -1.31641694e+07],513,774.4412344716148
134,134,[-2.96566422e+03  3.40378549e+02 -3.67909124e-03 -1.31641694e+07],251,783.2186852338659
135,135,[-2.95011857e+03  3.40378754e+02 -3.24082136e-03 -1.31641694e+07],334,783.6457986152561
136,136,[-2.77921556e+03  3.41379557e+02 -3.25911553e-03 -1.31641694e+07],789,784.5493374180219
137,137,[-2.74806706e+03  3.41379970e+02 -3.08149201e-03 -1.31641694e+07],771,784.3552365143971
138,138,[-2.71239697e+03  3.41379572e+02 -2.98991899e-03 -1.31641694e+07],35,784.6475312438296
139,139,[-3.06375358e+03  3.39377370e+02 -3.71175749e-03 -1.31641694e+07],675,782.7611144928973
140,140,[-2.73520523e+03  3.41379538e+02 -3.13197651e-03 -1.31641694e+07],292,784.0040624048871
141,141,[-2.85038829e+03  3.40378221e+02 -2.93165540e-03 -1.31641694e+07],658,783.422384580426
142,142,[-2.71678471e+03  3.41379361e+02 -2.98393529e-03 -1.31641694e+07],511,785.6842924163022
143,143,[-2.54924644e+03  3.42381232e+02 -2.98326968e-03 -1.31641694e+07],262,781.6993225637219
144,144,[-2.67139561e+03  3.41379332e+02 -2.94546291e-03 -1.31641694e+07],308,782.0644314315206
145,145,[-2.73344083e+03  3.41379450e+02 -3.12805986e-03 -1.31641694e+07],461,781.8031410733711
146,146,[-2.89083730e+03  3.40378336e+02 -3.13666349e-03 -1.31641694e+07],407,782.6100150767148
147,147,[-2.77255036e+03  3.41379331e+02 -3.31090151e-03 -1.31641694e+07],528,783.8032698868291
148,148,[-2.75670238e+03  3.41379374e+02 -3.04552970e-03 -1.31641694e+07],558,786.0715730900373
149,149,[-2.49747841e+03  3.42380623e+02 -2.84631023e-03 -1.31641694e+07],149,785.2531167840381
150,150,[-2.52684828e+03  3.42380817e+02 -2.88292816e-03 -1.31641694e+07],452,783.7872418816003
151,151,[-2.76011178e+03  3.41379426e+02 -3.06601113e-03 -1.31641694e+07],319,784.8554220870512
152,152,[-2.67059333e+03  3.41379774e+02 -2.95489688e-03 -1.31641694e+07],507,782.3717184585671
153,153,[-2.86535567e+03  3.40378219e+02 -3.11468151e-03 -1.31641694e+07],337,783.659050835249
154,154,[-2.79104364e+03  3.40378486e+02 -3.00145669e-03 -1.31641694e+07],268,784.3320905787663
155,155,[-2.43361550e+03  3.43382230e+02 -3.13144388e-03 -1.31641694e+07],479,784.8708773816043
156,156,[-2.82608156e+03  3.40378582e+02 -3.10660076e-03 -1.31641694e+07],210,784.1165763158513
157,157,[-2.87501879e+03  3.40378500e+02 -3.27993361e-03 -1.31641694e+07],602,784.329455626131
158,158,[-2.73099546e+03  3.41379653e+02 -3.01360925e-03 -1.31641694e+07],432,778.1725976149298
159,159,[-2.70470818e+03  3.39377220e+02 -3.84072481e-03 -1.31641694e+07],659,756.9347922321477
160,160,[-2.71331088e+03  3.41379517e+02 -2.98660045e-03 -1.31641694e+07],456,781.077121914235
161,161,[-3.23182728e+03  3.39377438e+02 -3.84680730e-03 -1.31641694e+07],57,780.2924666208033
162,162,[-2.50487925e+03  3.42381133e+02 -2.83323459e-03 -1.31641694e+07],497,779.8988908964475
163,163,[-3.14579729e+03  3.40378311e+02 -3.87675279e-03 -1.31641694e+07],333,775.895191051407
164,164,[-2.92525351e+03  3.40378534e+02 -3.34460532e-03 -1.31641694e+07],359,775.5656782352803
165,165,[-3.08596516e+03  3.39377091e+02 -3.36340393e-03 -1.31641694e+07],415,778.002561100245
166,166,[-3.05639208e+03  3.39377114e+02 -3.60632061e-03 -1.31641694e+07],269,780.431327733407
167,167,[-2.74693022e+03  3.41379453e+02 -3.10488706e-03 -1.31641694e+07],676,782.1036107628423
168,168,[-2.57052617e+03  3.42380707e+02 -2.94204597e-03 -1.31641694e+07],312,782.1063486022517
169,169,[-2.99415604e+03  3.40378374e+02 -2.99610708e-03 -1.31641694e+07],286,781.7162721524954
170,170,[-2.65674389e+03  3.41379311e+02 -2.71029694e-03 -1.31641694e+07],276,781.0084634951745
171,171,[-2.75039510e+03  3.41379757e+02 -3.09589985e-03 -1.31641694e+07],556,779.6983772704036
172,172,[-2.75191318e+03  3.41379494e+02 -3.05334986e-03 -1.31641694e+07],131,780.8236260474926
173,173,[-2.74149983e+03  3.41379777e+02 -3.08893653e-03 -1.31641694e+07],557,781.1022075536107
174,174,[-3.12220828e+03  3.40378266e+02 -3.75686337e-03 -1.31641694e+07],627,777.430692706875
175,175,[-2.74258268e+03  3.41379412e+02 -3.04337446e-03 -1.31641694e+07],761,782.4399499258421
176,176,[-3.14818560e+03  3.39377192e+02 -3.97157290e-03 -1.31641694e+07],502,781.3759083553314
177,177,[-3.32343067e+03  3.38376006e+02 -4.02952915e-03 -1.31641694e+07],416,783.6761116346715
178,178,[-2.57231831e+03  3.42380847e+02 -3.03679264e-03 -1.31641694e+07],132,783.7671786065348
179,179,[-2.73298978e+03  3.41379759e+02 -3.06330939e-03 -1.31641694e+07],740,782.3874683807711
180,180,[-2.66402056e+03  3.41379438e+02 -2.89716505e-03 -1.31641694e+07],411,782.8615119878102
181,181,[-2.75460047e+03  3.41379533e+02 -3.20865417e-03 -1.31641694e+07],310,782.260882940625
182,182,[-3.24253237e+03  3.39377116e+02 -3.96868717e-03 -1.31641694e+07],388,783.001562225886
183,183,[-2.74803041e+03  3.41379394e+02 -3.13817426e-03 -1.31641694e+07],484,782.286038858228
184,184,[-2.67843648e+03  3.41379315e+02 -2.89948796e-03 -1.31641694e+07],760,781.1578644793938
185,185,[-2.57704632e+03  3.42380449e+02 -3.03997666e-03 -1.31641694e+07],648,779.3312434416816
186,186,[-2.54939603e+03  3.42380573e+02 -2.90578576e-03 -1.31641694e+07],350,782.4530016662733
187,187,[-2.73736952e+03  3.41379588e+02 -3.02872403e-03 -1.31641694e+07],85,782.8183064123609
188,188,[-2.51137569e+03  3.42380569e+02 -2.83546018e-03 -1.31641694e+07],320,782.4302843374597
189,189,[-2.91800113e+03  3.40378829e+02 -3.27759005e-03 -1.31641694e+07],735,781.7841122901332
190,190,[-2.72519143e+03  3.41379327e+02 -3.22020424e-03 -1.31641694e+07],788,775.2682579781022
191,191,[-2.74581628e+03  3.41379697e+02 -3.05980946e-03 -1.31641694e+07],410,780.174951298377
192,192,[-2.74597970e+03  3.41379919e+02 -3.01336390e-03 -1.31641694e+07],652,782.8007112660049
193,193,[-2.50544895e+03  3.42380776e+02 -2.86978183e-03 -1.31641694e+07],523,780.4621780653476
194,194,[-2.75489420e+03  3.41379634e+02 -3.14730318e-03 -1.31641694e+07],194,784.9804087018035
195,195,[-2.75157957e+03  3.41379387e+02 -3.04525083e-03 -1.31641694e+07],785,781.6195416224699
196,196,[-2.93083009e+03  3.40378247e+02 -3.37675659e-03 -1.31641694e+07],609,783.2740105876479
197,197,[-2.72889398e+03  3.41379460e+02 -3.07584389e-03 -1.31641694e+07],378,782.68800835283
198,198,[-2.76232676e+03  3.41379355e+02 -3.07289614e-03 -1.31641694e+07],508,780.7475537043928
199,199,[-2.88137062e+03  3.40378200e+02 -2.93595189e-03 -1.31641694e+07],576,779.2032372544708
200,200,[-2.81308451e+03  3.40378214e+02 -2.92687063e-03 -1.31641694e+07],560,777.8138391170904
201,201,[-2.75975009e+03  3.41379779e+02 -3.06592816e-03 -1.31641694e+07],690,782.8673077667582
202,202,[-2.76885525e+03  3.40378213e+02 -2.86977840e-03 -1.31641694e+07],346,778.0077359729202
203,203,[-3.05201978e+03  3.39377151e+02 -3.29452260e-03 -1.31641694e+07],248,779.1232436028587
204,204,[-2.91381343e+03  3.40378323e+02 -3.02685856e-03 -1.31641694e+07],428,780.3600786972195
205,205,[-2.58377842e+03  3.42380829e+02 -3.04486941e-03 -1.31641694e+07],399,784.2415543447526
206,206,[-3.21870004e+03  3.39377115e+02 -3.50013882e-03 -1.31641694e+07],414,783.4967468201781
207,207,[-3.11133818e+03  3.40378502e+02 -3.81827914e-03 -1.31641694e+07],95,781.5946011454093
208,208,[-2.90165972e+03  3.40378288e+02 -3.41960918e-03 -1.31641694e+07],91,783.0397821306678
209,209,[-2.87706742e+03  3.40378708e+02 -2.96663777e-03 -1.31641694e+07],786,783.6742903940223
210,210,[-2.58473055e+03  3.42380896e+02 -3.03575103e-03 -1.31641694e+07],86,785.1918273635677
211,211,[-2.68796894e+03  3.41379393e+02 -2.93100371e-03 -1.31641694e+07],129,785.7541864701208
212,212,[-2.76172381e+03  3.41379432e+02 -3.09032682e-03 -1.31641694e+07],405,783.6949851607267
213,213,[-2.51829154e+03  3.42380467e+02 -2.83729854e-03 -1.31641694e+07],567,786.1419857463055
214,214,[-2.54358005e+03  3.42380610e+02 -2.90761932e-03 -1.31641694e+07],714,785.5458582710229
215,215,[-2.56374339e+03  3.42380630e+02 -3.05351663e-03 -1.31641694e+07],155,778.9605061586965
216,216,[-2.75663359e+03  3.41379475e+02 -3.14101466e-03 -1.31641694e+07],660,784.5249323653835
217,217,[-2.79201191e+03  3.40378647e+02 -2.88003452e-03 -1.31641694e+07],151,781.8564463682027
218,218,[-2.75874561e+03  3.41379716e+02 -3.18840061e-03 -1.31641694e+07],267,781.7611380628971
219,219,[-2.79182904e+03  3.41379468e+02 -3.15774819e-03 -1.31641694e+07],637,782.0936727219623
220,220,[-3.17353917e+03  3.39377357e+02 -3.54501847e-03 -1.31641694e+07],466,782.4492213471368
221,221,[-2.88586661e+03  3.40378652e+02 -3.04867174e-03 -1.31641694e+07],467,780.0721302818733
222,222,[-3.18169391e+03  3.39377576e+02 -3.58245713e-03 -1.31641694e+07],340,783.2768268648442
223,223,[-3.20181492e+03  3.39377108e+02 -4.11685910e-03 -1.31641694e+07],123,783.2201593443325
224,224,[-3.23707626e+03  3.39377157e+02 -3.66572896e-03 -1.31641694e+07],98,783.3102664168727
225,225,[-2.54344249e+03  3.42380616e+02 -2.91961562e-03 -1.31641694e+07],514,781.1805506545197
226,226,[-2.76957685e+03  3.41379404e+02 -3.06909246e-03 -1.31641694e+07],679,783.4434562266164
227,227,[-2.69893562e+03  3.41379732e+02 -2.86805800e-03 -1.31641694e+07],644,782.9271972690916
228,228,[-2.64993248e+03  3.41379562e+02 -2.71017163e-03 -1.31641694e+07],87,780.8549070103505
229,229,[-2.71987839e+03  3.41379325e+02 -3.02071097e-03 -1.31641694e+07],306,782.5155162841337
230,230,[-2.98016811e+03  3.40378408e+02 -3.28216074e-03 -1.31641694e+07],55,782.8729685642886
231,231,[-3.18019714e+03  3.39377161e+02 -3.71311722e-03 -1.31641694e+07],377,782.7932408119065
232,232,[-3.25949997e+03  3.39377215e+02 -3.69059552e-03 -1.31641694e+07],632,781.6311451009705
233,233,[-2.53670911e+03  3.42380502e+02 -2.82637341e-03 -1.31641694e+07],495,780.7753905732045
234,234,[-2.42414851e+03  3.43381704e+02 -3.05874281e-03 -1.31641694e+07],590,782.3231150401592
235,235,[-3.01520473e+03  3.40378390e+02 -3.32177294e-03 -1.31641694e+07],542,782.7820155744315
236,236,[-2.85102293e+03  3.40378741e+02 -3.33898013e-03 -1.31641694e+07],17,782.2111002653572
237,237,[-2.72313083e+03  3.41379473e+02 -3.22069660e-03 -1.31641694e+07],379,770.6808720785696
238,238,[-2.43092837e+03  3.43381842e+02 -3.09686850e-03 -1.31641694e+07],373,784.6637559390003
239,239,[-2.75058629e+03  3.41379559e+02 -3.02553384e-03 -1.31641694e+07],471,785.8610278060153
240,240,[-2.93930799e+03  3.40378289e+02 -3.51292724e-03 -1.31641694e+07],254,783.7680467862267
241,241,[-3.31962985e+03  3.38376514e+02 -4.20506038e-03 -1.31641694e+07],526,783.5990797840685
242,242,[-2.54665789e+03  3.42381193e+02 -2.89939843e-03 -1.31641694e+07],745,780.3553482084568
243,243,[-2.76839895e+03  3.41379465e+02 -3.02391298e-03 -1.31641694e+07],4,779.8599499112559
244,244,[-2.74547839e+03  3.41379759e+02 -3.01799777e-03 -1.31641694e+07],575,780.3463872355263
245,245,[-2.54657908e+03  3.42380520e+02 -2.89097631e-03 -1.31641694e+07],592,782.1149994137587
246,246,[-2.76696856e+03  3.41379647e+02 -3.01771930e-03 -1.31641694e+07],238,785.4352229547359
247,247,[-3.13034316e+03  3.39377175e+02 -3.28321774e-03 -1.31641694e+07],705,780.6391623777322
248,248,[-2.73258824e+03  3.41379372e+02 -3.16474458e-03 -1.31641694e+07],8,784.9567451159029
249,249,[-2.56034437e+03  3.42380890e+02 -3.09630357e-03 -1.31641694e+07],653,775.1460092098921
250,250,[-3.15476095e+03  3.40378228e+02 -3.94773531e-03 -1.31641694e+07],138,780.5864126075944
251,251,[-2.89409146e+03  3.40378324e+02 -3.32279403e-03 -1.31641694e+07],646,785.3751780578348
252,252,[-2.74592656e+03  3.41379600e+02 -3.13947868e-03 -1.31641694e+07],124,783.0571370254041
253,253,[-2.95136388e+03  3.40378529e+02 -3.09662503e-03 -1.31641694e+07],492,778.0821446416063
254,254,[-2.75196272e+03  3.41379423e+02 -3.09600454e-03 -1.31641694e+07],316,784.7270639718084
255,255,[-2.94490766e+03  3.40378243e+02 -3.29544621e-03 -1.31641694e+07],689,786.0237640714605
256,256,[-2.82312611e+03  3.40378301e+02 -2.97287476e-03 -1.31641694e+07],490,782.0222143887418
257,257,[-2.56415604e+03  3.42380626e+02 -2.98957109e-03 -1.31641694e+07],97,780.4279921740446
258,258,[-2.77452794e+03  3.41379483e+02 -3.17603713e-03 -1.31641694e+07],570,784.0154769435752
259,259,[-2.71732872e+03  3.41379615e+02 -2.98144565e-03 -1.31641694e+07],303,786.211257196635
260,260,[-2.68494562e+03  3.41379347e+02 -2.80537943e-03 -1.31641694e+07],49,785.4068284639043
261,261,[-3.14377846e+03  3.40378328e+02 -4.05126077e-03 -1.31641694e+07],282,781.5316387540084
262,262,[-2.68561860e+03  3.41379314e+02 -2.88875891e-03 -1.31641694e+07],62,785.2829045034429
263,263,[-2.55941058e+03  3.42381513e+02 -2.95821591e-03 -1.31641694e+07],737,783.6728250899209
264,264,[-2.43536932e+03  3.43381828e+02 -3.11130493e-03 -1.31641694e+07],769,783.8552320366545
265,265,[-2.55745756e+03  3.42380774e+02 -2.89381476e-03 -1.31641694e+07],538,782.6481383267003
266,266,[-2.84577782e+03  3.40378256e+02 -3.04469448e-03 -1.31641694e+07],68,784.2531166291955
267,267,[-2.74933060e+03  3.41379694e+02 -3.10516717e-03 -1.31641694e+07],500,784.8521831370916
268,268,[-2.76297045e+03  3.41379374e+02 -3.06716462e-03 -1.31641694e+07],784,785.207191355689
269,269,[-2.60990424e+03  3.41379723e+02 -2.60507738e-03 -1.31641694e+07],299,785.1116152858407
270,270,[-2.84023666e+03  3.40378239e+02 -3.32915355e-03 -1.31641694e+07],136,782.8682606716781
271,271,[-2.75450438e+03  3.41379462e+02 -3.07193117e-03 -1.31641694e+07],624,779.2092623492247
272,272,[-2.74278245e+03  3.41379333e+02 -2.98959201e-03 -1.31641694e+07],764,769.5023143722735
273,273,[-3.06404578e+03  3.40378300e+02 -4.18962220e-03 -1.31641694e+07],15,775.5036680545468
274,274,[-2.86664311e+03  3.40378279e+02 -3.06087082e-03 -1.31641694e+07],639,785.5196912652126
275,275,[-2.73896059e+03  3.41379367e+02 -3.12087801e-03 -1.31641694e+07],409,781.3962645598536
276,276,[-2.74029213e+03  3.41379614e+02 -2.98789357e-03 -1.31641694e+07],290,785.0829828360149
277,277,[-2.90774218e+03  3.40378202e+02 -3.42774040e-03 -1.31641694e+07],216,785.6381598736626
278,278,[-2.42896833e+03  3.43382028e+02 -3.08556025e-03 -1.31641694e+07],56,782.1019211475873
279,279,[-3.26471372e+03  3.39377119e+02 -3.73728209e-03 -1.31641694e+07],404,786.1462759903516
280,280,[-3.16547987e+03  3.39377387e+02 -3.63993172e-03 -1.31641694e+07],102,785.9174436126159
281,281,[-2.41547552e+03  3.43381679e+02 -3.05086923e-03 -1.31641694e+07],443,783.2934312527784
282,282,[-2.75347174e+03  3.41380083e+02 -3.04117940e-03 -1.31641694e+07],16,784.5714990063826
283,283,[-2.75177863e+03  3.41379431e+02 -3.12095731e-03 -1.31641694e+07],674,786.652490784669
284,284,[-3.19296930e+03  3.39377093e+02 -3.61340366e-03 -1.31641694e+07],594,785.7677643074201
285,285,[-2.75023640e+03  3.41379337e+02 -3.08248998e-03 -1.31641694e+07],524,785.6959746679928
286,286,[-2.75043248e+03  3.41379473e+02 -3.13309467e-03 -1.31641694e+07],670,785.0958187200572
287,287,[-2.63333358e+03  3.41379577e+02 -2.65574846e-03 -1.31641694e+07],706,784.3053247338745
288,288,[-2.88353339e+03  3.40378299e+02 -3.10675929e-03 -1.31641694e+07],58,784.1215617903215
289,289,[-2.54809859e+03  3.42380555e+02 -2.90400272e-03 -1.31641694e+07],792,784.4010954337906
290,290,[-3.11369019e+03  3.40378286e+02 -3.75726486e-03 -1.31641694e+07],503,784.5267567097751
291,291,[-2.42689043e+03  3.43381731e+02 -3.08513349e-03 -1.31641694e+07],604,785.5491356765216
292,292,[-2.55282002e+03  3.42380457e+02 -2.89075776e-03 -1.31641694e+07],482,785.2992122401126
293,293,[-2.90658772e+03  3.40378429e+02 -3.10512041e-03 -1.31641694e+07],105,786.0748489294285
294,294,[-2.91240673e+03  3.40378358e+02 -3.10526527e-03 -1.31641694e+07],521,785.7015263746679
295,295,[-2.74499104e+03  3.41379488e+02 -3.13594108e-03 -1.31641694e+07],622,785.9264152084412
296,296,[-2.74591351e+03  3.41379410e+02 -3.10392570e-03 -1.31641694e+07],289,783.477364892373
297,297,[-3.22951304e+03  3.39377426e+02 -3.58835838e-03 -1.31641694e+07],92,781.0292870848785
298,298,[-2.64537938e+03  3.41379550e+02 -2.75620688e-03 -1.31641694e+07],698,783.2722240852545
299,299,[-3.12665623e+03  3.39377119e+02 -3.61486989e-03 -1.31641694e+07],603,784.5558256678048
300,300,[-3.01887964e+03  3.40378316e+02 -3.41327721e-03 -1.31641694e+07],641,781.8451338607463
301,301,[-3.18809162e+03  3.39377213e+02 -3.75622920e-03 -1.31641694e+07],729,786.5825752693454
302,302,[-2.65776795e+03  3.41379658e+02 -2.78665485e-03 -1.31641694e+07],505,783.8851740401825
303,303,[-2.86737267e+03  3.40378730e+02 -3.38426972e-03 -1.31641694e+07],137,784.574855517977
304,304,[-2.42344630e+03  3.43381606e+02 -3.09662276e-03 -1.31641694e+07],38,783.538090313313
305,305,[-2.76331920e+03  3.41379401e+02 -3.04002073e-03 -1.31641694e+07],353,785.4305282596614
306,306,[-3.11451935e+03  3.39377369e+02 -3.58358244e-03 -1.31641694e+07],483,784.7800389386529
307,307,[-2.74208963e+03  3.41379444e+02 -3.04021194e-03 -1.31641694e+07],608,785.4391369206822
308,308,[-3.18837134e+03  3.39377163e+02 -3.76127659e-03 -1.31641694e+07],649,785.2815260830888
309,309,[-2.76700811e+03  3.41379718e+02 -3.01898697e-03 -1.31641694e+07],332,783.7141073478319
310,310,[-2.73849030e+03  3.41379323e+02 -3.02777466e-03 -1.31641694e+07],751,785.0166753170807
311,311,[-2.52967267e+03  3.42380719e+02 -2.81400448e-03 -1.31641694e+07],555,779.6783416249918
312,312,[-2.75161460e+03  3.41379426e+02 -3.09714821e-03 -1.31641694e+07],154,785.0983932054819
313,313,[-2.89868049e+03  3.40378455e+02 -3.18913208e-03 -1.31641694e+07],157,785.4459898667752
314,314,[-2.66001478e+03  3.41379347e+02 -2.73326202e-03 -1.31641694e+07],342,780.5744721723745
315,315,[-3.14981110e+03  3.39377630e+02 -3.81792876e-03 -1.31641694e+07],494,781.5448783097681
316,316,[-2.75891297e+03  3.41379609e+02 -3.07280239e-03 -1.31641694e+07],655,784.6276330591263
317,317,[-2.76676461e+03  3.41379592e+02 -3.15322026e-03 -1.31641694e+07],741,786.0767002618005
318,318,[-2.74645489e+03  3.41379581e+02 -3.09906771e-03 -1.31641694e+07],287,786.2338960214516
319,319,[-2.71457658e+03  3.41379414e+02 -3.07169757e-03 -1.31641694e+07],631,785.2276291423939
320,320,[-2.91021267e+03  3.40378327e+02 -3.16383840e-03 -1.31641694e+07],40,784.9949780111796
321,321,[-2.44069338e+03  3.43381687e+02 -3.12224843e-03 -1.31641694e+07],620,783.2037462751556
322,322,[-3.23059662e+03  3.39377674e+02 -3.78333135e-03 -1.31641694e+07],33,785.8309378045528
323,323,[-3.17989133e+03  3.39377111e+02 -3.75572289e-03 -1.31641694e+07],795,783.797284024115
324,324,[-2.85190408e+03  3.40378585e+02 -3.04369241e-03 -1.31641694e+07],266,783.1146933141717
325,325,[-2.55613400e+03  3.42381253e+02 -2.89189024e-03 -1.31641694e+07],534,780.1525699217001
326,326,[-2.76084607e+03  3.41379636e+02 -3.03500410e-03 -1.31641694e+07],205,786.0407179086527
327,327,[-2.95219463e+03  3.40378258e+02 -3.44902590e-03 -1.31641694e+07],509,786.3590810325509
328,328,[-2.50762115e+03  3.42381273e+02 -2.85957715e-03 -1.31641694e+07],790,782.8439189549856
329,329,[-2.74429514e+03  3.41379405e+02 -3.11179094e-03 -1.31641694e+07],711,786.1066683592062
330,330,[-2.56789328e+03  3.42380770e+02 -3.05839404e-03 -1.31641694e+07],738,785.738389916314
331,331,[-3.03776890e+03  3.40378321e+02 -4.02889334e-03 -1.31641694e+07],13,782.7401389104841
332,332,[-2.57745847e+03  3.42380455e+02 -3.06275234e-03 -1.31641694e+07],651,784.3419309688197
333,333,[-2.77066004e+03  3.41379344e+02 -3.13804805e-03 -1.31641694e+07],345,785.1205472786604
334,334,[-3.15966995e+03  3.39377367e+02 -3.67894378e-03 -1.31641694e+07],610,785.3553547823919
335,335,[-2.72324545e+03  3.41379361e+02 -3.14909204e-03 -1.31641694e+07],704,779.4838161424868
336,336,[-2.73680878e+03  3.41379840e+02 -3.12743382e-03 -1.31641694e+07],288,786.0189923678354
337,337,[-2.82139282e+03  3.40378243e+02 -3.07150825e-03 -1.31641694e+07],156,785.2129318667115
338,338,[-2.54299431e+03  3.42380659e+02 -2.90270584e-03 -1.31641694e+07],680,786.8214993129084
339,339,[-2.73841549e+03  3.41379766e+02 -3.07908845e-03 -1.31641694e+07],599,786.7654199636133
340,340,[-2.80646216e+03  3.40378251e+02 -2.89711757e-03 -1.31641694e+07],772,784.84529744261
341,341,[-2.73627723e+03  3.41379790e+02 -3.11327738e-03 -1.31641694e+07],619,782.4429213789151
342,342,[-2.76009877e+03  3.41379320e+02 -3.11201135e-03 -1.31641694e+07],380,784.3244696856697
343,343,[-2.89805799e+03  3.40378278e+02 -3.41276886e-03 -1.31641694e+07],7,785.9811344153352
344,344,[-2.48868409e+03  3.42380436e+02 -2.83718934e-03 -1.31641694e+07],549,787.1367627687096
345,345,[-2.74299247e+03  3.41379350e+02 -3.03153101e-03 -1.31641694e+07],580,784.1702616140623
346,346,[-2.56997858e+03  3.42380468e+02 -3.06520549e-03 -1.31641694e+07],60,784.9580538220492
347,347,[-2.72894803e+03  3.41379401e+02 -3.11473589e-03 -1.31641694e+07],546,787.1706133714713
348,348,[-2.66389735e+03  3.41379432e+02 -2.89841872e-03 -1.31641694e+07],588,786.2943026392744
349,349,[-2.55930725e+03  3.42380544e+02 -3.06615254e-03 -1.31641694e+07],770,779.8029896708069
350,350,[-2.58281009e+03  3.42380487e+02 -3.04543160e-03 -1.31641694e+07],258,785.0038964455817
351,351,[-2.89768102e+03  3.40378335e+02 -3.26258296e-03 -1.31641694e+07],63,786.4380312456251
352,352,[-3.14348807e+03  3.39377361e+02 -3.73334551e-03 -1.31641694e+07],140,785.4612316628738
353,353,[-2.76051041e+03  3.41379681e+02 -3.13807501e-03 -1.31641694e+07],681,784.3484627246014
354,354,[-2.76341655e+03  3.41379548e+02 -3.06588739e-03 -1.31641694e+07],720,786.1263333845492
355,355,[-2.80747966e+03  3.40378661e+02 -3.15997798e-03 -1.31641694e+07],446,785.914023031827
356,356,[-2.83740544e+03  3.40378425e+02 -3.22425763e-03 -1.31641694e+07],647,785.6525408591255
357,357,[-2.76005731e+03  3.41379562e+02 -3.11860609e-03 -1.31641694e+07],425,785.8602275664169
358,358,[-2.42921279e+03  3.43381729e+02 -3.11883474e-03 -1.31641694e+07],548,786.7242777933542
359,359,[-2.79938917e+03  3.40378582e+02 -3.01274862e-03 -1.31641694e+07],671,785.1184557786486
360,360,[-2.64741718e+03  3.41379420e+02 -2.88612691e-03 -1.31641694e+07],669,786.6217981805809
361,361,[-2.74306196e+03  3.41379317e+02 -3.10716845e-03 -1.31641694e+07],762,786.5158783338886
362,362,[-2.76431086e+03  3.41379637e+02 -3.06511032e-03 -1.31641694e+07],587,786.2943425730479
363,363,[-2.74961787e+03  3.41379523e+02 -3.09694673e-03 -1.31641694e+07],773,781.7269082103236
364,364,[-2.73483973e+03  3.41379506e+02 -3.06935546e-03 -1.31641694e+07],584,787.2913198222302
365,365,[-2.86053992e+03  3.40378430e+02 -3.24187143e-03 -1.31641694e+07],3,786.3876081977189
366,366,[-3.24910942e+03  3.39377142e+02 -3.81687839e-03 -1.31641694e+07],302,786.4306926757715
367,367,[-2.74612340e+03  3.41379572e+02 -3.12312657e-03 -1.31641694e+07],582,786.5784049025494
368,368,[-2.69374864e+03  3.41379455e+02 -2.94035951e-03 -1.31641694e+07],694,787.0185800788365
369,369,[-2.42420495e+03  3.43382194e+02 -3.10968131e-03 -1.31641694e+07],781,785.6924567147182
370,370,[-2.74569435e+03  3.41379681e+02 -3.17485935e-03 -1.31641694e+07],264,786.5747263069854
371,371,[-2.86689440e+03  3.40378664e+02 -3.09158619e-03 -1.31641694e+07],628,782.8552389461274
372,372,[-3.11265820e+03  3.39377289e+02 -3.66207349e-03 -1.31641694e+07],565,783.691364396534
373,373,[-2.74650133e+03  3.41379454e+02 -3.07736973e-03 -1.31641694e+07],441,784.7403987156457
374,374,[-2.54194231e+03  3.42380517e+02 -2.87975764e-03 -1.31641694e+07],730,785.9515347586047
375,375,[-2.89380803e+03  3.40378339e+02 -3.09946927e-03 -1.31641694e+07],485,785.526589462902
376,376,[-2.74880905e+03  3.41379399e+02 -3.02887086e-03 -1.31641694e+07],384,785.5380784692447
377,377,[-2.54787983e+03  3.42380865e+02 -2.90784927e-03 -1.31641694e+07],545,784.774764913449
378,378,[-2.87198725e+03  3.40378336e+02 -3.08065790e-03 -1.31641694e+07],638,784.9689587629507
379,379,[-2.42077808e+03  3.43381683e+02 -3.12438642e-03 -1.31641694e+07],147,784.7418608657607
380,380,[-3.08123078e+03  3.40378293e+02 -3.74840301e-03 -1.31641694e+07],601,784.0580532920801
381,381,[-2.88938071e+03  3.40378236e+02 -3.32769140e-03 -1.31641694e+07],323,785.8535268553396
382,382,[-2.66511092e+03  3.41379846e+02 -2.93232086e-03 -1.31641694e+07],150,786.5949234680508
383,383,[-2.86711715e+03  3.40378830e+02 -3.23451884e-03 -1.31641694e+07],586,785.9665479075489
384,384,[-2.74505313e+03  3.41379393e+02 -3.20153218e-03 -1.31641694e+07],240,783.8208646648534
385,385,[-2.75185443e+03  3.41379352e+02 -3.13266535e-03 -1.31641694e+07],561,785.5771557210544
386,386,[-2.86363579e+03  3.40378725e+02 -3.31920048e-03 -1.31641694e+07],178,786.1740975316158
387,387,[-2.72114389e+03  3.41380040e+02 -3.11714164e-03 -1.31641694e+07],593,786.0549502454533
388,388,[-3.04760674e+03  3.40378342e+02 -3.74311557e-03 -1.31641694e+07],37,785.0156333949591
389,389,[-2.72952252e+03  3.41380007e+02 -3.19325386e-03 -1.31641694e+07],525,783.0059356532169
390,390,[-2.72590551e+03  3.41379356e+02 -3.06980187e-03 -1.31641694e+07],109,787.1588394090252
391,391,[-2.42933076e+03  3.43381968e+02 -3.15011197e-03 -1.31641694e+07],734,785.727438180371
392,392,[-2.74229000e+03  3.41379499e+02 -3.11397560e-03 -1.31641694e+07],574,785.4016329301055
393,393,[-2.79996335e+03  3.40378242e+02 -2.69384090e-03 -1.31641694e+07],717,779.9920754247645
394,394,[-3.17737376e+03  3.39377182e+02 -3.85128938e-03 -1.31641694e+07],110,785.8014615486182
395,395,[-3.10613844e+03  3.39377297e+02 -3.86749696e-03 -1.31641694e+07],309,783.3378787704905
396,396,[-2.74121648e+03  3.41379544e+02 -3.14007826e-03 -1.31641694e+07],487,778.7160820327165
397,397,[-2.74291736e+03  3.41379434e+02 -3.06946588e-03 -1.31641694e+07],550,779.3724720643775
398,398,[-3.16576402e+03  3.39377324e+02 -3.87356429e-03 -1.31641694e+07],212,786.1309640427557
399,399,[-2.88236559e+03  3.40378343e+02 -3.11895997e-03 -1.31641694e+07],372,784.9442724140005
400,400,[-2.74857166e+03  3.41379805e+02 -3.09694561e-03 -1.31641694e+07],541,787.1734855321986
401,401,[-3.10364488e+03  3.39377186e+02 -4.01511204e-03 -1.31641694e+07],177,786.0802398996375
402,402,[-2.73206309e+03  3.41379668e+02 -3.10833106e-03 -1.31641694e+07],209,786.1876900194395
403,403,[-3.14587282e+03  3.40378343e+02 -4.15995938e-03 -1.31641694e+07],493,780.3025257839702
404,404,[-2.74546337e+03  3.41379365e+02 -3.20710707e-03 -1.31641694e+07],263,784.5156602756418
405,405,[-2.68861840e+03  3.41379638e+02 -3.06820904e-03 -1.31641694e+07],52,784.8848188221757
406,406,[-2.73183898e+03  3.41379728e+02 -3.15191769e-03 -1.31641694e+07],153,785.8307430728216
407,407,[-2.57729089e+03  3.42381083e+02 -3.06528228e-03 -1.31641694e+07],695,785.2699689605253
408,408,[-2.75420478e+03  3.41379470e+02 -3.16016704e-03 -1.31641694e+07],418,785.5805377423288
409,409,[-2.65113597e+03  3.41380073e+02 -2.99248298e-03 -1.31641694e+07],135,784.5294501526247
410,410,[-2.55860683e+03  3.42380711e+02 -2.90179038e-03 -1.31641694e+07],433,784.9915026206857
411,411,[-2.43602967e+03  3.43381670e+02 -3.10785234e-03 -1.31641694e+07],36,785.0202877201414
412,412,[-3.12660128e+03  3.39377165e+02 -3.59160703e-03 -1.31641694e+07],746,783.3464325757501
413,413,[-2.71818847e+03  3.41379399e+02 -3.10788540e-03 -1.31641694e+07],488,786.2398123088717
414,414,[-3.15900317e+03  3.39377172e+02 -3.59473454e-03 -1.31641694e+07],30,784.9282455070096
415,415,[-2.42799930e+03  3.43382594e+02 -3.12432493e-03 -1.31641694e+07],241,785.1143219372943
416,416,[-3.21288152e+03  3.39377282e+02 -3.73861271e-03 -1.31641694e+07],115,785.0395434347203
417,417,[-2.55146406e+03  3.42381469e+02 -2.97155754e-03 -1.31641694e+07],654,786.3883670030058
418,418,[-2.65202352e+03  3.41379447e+02 -2.86397720e-03 -1.31641694e+07],780,783.6459806755466
419,419,[-2.74587843e+03  3.41379448e+02 -3.14373069e-03 -1.31641694e+07],685,782.0784984751582
420,420,[-2.86866743e+03  3.40378359e+02 -3.24528853e-03 -1.31641694e+07],692,778.9126570431006
421,421,[-3.28049865e+03  3.38376496e+02 -4.05817831e-03 -1.31641694e+07],304,786.3455347419101
422,422,[-3.16402844e+03  3.39377129e+02 -3.67453659e-03 -1.31641694e+07],793,785.4628304231203
423,423,[-2.56956324e+03  3.42380806e+02 -3.07254511e-03 -1.31641694e+07],127,777.0920262245928
424,424,[-2.53825811e+03  3.42380852e+02 -2.90353482e-03 -1.31641694e+07],777,782.0337491103634
425,425,[-2.74470581e+03  3.41379711e+02 -3.15546337e-03 -1.31641694e+07],455,783.9750851457007
426,426,[-2.43071355e+03  3.43381744e+02 -3.11514503e-03 -1.31641694e+07],667,785.8610914519898
427,427,[-2.69596690e+03  3.41379625e+02 -3.02108636e-03 -1.31641694e+07],206,786.7277174012315
428,428,[-3.12515156e+03  3.39377251e+02 -3.64412594e-03 -1.31641694e+07],296,784.9500018937712
429,429,[-2.41578283e+03  3.43381552e+02 -3.10277144e-03 -1.31641694e+07],438,782.955135123695
430,430,[-2.74379124e+03  3.41379346e+02 -3.15570182e-03 -1.31641694e+07],581,783.1745105051751
431,431,[-2.73914162e+03  3.41379551e+02 -3.17378355e-03 -1.31641694e+07],543,785.593484816372
432,432,[-2.72308184e+03  3.41379436e+02 -3.15530046e-03 -1.31641694e+07],710,785.168563275059
433,433,[-2.73839609e+03  3.41379601e+02 -3.08987159e-03 -1.31641694e+07],226,783.637895438851
434,434,[-2.73540796e+03  3.41379576e+02 -3.24634852e-03 -1.31641694e+07],562,782.1897034925835
435,435,[-2.43146346e+03  3.43381952e+02 -3.11183597e-03 -1.31641694e+07],141,785.749684559071
436,436,[-3.18857776e+03  3.39377165e+02 -3.61898064e-03 -1.31641694e+07],722,787.1466940139816
437,437,[-2.72027018e+03  3.41379363e+02 -3.06290593e-03 -1.31641694e+07],474,786.0195704120714
438,438,[-3.09148738e+03  3.40378219e+02 -3.86158848e-03 -1.31641694e+07],743,783.4672124997994
439,439,[-2.73893892e+03  3.41379532e+02 -3.01383547e-03 -1.31641694e+07],778,786.0088778671264
440,440,[-2.87797381e+03  3.40378731e+02 -3.26509159e-03 -1.31641694e+07],489,771.1495834745933
441,441,[-2.63031377e+03  3.41379578e+02 -2.97527431e-03 -1.31641694e+07],758,783.8428436954333
442,442,[-2.72463403e+03  3.41379344e+02 -3.14053885e-03 -1.31641694e+07],26,785.580446622301
443,443,[-2.57025588e+03  3.42380733e+02 -3.02066195e-03 -1.31641694e+07],25,784.4997722740745
444,444,[-2.41149163e+03  3.43382488e+02 -3.09186491e-03 -1.31641694e+07],657,775.7494137660335
445,445,[-3.19560317e+03  3.39377179e+02 -3.66509821e-03 -1.31641694e+07],412,779.0638767636508
446,446,[-3.17498462e+03  3.39377148e+02 -3.90705156e-03 -1.31641694e+07],395,783.9852607300834
447,447,[-2.73319843e+03  3.41379449e+02 -3.18923498e-03 -1.31641694e+07],677,779.9066353456633
448,448,[-2.43742655e+03  3.43381574e+02 -3.13715189e-03 -1.31641694e+07],478,779.6179860813191
449,449,[-2.76978065e+03  3.41379841e+02 -3.14810674e-03 -1.31641694e+07],9,782.91103933497
450,450,[-2.65525903e+03  3.41379404e+02 -2.93277338e-03 -1.31641694e+07],712,785.9864563364054
451,451,[-2.72601084e+03  3.41379414e+02 -3.01201885e-03 -1.31641694e+07],713,783.0427814770749
452,452,[-2.72320202e+03  3.41379890e+02 -3.01445486e-03 -1.31641694e+07],51,785.2458428875643
453,453,[-2.75347691e+03  3.41379358e+02 -2.99662679e-03 -1.31641694e+07],224,782.436041047132
454,454,[-2.53181893e+03  3.42380567e+02 -2.88859725e-03 -1.31641694e+07],281,780.4643415245087
455,455,[-2.83543045e+03  3.40378327e+02 -3.02235701e-03 -1.31641694e+07],539,783.503883152408
456,456,[-2.52016848e+03  3.42380451e+02 -2.83740222e-03 -1.31641694e+07],39,785.1462853859833
457,457,[-2.43138241e+03  3.43381694e+02 -3.12767717e-03 -1.31641694e+07],629,781.6746081822433
458,458,[-2.58582516e+03  3.42380742e+02 -3.05957092e-03 -1.31641694e+07],61,785.6941492232978
459,459,[-2.87897031e+03  3.40378652e+02 -3.21452650e-03 -1.31641694e+07],691,785.978883802973
460,460,[-3.04499652e+03  3.40378277e+02 -3.73932678e-03 -1.31641694e+07],125,778.8968852649543
461,461,[-2.84166357e+03  3.40378278e+02 -3.24654785e-03 -1.31641694e+07],222,785.2701944619793
462,462,[-3.16592498e+03  3.39377088e+02 -3.82106836e-03 -1.31641694e+07],196,786.1521063083876
463,463,[-2.72758574e+03  3.41379496e+02 -3.02474543e-03 -1.31641694e+07],298,785.5206095355289
464,464,[-2.73346765e+03  3.41379356e+02 -3.04601585e-03 -1.31641694e+07],18,782.8913494511954
465,465,[-3.08746992e+03  3.40378267e+02 -3.98114649e-03 -1.31641694e+07],716,777.5786994556114
466,466,[-2.73258701e+03  3.41379655e+02 -3.08697718e-03 -1.31641694e+07],544,784.8488438818692
467,467,[-2.73015173e+03  3.41379651e+02 -3.18679996e-03 -1.31641694e+07],112,784.845681665682
468,468,[-2.93200168e+03  3.40378225e+02 -3.49731939e-03 -1.31641694e+07],223,786.4245562114723
469,469,[-2.41798768e+03  3.43382375e+02 -3.11472619e-03 -1.31641694e+07],134,782.8572383991387
470,470,[-2.42923370e+03  3.43381654e+02 -3.08730965e-03 -1.31641694e+07],321,782.5590030752197
471,471,[-2.73201409e+03  3.41379413e+02 -3.13234214e-03 -1.31641694e+07],618,784.7361472952343
472,472,[-2.63610694e+03  3.41379547e+02 -2.64621656e-03 -1.31641694e+07],554,775.6722265215803
473,473,[-2.54892983e+03  3.42380619e+02 -2.98091779e-03 -1.31641694e+07],530,781.6237065995615
474,474,[-2.87991369e+03  3.40378280e+02 -3.17551776e-03 -1.31641694e+07],430,783.4103699866924
475,475,[-2.44211303e+03  3.43381732e+02 -3.16836785e-03 -1.31641694e+07],684,782.2669507364009
476,476,[-2.92937637e+03  3.40378311e+02 -3.63486907e-03 -1.31641694e+07],775,779.9978912718435
477,477,[-2.65217446e+03  3.41379993e+02 -3.00765442e-03 -1.31641694e+07],498,781.5781536958808
478,478,[-3.15973644e+03  3.39377266e+02 -3.71467710e-03 -1.31641694e+07],564,783.3259755302228
479,479,[-2.72658505e+03  3.41379841e+02 -3.02932514e-03 -1.31641694e+07],24,785.2068073556367
480,480,[-2.41845129e+03  3.43382076e+02 -3.09760182e-03 -1.31641694e+07],324,782.170921765813
481,481,[-2.89837814e+03  3.40378301e+02 -3.32426142e-03 -1.31641694e+07],501,785.7478657337937
482,482,[-2.76830713e+03  3.41379566e+02 -3.25997558e-03 -1.31641694e+07],611,784.4217821803968
483,483,[-2.42205738e+03  3.43382321e+02 -3.12734155e-03 -1.31641694e+07],34,784.3477703767902
484,484,[-2.90548925e+03  3.40378409e+02 -3.30577074e-03 -1.31641694e+07],529,785.014705011059
485,485,[-2.54939224e+03  3.42380550e+02 -2.93753786e-03 -1.31641694e+07],252,783.8372122044461
486,486,[-3.08090252e+03  3.40378500e+02 -4.02882658e-03 -1.31641694e+07],19,779.6888025721955
487,487,[-3.14745741e+03  3.39377291e+02 -3.82650882e-03 -1.31641694e+07],43,783.7123099552924
488,488,[-2.86143972e+03  3.40378218e+02 -3.06406663e-03 -1.31641694e+07],451,783.6085603564203
489,489,[-3.03611353e+03  3.40378275e+02 -3.75372071e-03 -1.31641694e+07],120,783.3711803094462
490,490,[-2.74805238e+03  3.41379581e+02 -3.13895382e-03 -1.31641694e+07],208,784.6052970931295
491,491,[-2.92825521e+03  3.40378505e+02 -3.50865819e-03 -1.31641694e+07],29,782.0051152508161
492,492,[-2.64540569e+03  3.41379626e+02 -2.87806462e-03 -1.31641694e+07],791,784.6279898000463
493,493,[-2.75385297e+03  3.41379859e+02 -3.21682383e-03 -1.31641694e+07],607,783.6730815943304
494,494,[-2.54980181e+03  3.42380476e+02 -2.96728484e-03 -1.31641694e+07],46,784.3195969381435
495,495,[-2.73787665e+03  3.41379983e+02 -3.06645515e-03 -1.31641694e+07],389,784.7728983868955
496,496,[-2.76554490e+03  3.41379753e+02 -3.18988381e-03 -1.31641694e+07],182,785.625645483913
497,497,[-2.74967268e+03  3.41379440e+02 -3.10152554e-03 -1.31641694e+07],32,785.1252107691024
498,498,[-2.56103041e+03  3.42380813e+02 -2.94740365e-03 -1.31641694e+07],589,783.1603678998407
499,499,[-3.08148608e+03  3.40378348e+02 -3.71861899e-03 -1.31641694e+07],429,782.6772442844212
500,500,[-3.03008179e+03  3.40378408e+02 -3.68930556e-03 -1.31641694e+07],23,784.5583545591992
501,501,[-2.54792512e+03  3.42381229e+02 -2.95304981e-03 -1.31641694e+07],227,783.0944748548624
502,502,[-2.58303449e+03  3.42380594e+02 -3.06205840e-03 -1.31641694e+07],598,785.0396292964311
503,503,[-2.74000851e+03  3.41379719e+02 -3.03952729e-03 -1.31641694e+07],28,784.4340703558327
504,504,[-2.74729000e+03  3.41379319e+02 -3.09044178e-03 -1.31641694e+07],449,782.3387869094522
505,505,[-2.56676295e+03  3.42380431e+02 -2.95509048e-03 -1.31641694e+07],48,784.3588430255081
506,506,[-2.76212886e+03  3.41379596e+02 -3.09198730e-03 -1.31641694e+07],464,785.514129416967
507,507,[-2.75496524e+03  3.41379356e+02 -3.13577610e-03 -1.31641694e+07],591,785.2180026975167
508,508,[-3.17439550e+03  3.39377147e+02 -3.77271592e-03 -1.31641694e+07],230,784.9675312877733
509,509,[-2.55001215e+03  3.42380457e+02 -2.97624345e-03 -1.31641694e+07],270,784.225437935469
510,510,[-2.75354621e+03  3.41379507e+02 -3.10053930e-03 -1.31641694e+07],201,785.3981832491878
511,511,[-3.14371438e+03  3.39377478e+02 -3.73098797e-03 -1.31641694e+07],703,785.2868704335
512,512,[-3.18920424e+03  3.39377162e+02 -3.77685325e-03 -1.31641694e+07],180,787.1179560548769
513,513,[-2.65041085e+03  3.41379442e+02 -2.87194647e-03 -1.31641694e+07],605,785.3887011731458
514,514,[-2.42656114e+03  3.43381599e+02 -3.13554763e-03 -1.31641694e+07],469,784.8165388794556
515,515,[-2.74862951e+03  3.41379540e+02 -3.19866512e-03 -1.31641694e+07],371,785.719161441235
516,516,[-2.65342384e+03  3.41379490e+02 -2.91936707e-03 -1.31641694e+07],328,785.6790520709156
517,517,[-2.74434952e+03  3.41379514e+02 -3.11123656e-03 -1.31641694e+07],753,786.2088850268792
518,518,[-2.76048037e+03  3.41379432e+02 -3.07828617e-03 -1.31641694e+07],640,779.5500661744971
519,519,[-2.86784573e+03  3.40378237e+02 -2.97442389e-03 -1.31641694e+07],794,776.7772361380479
520,520,[-2.75497322e+03  3.41379374e+02 -3.12044940e-03 -1.31641694e+07],187,785.5841550725719
521,521,[-3.20287725e+03  3.39377277e+02 -3.78807097e-03 -1.31641694e+07],727,784.408669296211
522,522,[-2.71717416e+03  3.41379631e+02 -3.07872768e-03 -1.31641694e+07],192,786.3896227368259
523,523,[-2.90193084e+03  3.40378437e+02 -3.23840904e-03 -1.31641694e+07],231,784.985755299215
524,524,[-2.95271418e+03  3.40378250e+02 -3.27967409e-03 -1.31641694e+07],50,784.4643677092854
525,525,[-2.43113718e+03  3.43381663e+02 -3.15101788e-03 -1.31641694e+07],235,783.7408575846314
526,526,[-3.14630862e+03  3.39377154e+02 -3.80341060e-03 -1.31641694e+07],728,784.7184904172917
527,527,[-2.65553433e+03  3.41379727e+02 -2.86470569e-03 -1.31641694e+07],139,782.0046888848444
528,528,[-2.54681687e+03  3.42380662e+02 -2.96249167e-03 -1.31641694e+07],633,785.2656348189847
529,529,[-2.53359667e+03  3.42380485e+02 -2.87059887e-03 -1.31641694e+07],31,783.0614821316962
530,530,[-2.68526008e+03  3.41379431e+02 -2.95658962e-03 -1.31641694e+07],331,783.1925252973142
531,531,[-2.63066979e+03  3.41379325e+02 -2.94304688e-03 -1.31641694e+07],540,782.4310486389022
532,532,[-2.59104633e+03  3.42380761e+02 -2.97032415e-03 -1.31641694e+07],197,774.2706867290111
533,533,[-3.00991656e+03  3.40378220e+02 -3.50456904e-03 -1.31641694e+07],499,777.3496713462689
534,534,[-2.88813075e+03  3.40378602e+02 -3.08828322e-03 -1.31641694e+07],583,784.242735746297
535,535,[-3.01779556e+03  3.39377826e+02 -3.55178845e-03 -1.31641694e+07],265,782.4062820315146
536,536,[-2.74403391e+03  3.41379506e+02 -3.09164378e-03 -1.31641694e+07],108,781.1396525695523
537,537,[-2.73693254e+03  3.41379779e+02 -2.93816841e-03 -1.31641694e+07],44,779.4823102881088
538,538,[-2.65484967e+03  3.41379449e+02 -2.93962609e-03 -1.31641694e+07],146,784.5650386340787
539,539,[-3.14024351e+03  3.39377135e+02 -3.64080833e-03 -1.31641694e+07],547,783.2933414217777
540,540,[-2.75592609e+03  3.41379393e+02 -3.15004158e-03 -1.31641694e+07],759,782.6893852935285
541,541,[-2.63092541e+03  3.41379413e+02 -2.99895111e-03 -1.31641694e+07],715,783.6897557095848
542,542,[-2.50984937e+03  3.42380437e+02 -2.84552978e-03 -1.31641694e+07],470,784.7670716558963
543,543,[-2.87253910e+03  3.40378261e+02 -3.28154131e-03 -1.31641694e+07],623,783.4582731655648
544,544,[-2.94863678e+03  3.40378249e+02 -3.48110167e-03 -1.31641694e+07],571,783.2424135007291
545,545,[-2.73595305e+03  3.41379387e+02 -3.11853453e-03 -1.31641694e+07],64,783.8147543725713
546,546,[-2.56374753e+03  3.42380572e+02 -3.05609868e-03 -1.31641694e+07],229,784.0349685539124
547,547,[-2.71654249e+03  3.41379901e+02 -3.07663371e-03 -1.31641694e+07],117,782.5848613678917
548,548,[-2.74898056e+03  3.41379664e+02 -3.12772077e-03 -1.31641694e+07],27,783.9725899881297
549,549,[-2.73800182e+03  3.41379503e+02 -3.22907188e-03 -1.31641694e+07],551,784.0524098995322
550,550,[-3.04096016e+03  3.40378466e+02 -3.92019899e-03 -1.31641694e+07],186,783.7111697128724
551,551,[-2.75316343e+03  3.41379386e+02 -3.15480021e-03 -1.31641694e+07],688,782.4900089620971
552,552,[-2.84222531e+03  3.40378320e+02 -3.30355743e-03 -1.31641694e+07],220,785.6971273229357
553,553,[-2.72878003e+03  3.41379882e+02 -3.10202807e-03 -1.31641694e+07],787,785.8814762748956
554,554,[-3.02160215e+03  3.40378333e+02 -3.78728045e-03 -1.31641694e+07],341,783.1997372057942
555,555,[-3.24554814e+03  3.39377146e+02 -3.70653057e-03 -1.31641694e+07],597,784.33294064765
556,556,[-2.56357205e+03  3.42380813e+02 -3.02431997e-03 -1.31641694e+07],175,785.0796065287601
557,557,[-3.13054401e+03  3.39377174e+02 -3.72997346e-03 -1.31641694e+07],453,785.0688730846404
558,558,[-2.62593905e+03  3.41379694e+02 -2.92314229e-03 -1.31641694e+07],531,785.2620904800694
559,559,[-3.12410368e+03  3.39377189e+02 -3.80260760e-03 -1.31641694e+07],188,778.8757787190045
560,560,[-2.70482514e+03  3.41379826e+02 -3.05038750e-03 -1.31641694e+07],69,784.9612488387917
561,561,[-2.42001494e+03  3.43381609e+02 -3.05731594e-03 -1.31641694e+07],535,783.7671881303208
562,562,[-2.56674488e+03  3.42380524e+02 -2.90714779e-03 -1.31641694e+07],572,783.4272714028183
563,563,[-2.99999334e+03  3.39377099e+02 -3.46025542e-03 -1.31641694e+07],179,782.240384993307
564,564,[-2.74382585e+03  3.41379914e+02 -3.00911406e-03 -1.31641694e+07],152,783.160275486696
565,565,[-2.73630616e+03  3.41379416e+02 -3.19523308e-03 -1.31641694e+07],12,783.8456495585333
566,566,[-3.16632877e+03  3.39377138e+02 -3.83081149e-03 -1.31641694e+07],504,780.0919588552712
567,567,[-3.22887524e+03  3.39377418e+02 -3.73588354e-03 -1.31641694e+07],234,784.8760082921277
568,568,[-3.06711159e+03  3.40378553e+02 -3.73756910e-03 -1.31641694e+07],757,781.0965880865099
569,569,[-2.71969440e+03  3.41379360e+02 -3.15176979e-03 -1.31641694e+07],656,778.3259582363546
570,570,[-2.52976255e+03  3.42380431e+02 -2.85804056e-03 -1.31641694e+07],183,784.5861277307162
571,571,[-2.83270388e+03  3.40378352e+02 -3.44472817e-03 -1.31641694e+07],475,782.5458988980787
572,572,[-2.72664892e+03  3.41379497e+02 -3.00362856e-03 -1.31641694e+07],181,782.3956468437926
573,573,[-3.10970032e+03  3.40378267e+02 -3.97318849e-03 -1.31641694e+07],606,780.4607175396903
574,574,[-3.07096819e+03  3.39377340e+02 -3.58546081e-03 -1.31641694e+07],563,783.7325657160185
575,575,[-2.78835584e+03  3.40378774e+02 -2.96753459e-03 -1.31641694e+07],236,784.6869141406786
576,576,[-3.20322534e+03  3.39377282e+02 -3.74807972e-03 -1.31641694e+07],122,784.9644321139737
577,577,[-2.85694864e+03  3.41379555e+02 -3.54629943e-03 -1.31641694e+07],595,779.0143368183781
578,578,[-2.93424661e+03  3.40378203e+02 -3.50057477e-03 -1.31641694e+07],579,781.8173828813582
579,579,[-2.67323338e+03  3.41379429e+02 -2.80313742e-03 -1.31641694e+07],434,782.1930141243084
580,580,[-2.89943571e+03  3.40378630e+02 -3.12366746e-03 -1.31641694e+07],480,784.0435095343719
581,581,[-3.05184239e+03  3.39377167e+02 -3.42850809e-03 -1.31641694e+07],621,783.4600610216825
582,582,[-2.75800435e+03  3.41379360e+02 -3.09466905e-03 -1.31641694e+07],678,783.8786376806116
583,583,[-2.42752495e+03  3.43381738e+02 -3.10296969e-03 -1.31641694e+07],245,782.6621956358003
584,584,[-2.66580238e+03  3.41379573e+02 -2.76236628e-03 -1.31641694e+07],168,783.9191799854858
585,585,[-2.98116029e+03  3.39377086e+02 -3.27178076e-03 -1.31641694e+07],167,782.0607545296377
586,586,[-2.74201699e+03  3.41379588e+02 -3.10566502e-03 -1.31641694e+07],278,783.7863982989695
587,587,[-2.72903115e+03  3.41379405e+02 -3.06641807e-03 -1.31641694e+07],668,783.9426855106374
588,588,[-2.74336687e+03  3.41380056e+02 -3.08019942e-03 -1.31641694e+07],219,784.017995804816
589,589,[-3.17509792e+03  3.39377389e+02 -3.87827658e-03 -1.31641694e+07],419,782.9720666637642
590,590,[-2.71429040e+03  3.41379888e+02 -3.01157517e-03 -1.31641694e+07],767,784.7721279130925
591,591,[-2.42952733e+03  3.43382322e+02 -3.10334335e-03 -1.31641694e+07],144,782.8752810034166
592,592,[-2.41426253e+03  3.43381992e+02 -3.11150945e-03 -1.31641694e+07],585,784.6834611444937
593,593,[-2.65982212e+03  3.41379688e+02 -2.90870137e-03 -1.31641694e+07],424,783.7537731618852
594,594,[-2.43307434e+03  3.43382282e+02 -3.14608410e-03 -1.31641694e+07],256,784.4643761621902
595,595,[-2.43074907e+03  3.43381981e+02 -3.08958674e-03 -1.31641694e+07],491,782.2078423191664
596,596,[-2.85389341e+03  3.40378284e+02 -3.19560532e-03 -1.31641694e+07],527,781.7930879715592
597,597,[-2.85631437e+03  3.40378341e+02 -3.34660332e-03 -1.31641694e+07],661,782.4407122663905
598,598,[-2.83908011e+03  3.40378229e+02 -3.05901170e-03 -1.31641694e+07],1,782.91995145558
599,599,[-3.11322317e+03  3.40378256e+02 -3.77888110e-03 -1.31641694e+07],128,784.0821324112977
600,600,[-2.68212316e+03  3.41379491e+02 -2.96915795e-03 -1.31641694e+07],636,781.5214684622256
601,601,[-3.06231422e+03  3.39377428e+02 -3.50508957e-03 -1.31641694e+07],612,783.7987191245184
602,602,[-3.18709366e+03  3.39377173e+02 -3.73103917e-03 -1.31641694e+07],22,785.1715454587676
603,603,[-2.72687866e+03  3.41379477e+02 -3.10667000e-03 -1.31641694e+07],217,784.3905761938646
604,604,[-2.54228442e+03  3.42380877e+02 -2.93244572e-03 -1.31641694e+07],300,784.4270173134947
605,605,[-2.73347887e+03  3.41379655e+02 -3.15719985e-03 -1.31641694e+07],625,782.8586358791663
606,606,[-2.74515291e+03  3.41379956e+02 -3.02135327e-03 -1.31641694e+07],709,782.2540130111819
607,607,[-3.02116920e+03  3.39377442e+02 -3.35869384e-03 -1.31641694e+07],578,783.022421156242
608,608,[-2.74189498e+03  3.41379506e+02 -3.15008136e-03 -1.31641694e+07],145,784.3463135453679
609,609,[-2.85226545e+03  3.40378920e+02 -3.11551089e-03 -1.31641694e+07],596,784.9754195450396
610,610,[-2.50979955e+03  3.42380721e+02 -2.84611699e-03 -1.31641694e+07],189,784.1635346449124
611,611,[-2.70712268e+03  3.41379520e+02 -3.10446829e-03 -1.31641694e+07],635,783.0939131702634
612,612,[-2.73905564e+03  3.41379576e+02 -3.12956826e-03 -1.31641694e+07],218,781.9346966798123
613,613,[-2.34489344e+03  3.44382804e+02 -3.51131633e-03 -1.31641694e+07],53,718.7285179799513
614,614,[-2.42801540e+03  3.43381895e+02 -3.15383312e-03 -1.31641694e+07],363,771.8953487137449
615,615,[-2.92751176e+03  3.40378621e+02 -3.59830299e-03 -1.31641694e+07],169,777.5573611859667
616,616,[-3.10377764e+03  3.39377170e+02 -3.97971947e-03 -1.31641694e+07],617,780.5864556648179
617,617,[-2.72796198e+03  3.41379322e+02 -3.11207148e-03 -1.31641694e+07],143,781.7100273342992
618,618,[-2.76755263e+03  3.41379488e+02 -3.08661326e-03 -1.31641694e+07],665,783.2002558221483
619,619,[-3.16983480e+03  3.39377191e+02 -3.74300711e-03 -1.31641694e+07],457,784.0746550285121
620,620,[-2.42821480e+03  3.43381626e+02 -3.16260759e-03 -1.31641694e+07],626,784.2598336979545
621,621,[-3.09060740e+03  3.40378216e+02 -3.69867986e-03 -1.31641694e+07],14,782.1475766636037
622,622,[-2.72966991e+03  3.41379507e+02 -3.00396456e-03 -1.31641694e+07],232,784.404398478093
623,623,[-2.80976843e+03  3.40378271e+02 -3.12023147e-03 -1.31641694e+07],473,782.5518579549221
624,624,[-2.50235852e+03  3.42380521e+02 -2.88373184e-03 -1.31641694e+07],195,784.5474942953015
625,625,[-2.57049928e+03  3.42380683e+02 -2.97686017e-03 -1.31641694e+07],207,781.8442783001116
626,626,[-2.80861618e+03  3.40378204e+02 -3.05478383e-03 -1.31641694e+07],782,781.6687618769517
627,627,[-2.72566654e+03  3.41379433e+02 -3.12977602e-03 -1.31641694e+07],477,785.0610259266364
628,628,[-2.87268063e+03  3.40378534e+02 -3.14794492e-03 -1.31641694e+07],315,783.850343790058
629,629,[-2.55728065e+03  3.42380621e+02 -2.99991276e-03 -1.31641694e+07],261,783.2927130178813
630,630,[-2.72357486e+03  3.41379649e+02 -3.07421303e-03 -1.31641694e+07],600,786.3489356374965
631,631,[-3.15791535e+03  3.39377679e+02 -3.81969728e-03 -1.31641694e+07],642,784.2636973517508
632,632,[-2.92387615e+03  3.40378221e+02 -3.52523562e-03 -1.31641694e+07],107,784.7732169846387
633,633,[-2.72442286e+03  3.41379846e+02 -3.05469701e-03 -1.31641694e+07],701,782.7611117389538
634,634,[-2.87143811e+03  3.40378246e+02 -3.07743564e-03 -1.31641694e+07],724,785.4586605250068
635,635,[-3.11858917e+03  3.39377124e+02 -3.90828985e-03 -1.31641694e+07],275,781.7709481846261
636,636,[-2.72794244e+03  3.41379634e+02 -3.00672112e-03 -1.31641694e+07],650,781.9358897933386
637,637,[-2.57749500e+03  3.42380630e+02 -3.04314447e-03 -1.31641694e+07],176,784.8499781920897
638,638,[-2.73942174e+03  3.41379324e+02 -3.05831835e-03 -1.31641694e+07],699,783.8111426206251
639,639,[-2.89075613e+03  3.40378674e+02 -3.34446683e-03 -1.31641694e+07],768,784.5343850658444
640,640,[-3.07165074e+03  3.39377221e+02 -3.38551449e-03 -1.31641694e+07],666,782.8277489331467
641,641,[-2.55325431e+03  3.42380890e+02 -2.99236793e-03 -1.31641694e+07],20,784.371242160242
642,642,[-2.76572400e+03  3.41379393e+02 -3.16957001e-03 -1.31641694e+07],763,781.5173663413008
643,643,[-2.88135373e+03  3.40378205e+02 -3.17342153e-03 -1.31641694e+07],721,785.8975727996376
644,644,[-2.75047308e+03  3.41379374e+02 -3.10793888e-03 -1.31641694e+07],72,784.7943008620425
645,645,[-2.43460390e+03  3.43381585e+02 -3.14631376e-03 -1.31641694e+07],54,779.066107785563
646,646,[-2.55455575e+03  3.42380644e+02 -2.97038013e-03 -1.31641694e+07],225,784.6342907857362
647,647,[-3.10155876e+03  3.39377186e+02 -3.58889875e-03 -1.31641694e+07],59,783.9770528972851
648,648,[-2.72327931e+03  3.41379655e+02 -3.08707227e-03 -1.31641694e+07],184,785.0049044478787
649,649,[-2.72774807e+03  3.41379368e+02 -3.04781237e-03 -1.31641694e+07],536,784.3427932007884
650,650,[-2.43247087e+03  3.43381631e+02 -3.15000074e-03 -1.31641694e+07],723,781.382815900425
651,651,[-2.96991785e+03  3.40378210e+02 -3.48453852e-03 -1.31641694e+07],682,784.174405583017
652,652,[-2.88856713e+03  3.40378468e+02 -3.32603936e-03 -1.31641694e+07],173,784.9869922520179
653,653,[-2.67772893e+03  3.41379544e+02 -2.91040648e-03 -1.31641694e+07],568,784.6497332773534
654,654,[-2.58512699e+03  3.42380826e+02 -3.03018332e-03 -1.31641694e+07],160,783.5553326371582
655,655,[-2.43011389e+03  3.43381578e+02 -3.15215023e-03 -1.31641694e+07],686,784.3075491415265
656,656,[-3.04197779e+03  3.39377160e+02 -3.38404754e-03 -1.31641694e+07],297,782.2996164365115
657,657,[-2.88233113e+03  3.40378287e+02 -3.34113393e-03 -1.31641694e+07],170,783.3480056417085
658,658,[-3.11846095e+03  3.39377295e+02 -3.88492381e-03 -1.31641694e+07],749,785.2908053932158
659,659,[-2.94412197e+03  3.40378258e+02 -3.31317615e-03 -1.31641694e+07],739,785.1524342751643
660,660,[-2.72505996e+03  3.41379331e+02 -3.19263197e-03 -1.31641694e+07],776,784.8612645339581
661,661,[-2.55558506e+03  3.42380579e+02 -2.95644589e-03 -1.31641694e+07],697,781.991110977533
662,662,[-2.73537845e+03  3.41379959e+02 -3.16552230e-03 -1.31641694e+07],683,780.1048439581999
663,663,[-2.72050600e+03  3.41379725e+02 -2.97291432e-03 -1.31641694e+07],103,775.4753680987201
664,664,[-2.96846287e+03  3.40378340e+02 -3.33515579e-03 -1.31641694e+07],708,777.5366346892985
665,665,[-3.04578070e+03  3.39377147e+02 -3.56750899e-03 -1.31641694e+07],228,781.6867514654979
666,666,[-2.73503621e+03  3.41379500e+02 -2.99799609e-03 -1.31641694e+07],71,781.3269795471111
667,667,[-2.76426478e+03  3.41379482e+02 -3.03221231e-03 -1.31641694e+07],172,783.5013326183928
668,668,[-3.03103678e+03  3.39377121e+02 -3.19787075e-03 -1.31641694e+07],116,782.0986345834939
669,669,[-3.08332778e+03  3.39377208e+02 -3.76357113e-03 -1.31641694e+07],233,783.9459969002819
670,670,[-2.87305205e+03  3.40378273e+02 -3.16392514e-03 -1.31641694e+07],747,784.4427130016418
671,671,[-3.07381514e+03  3.40378209e+02 -3.95836802e-03 -1.31641694e+07],198,783.9535743468497
672,672,[-2.62724073e+03  3.41379357e+02 -2.64605572e-03 -1.31641694e+07],732,785.4318497320755
673,673,[-2.94914916e+03  3.40378296e+02 -3.58223242e-03 -1.31641694e+07],247,785.6473831069173
674,674,[-2.42320564e+03  3.43381846e+02 -3.10062685e-03 -1.31641694e+07],752,784.4669146293687
675,675,[-2.72567245e+03  3.41379390e+02 -3.11877161e-03 -1.31641694e+07],616,785.3084002433959
676,676,[-2.73231569e+03  3.41379851e+02 -3.10537979e-03 -1.31641694e+07],250,785.1090871499327
677,677,[-2.65677529e+03  3.41379431e+02 -2.93490545e-03 -1.31641694e+07],314,783.3357425820114
678,678,[-2.84045132e+03  3.40378296e+02 -3.02137036e-03 -1.31641694e+07],45,782.1326796568097
679,679,[-2.56297364e+03  3.42380945e+02 -3.00760618e-03 -1.31641694e+07],731,784.8054837062323
680,680,[-2.70537987e+03  3.41379363e+02 -3.14289175e-03 -1.31641694e+07],113,784.084048448131
681,681,[-3.00974131e+03  3.40378336e+02 -3.65864628e-03 -1.31641694e+07],66,783.9999495924144
682,682,[-2.72005483e+03  3.41379959e+02 -2.97597363e-03 -1.31641694e+07],454,781.11344558168
683,683,[-2.71312865e+03  3.41379789e+02 -2.93649148e-03 -1.31641694e+07],193,780.9349400819675
684,684,[-2.74772885e+03  3.41379928e+02 -3.07541578e-03 -1.31641694e+07],573,783.1716554938071
685,685,[-2.74527191e+03  3.41379824e+02 -3.12729091e-03 -1.31641694e+07],70,783.5503894648037
686,686,[-3.08668476e+03  3.39377207e+02 -3.56317165e-03 -1.31641694e+07],166,781.0525869507528
687,687,[-2.82163698e+03  3.40378474e+02 -3.04920292e-03 -1.31641694e+07],257,776.125663456599
688,688,[-2.58298303e+03  3.42380735e+02 -3.04965932e-03 -1.31641694e+07],21,782.4529498051803
689,689,[-3.02865905e+03  3.40378497e+02 -3.73463475e-03 -1.31641694e+07],204,784.6103703434209
690,690,[-2.72089162e+03  3.41379499e+02 -3.06445462e-03 -1.31641694e+07],242,784.9608814228327
691,691,[-2.71793151e+03  3.41379342e+02 -3.04858476e-03 -1.31641694e+07],244,783.2845376279842
692,692,[-2.71846686e+03  3.41379597e+02 -2.99699669e-03 -1.31641694e+07],403,783.5441251777379
693,693,[-2.74977133e+03  3.41379423e+02 -2.98023564e-03 -1.31641694e+07],161,774.0935409924882
694,694,[-2.56721728e+03  3.42380515e+02 -2.99631419e-03 -1.31641694e+07],191,783.8731132172315
695,695,[-2.74557500e+03  3.41379504e+02 -2.99999205e-03 -1.31641694e+07],325,783.6575725505547
696,696,[-2.89256883e+03  3.40378386e+02 -3.18788481e-03 -1.31641694e+07],662,779.7242096555863
697,697,[-3.12805517e+03  3.39377553e+02 -3.33181782e-03 -1.31641694e+07],566,780.965969424325
698,698,[-2.99294135e+03  3.40378466e+02 -3.37235120e-03 -1.31641694e+07],221,784.3915755192822
699,699,[-2.90167429e+03  3.40378248e+02 -3.15398205e-03 -1.31641694e+07],476,781.3740664276621
700,700,[-2.43078214e+03  3.43381574e+02 -3.14045393e-03 -1.31641694e+07],393,778.0826876877852
701,701,[-2.43115437e+03  3.43382305e+02 -3.11709525e-03 -1.31641694e+07],118,781.4101252908735
702,702,[-2.70948941e+03  3.41379385e+02 -2.97537582e-03 -1.31641694e+07],447,785.7726329600505
703,703,[-2.93878140e+03  3.40378570e+02 -3.16082097e-03 -1.31641694e+07],162,782.8632900268052
704,704,[-2.74446244e+03  3.41379533e+02 -3.02843295e-03 -1.31641694e+07],111,784.1613505730676
705,705,[-3.39194384e+03  3.38376036e+02 -3.95090289e-03 -1.31641694e+07],243,784.6633254469149
706,706,[-2.73774133e+03  3.41379428e+02 -3.01724789e-03 -1.31641694e+07],349,784.439630381974
707,707,[-3.13638813e+03  3.39377441e+02 -3.34334914e-03 -1.31641694e+07],726,779.117868173896
708,708,[-2.64242560e+03  3.41379476e+02 -2.74140275e-03 -1.31641694e+07],696,780.9065808509106
709,709,[-2.53958339e+03  3.42380574e+02 -2.91211208e-03 -1.31641694e+07],171,781.8341222015662
710,710,[-2.74048023e+03  3.41379516e+02 -3.08160542e-03 -1.31641694e+07],486,783.4512662470481
711,711,[-2.73321461e+03  3.41379897e+02 -3.06464351e-03 -1.31641694e+07],311,784.2176809910063
712,712,[-3.13066220e+03  3.39377246e+02 -3.60373999e-03 -1.31641694e+07],448,783.315980913171
713,713,[-2.72488480e+03  3.41379448e+02 -2.93265970e-03 -1.31641694e+07],518,783.3128774727979
714,714,[-2.74562392e+03  3.41379494e+02 -3.06588101e-03 -1.31641694e+07],748,784.8753062358657
715,715,[-2.82271135e+03  3.40378302e+02 -2.94727991e-03 -1.31641694e+07],335,782.5745454689593
716,716,[-3.13715795e+03  3.39377221e+02 -3.73863721e-03 -1.31641694e+07],537,783.2648384289142
717,717,[-2.53528755e+03  3.42380831e+02 -2.89307925e-03 -1.31641694e+07],397,783.7318072446596
718,718,[-3.12913919e+03  3.40378361e+02 -3.85374889e-03 -1.31641694e+07],100,778.144476423508
719,719,[-2.90457275e+03  3.40378346e+02 -3.40830728e-03 -1.31641694e+07],185,785.9605619400378
720,720,[-2.83213694e+03  3.40378511e+02 -3.09143217e-03 -1.31641694e+07],271,783.9877802895154
721,721,[-2.59035588e+03  3.42380515e+02 -3.04962493e-03 -1.31641694e+07],199,781.2183973647149
722,722,[-3.38541149e+03  3.38376091e+02 -3.90055813e-03 -1.31641694e+07],203,783.4132358660596
723,723,[-2.73755818e+03  3.41379408e+02 -2.99669134e-03 -1.31641694e+07],707,781.1168269094851
724,724,[-2.86526530e+03  3.40378507e+02 -2.91639895e-03 -1.31641694e+07],645,781.4097003784758
725,725,[-2.78785397e+03  3.41379373e+02 -2.76649336e-03 -1.31641694e+07],47,775.829176277142
726,726,[-2.84424540e+03  3.40378684e+02 -3.07142474e-03 -1.31641694e+07],445,779.756837474426
727,727,[-2.54414333e+03  3.42380454e+02 -2.93846232e-03 -1.31641694e+07],577,782.8084604302035
728,728,[-2.74435927e+03  3.41379470e+02 -3.08209095e-03 -1.31641694e+07],742,782.7695491591512
729,729,[-2.73940898e+03  3.41379379e+02 -3.06908823e-03 -1.31641694e+07],67,784.3673556292385
730,730,[-2.77041814e+03  3.40378247e+02 -2.93498494e-03 -1.31641694e+07],215,783.8373799339021
731,731,[-2.71882540e+03  3.41380055e+02 -3.11452202e-03 -1.31641694e+07],73,780.5518031291545
732,732,[-2.65951953e+03  3.41379544e+02 -2.88458220e-03 -1.31641694e+07],420,780.69409101768
733,733,[-3.15446428e+03  3.40378238e+02 -4.17468358e-03 -1.31641694e+07],460,777.090840412916
734,734,[-3.20694375e+03  3.39377663e+02 -3.63050009e-03 -1.31641694e+07],559,783.7344746296579
735,735,[-2.73707448e+03  3.41379725e+02 -3.02690252e-03 -1.31641694e+07],396,784.9940530146648
736,736,[-3.01181525e+03  3.40378205e+02 -3.57754058e-03 -1.31641694e+07],744,785.4151294892747
737,737,[-2.83068653e+03  3.40378549e+02 -3.01624515e-03 -1.31641694e+07],119,784.5685129398461
738,738,[-2.89141874e+03  3.40378255e+02 -3.38145670e-03 -1.31641694e+07],121,784.1979482046427
739,739,[-3.13712651e+03  3.40378289e+02 -4.02314738e-03 -1.31641694e+07],756,780.9893584916338
740,740,[-2.73557349e+03  3.41379478e+02 -3.12411522e-03 -1.31641694e+07],754,785.0222838425004
741,741,[-3.12460842e+03  3.39377147e+02 -3.67417171e-03 -1.31641694e+07],569,784.3058022675859
742,742,[-2.86896438e+03  3.40378295e+02 -3.06348095e-03 -1.31641694e+07],158,778.9891869341301
743,743,[-2.56415121e+03  3.42380980e+02 -3.06010979e-03 -1.31641694e+07],718,783.4011738781614
744,744,[-2.86464816e+03  3.41379394e+02 -3.60157915e-03 -1.31641694e+07],700,778.6661273786056
745,745,[-2.86428407e+03  3.40378494e+02 -3.06664293e-03 -1.31641694e+07],253,784.7137949227496
746,746,[-2.75621147e+03  3.41379319e+02 -3.11345625e-03 -1.31641694e+07],202,783.6300091952405
747,747,[-2.85725431e+03  3.40378363e+02 -3.02736194e-03 -1.31641694e+07],165,780.7637049106576
748,748,[-3.04836628e+03  3.40378268e+02 -3.88741801e-03 -1.31641694e+07],200,779.5049242714027
749,749,[-2.75533088e+03  3.41379311e+02 -3.11203923e-03 -1.31641694e+07],5,780.9969476248306
750,750,[-3.19368780e+03  3.39377393e+02 -3.83524464e-03 -1.31641694e+07],77,785.5822978038699
751,751,[-2.88921419e+03  3.40378275e+02 -3.30904403e-03 -1.31641694e+07],465,784.3397073976364
752,752,[-3.00469124e+03  3.40378282e+02 -3.36883167e-03 -1.31641694e+07],615,780.6326747035399
753,753,[-2.90666232e+03  3.40378378e+02 -2.99949835e-03 -1.31641694e+07],664,782.8379635424857
754,754,[-2.91160255e+03  3.40378530e+02 -3.05467443e-03 -1.31641694e+07],174,778.3339164941281
755,755,[-3.33303517e+03  3.38376015e+02 -3.68542350e-03 -1.31641694e+07],533,777.0405659210962
756,756,[-2.55918197e+03  3.42380603e+02 -2.88143782e-03 -1.31641694e+07],42,778.4311058938332
757,757,[-2.67908261e+03  3.41379781e+02 -2.80551542e-03 -1.31641694e+07],423,782.3087833571271
758,758,[-2.85370226e+03  3.40378329e+02 -3.10763024e-03 -1.31641694e+07],733,783.3689228635666
759,759,[-3.12339888e+03  3.39377104e+02 -3.45865137e-03 -1.31641694e+07],755,782.5811075807791
760,760,[-2.74101053e+03  3.41379439e+02 -3.02339518e-03 -1.31641694e+07],519,785.0073569280062
761,761,[-2.54324118e+03  3.42381015e+02 -2.95311441e-03 -1.31641694e+07],783,785.0503364439586
762,762,[-3.09875369e+03  3.39377138e+02 -3.57745558e-03 -1.31641694e+07],41,783.9452567027723
763,763,[-3.09070062e+03  3.39377866e+02 -3.80305881e-03 -1.31641694e+07],114,781.223618802265
764,764,[-2.74480667e+03  3.41379890e+02 -3.06683390e-03 -1.31641694e+07],11,784.5353198204696
765,765,[-2.73321875e+03  3.41379866e+02 -2.96694877e-03 -1.31641694e+07],2,785.682833943492
766,766,[-3.19159549e+03  3.39377112e+02 -3.74509504e-03 -1.31641694e+07],687,786.5656486293275
767,767,[-2.88724977e+03  3.40378375e+02 -3.14349887e-03 -1.31641694e+07],106,782.0748527565727
768,768,[-2.84128757e+03  3.40378371e+02 -2.99958049e-03 -1.31641694e+07],163,781.3583876904287
769,769,[-2.74514835e+03  3.41379398e+02 -3.09959953e-03 -1.31641694e+07],725,784.5674724768104
770,770,[-2.72887096e+03  3.41379340e+02 -2.99906232e-03 -1.31641694e+07],444,784.0173604092403
771,771,[-2.74000265e+03  3.41379885e+02 -3.08601637e-03 -1.31641694e+07],472,785.3242054990469
772,772,[-3.15293388e+03  3.39377310e+02 -3.64879474e-03 -1.31641694e+07],6,784.076907788355
773,773,[-2.58003886e+03  3.42380666e+02 -3.06358983e-03 -1.31641694e+07],164,783.9355943893904
774,774,[-2.76241120e+03  3.41379845e+02 -3.15211217e-03 -1.31641694e+07],273,786.5188304100445
775,775,[-2.91036156e+03  3.40378523e+02 -3.52114971e-03 -1.31641694e+07],663,783.1679848008768
776,776,[-2.73149214e+03  3.41379670e+02 -3.02554231e-03 -1.31641694e+07],190,780.9837113942507
777,777,[-2.43531676e+03  3.43382274e+02 -3.15736172e-03 -1.31641694e+07],10,783.506482344884
778,778,[-2.57703849e+03  3.42380715e+02 -2.94524214e-03 -1.31641694e+07],249,783.3968652306887
779,779,[-2.73262770e+03  3.41379469e+02 -2.99059143e-03 -1.31641694e+07],133,786.1322461720787
780,780,[-2.52610988e+03  3.42380815e+02 -2.88639856e-03 -1.31641694e+07],532,783.5523331745668
781,781,[-2.82053263e+03  3.40378618e+02 -3.13493670e-03 -1.31641694e+07],693,783.8555729951778
782,782,[-3.11283304e+03  3.39377218e+02 -3.61457149e-03 -1.31641694e+07],76,781.5900188747752
783,783,[-3.13668358e+03  3.40378319e+02 -4.08932737e-03 -1.31641694e+07],614,776.5072679261422
784,784,[-2.72276353e+03  3.41379667e+02 -3.05922154e-03 -1.31641694e+07],65,784.5581071621043
785,785,[-2.85083619e+03  3.40378568e+02 -3.32528483e-03 -1.31641694e+07],440,784.9798288151727
786,786,[-3.02759493e+03  3.39377359e+02 -3.64928213e-03 -1.31641694e+07],237,784.9201343100099
787,787,[-2.42857365e+03  3.43381954e+02 -3.15073590e-03 -1.31641694e+07],0,782.4481835476295
788,788,[-2.42740453e+03  3.43381660e+02 -3.10353265e-03 -1.31641694e+07],272,784.9918077962932
789,789,[-2.73457405e+03  3.41379586e+02 -2.99665130e-03 -1.31641694e+07],104,785.3521953577978
790,790,[-2.43867153e+03  3.43381911e+02 -3.15491248e-03 -1.31641694e+07],78,784.2196279871674
791,791,[-2.56154513e+03  3.42380819e+02 -2.93508955e-03 -1.31641694e+07],74,783.0357647937948
792,792,[-2.73886654e+03  3.41379538e+02 -2.96902601e-03 -1.31641694e+07],101,784.4347749561402
793,793,[-3.10493240e+03  3.39377249e+02 -3.55211268e-03 -1.31641694e+07],75,783.5342326587449
794,794,[-2.64341901e+03  3.41379428e+02 -2.74373292e-03 -1.31641694e+07],159,782.8251927872591
795,795,[-2.73702457e+03  3.41379540e+02 -3.02247398e-03 -1.31641694e+07],613,784.2549355698122
