,0,1,2,3
0,0,[-2.23578839e+03  3.59399307e+02 -1.12103828e-04  3.66165157e+04],718,998.9817348214259
1,1,[-2.04126259e+03  3.59399308e+02 -1.21255129e-04  4.45250073e+04],565,999.9130798903082
2,2,[-1.98051385e+03  3.59399279e+02 -1.28025719e-04  2.56214119e+04],429,1000.047089178049
3,3,[-2.23060863e+03  3.59399300e+02 -1.17338598e-04  3.49662345e+04],713,1000.3047403663695
4,4,[-2.14284698e+03  3.59399299e+02 -1.16276000e-04  3.54553032e+04],357,999.9581666140497
5,5,[-2.03076286e+03  3.59399297e+02 -1.14206517e-04  3.83550339e+04],617,1000.2650280225832
6,6,[-1.75301566e+03  3.59399289e+02 -1.33338248e-04  3.63392321e+04],614,999.2709818719222
7,7,[-1.82423206e+03  3.59399265e+02 -1.36168570e-04  8.20838388e+04],569,999.5413752480674
8,8,[-2.07904732e+03  3.59399309e+02 -1.14381310e-04  4.16852332e+04],597,1000.7005108992729
9,9,[-2.27668051e+03  3.59399327e+02 -1.21185478e-04  2.25726888e+05],192,999.1077822612629
10,10,[-1.78646302e+03  3.59399259e+02 -1.27932869e-04  6.79687568e+04],423,997.9244145444416
11,11,[-1.86145031e+03  3.59399313e+02 -1.28150472e-04  8.56197646e+04],628,1000.0202329752957
12,12,[-2.15124199e+03  3.59399309e+02 -1.17292395e-04  3.68854248e+04],751,1000.4751573203476
13,13,[-2.01911339e+03  3.59399311e+02 -1.25855270e-04  4.57855918e+04],422,1000.8052310034067
14,14,[-1.87302529e+03  3.59399300e+02 -1.20868349e-04  3.73608809e+04],184,1000.9184601288466
15,15,[-2.08126334e+03  3.59399305e+02 -1.25984705e-04  4.01284480e+04],396,1000.3787765676842
16,16,[-2.03380773e+03  3.59399323e+02 -1.14007637e-04  9.26574910e+04],719,999.3938758310352
17,17,[-2.13644673e+03  3.59399300e+02 -1.09719547e-04  3.63497310e+04],274,999.3675021361298
18,18,[-2.08389898e+03  3.59399311e+02 -1.13964279e-04  5.12787241e+04],592,999.5093594316595
19,19,[-1.90804362e+03  3.59399287e+02 -1.26147413e-04  6.11083854e+04],328,999.2155870788374
20,20,[-2.04284295e+03  3.59399309e+02 -1.31862574e-04  4.78379259e+04],946,999.7220552149548
21,21,[-2.20666293e+03  3.59399302e+02 -1.19325068e-04  3.48017652e+04],320,999.573455005836
22,22,[-2.05987963e+03  3.59399303e+02 -1.20740698e-04  4.62771010e+04],938,999.7839092339741
23,23,[-1.72159572e+03  3.59399300e+02 -1.27013965e-04  3.89136714e+04],45,999.2748043236533
24,24,[-1.91995108e+03  3.59399290e+02 -1.30626207e-04  4.75212296e+04],773,998.7247779840133
25,25,[-2.23851136e+03  3.59399303e+02 -1.23054806e-04  3.48224119e+04],126,998.0346045627588
26,26,[-2.23622945e+03  3.59400091e+02 -1.06756460e-04  5.89053793e+05],977,998.0914800747499
27,27,[-1.98088505e+03  3.59399322e+02 -1.16517394e-04  1.25153755e+05],239,999.677303550615
28,28,[-1.99423946e+03  3.59399304e+02 -1.25019699e-04  4.61940965e+04],609,999.9224003697757
29,29,[-1.84028130e+03  3.59399299e+02 -1.20979088e-04  3.70826236e+04],956,1000.627428334889
30,30,[-2.22657204e+03  3.59399684e+02 -1.09993993e-04  5.07070932e+05],176,999.1261135576882
31,31,[-2.09500626e+03  3.59399298e+02 -1.18480708e-04  4.01848893e+04],754,999.2196211044131
32,32,[-1.98689654e+03  3.59399300e+02 -1.25569609e-04  4.27893785e+04],769,1000.8887069331374
33,33,[-2.16957255e+03  3.59399298e+02 -1.18690599e-04  3.85695609e+04],365,1000.2337021240678
34,34,[-2.19398059e+03  3.59399312e+02 -1.12842516e-04  5.92069227e+04],625,999.0845841743984
35,35,[-2.07382498e+03  3.59399297e+02 -1.18463485e-04  3.85443918e+04],14,999.6079308069287
36,36,[-2.04620535e+03  3.59399293e+02 -1.21139215e-04  5.00440237e+04],867,1000.2588573847005
37,37,[-2.04713667e+03  3.59399298e+02 -1.16425672e-04  4.03314783e+04],317,1000.5859788681396
38,38,[-2.09703033e+03  3.59399301e+02 -1.09617969e-04  3.45861116e+04],918,999.2636450261075
39,39,[-2.08899325e+03  3.59399304e+02 -1.13791650e-04  3.46338782e+04],74,999.7982248500846
40,40,[-1.92180734e+03  3.59399306e+02 -1.26135835e-04  4.27906891e+04],714,999.449332439995
41,41,[-1.96901802e+03  3.59399294e+02 -1.25541196e-04  3.46601200e+04],755,1000.8915944339622
42,42,[-2.10397541e+03  3.59399301e+02 -1.14693826e-04  3.49631600e+04],830,1000.491924408087
43,43,[-2.23109407e+03  3.59399317e+02 -1.04874642e-04  6.95735106e+04],41,997.1967434687465
44,44,[-2.08245421e+03  3.59399298e+02 -1.14235969e-04  3.86638002e+04],172,999.607324536879
45,45,[-1.92338375e+03  3.59399241e+02 -1.19702943e-04  1.33806543e+05],32,1000.9976301153042
46,46,[-2.07625853e+03  3.59399317e+02 -1.10532635e-04  7.39845977e+04],894,999.2453027070104
47,47,[-2.08960765e+03  3.59399327e+02 -1.12602851e-04  1.38199332e+05],417,999.5608463264828
48,48,[-2.07306449e+03  3.59399296e+02 -1.12811817e-04  4.29527941e+04],418,998.7160933805619
49,49,[-1.97153181e+03  3.59399455e+02 -1.19477905e-04  9.90818777e+04],624,1000.5923898415712
50,50,[-2.00421504e+03  3.59399312e+02 -1.23205730e-04  5.58911258e+04],247,1000.6931936697431
51,51,[-2.27848731e+03  3.59399297e+02 -1.08860019e-04  2.95779542e+04],73,997.4354053351659
52,52,[-2.08418652e+03  3.59399296e+02 -1.19556522e-04  4.23515486e+04],845,999.5524871726051
53,53,[-2.03841502e+03  3.59399327e+02 -1.14891131e-04  1.74316364e+05],114,1000.7549485693651
54,54,[-2.18551690e+03  3.59399318e+02 -1.06969991e-04  6.26468928e+04],266,997.5885911522652
55,55,[-2.11351940e+03  3.59399293e+02 -1.13415518e-04  2.96305729e+04],568,998.1541793840029
56,56,[-2.13470144e+03  3.59399297e+02 -1.23072475e-04  4.05797547e+04],556,998.2111915499235
57,57,[-2.14615511e+03  3.59399305e+02 -1.11927133e-04  4.18126765e+04],316,999.5794339142872
58,58,[-2.07957900e+03  3.59399308e+02 -1.13328235e-04  5.84743288e+04],404,999.2161845207448
59,59,[-1.97829335e+03  3.59399306e+02 -1.16571040e-04  3.44000969e+04],717,998.8479798502294
60,60,[-1.81663335e+03  3.59399314e+02 -1.28822487e-04  8.63251653e+04],196,1000.4594348880357
61,61,[-2.13710801e+03  3.59399302e+02 -1.22328951e-04  4.21884915e+04],13,1000.0042112332806
62,62,[-2.04956656e+03  3.59399322e+02 -1.20415534e-04  1.01038377e+05],929,1000.3993982377983
63,63,[-2.01687677e+03  3.59399299e+02 -1.18610914e-04  3.95986601e+04],318,999.9699739274416
64,64,[-1.88252049e+03  3.59399301e+02 -1.25676013e-04  4.52555477e+04],175,1000.4326694268536
65,65,[-1.89372905e+03  3.59399312e+02 -1.18890789e-04  5.77206544e+04],884,1000.621969120177
66,66,[-2.11124203e+03  3.59399324e+02 -1.12264422e-04  1.47128334e+05],676,998.8143191133919
67,67,[-1.98797304e+03  3.59399271e+02 -1.23061135e-04  2.08818627e+04],675,998.980106079598
68,68,[-1.91596545e+03  3.59399300e+02 -1.40683208e-04  5.07890048e+04],77,997.2416690976163
69,69,[-1.96137220e+03  3.59399294e+02 -1.19722584e-04  4.43213773e+04],258,998.7830378154483
70,70,[-2.03699999e+03  3.59399301e+02 -1.13087421e-04  3.70949832e+04],208,1000.0042320318313
71,71,[-2.07312136e+03  3.59399302e+02 -1.19319880e-04  4.99383151e+04],758,1000.2576438345915
72,72,[-1.96506266e+03  3.59399291e+02 -1.20033410e-04  5.18416045e+04],506,1000.3941712244305
73,73,[-1.97069526e+03  3.59399291e+02 -1.20527585e-04  5.54886256e+04],200,1000.854287496241
74,74,[-2.07642353e+03  3.59399311e+02 -1.14511211e-04  4.79173029e+04],271,1000.9048528914188
75,75,[-2.16064001e+03  3.59399306e+02 -1.09523834e-04  4.52297605e+04],930,999.225074911745
76,76,[-1.97011283e+03  3.59399301e+02 -1.15874708e-04  4.27307338e+04],618,1000.6466689533327
77,77,[-1.90673462e+03  3.59399295e+02 -1.18971372e-04  4.43304883e+04],360,1000.7933248572959
78,78,[-1.96101750e+03  3.59399295e+02 -1.23229499e-04  4.38281420e+04],53,999.1540497855832
79,79,[-1.84498164e+03  3.59399289e+02 -1.23893185e-04  4.97909444e+04],900,998.170952264577
80,80,[-1.91762472e+03  3.59399280e+02 -1.33660508e-04  5.86704227e+04],270,994.5272985629542
81,81,[-1.86258759e+03  3.59399312e+02 -1.15725838e-04  7.25091200e+04],392,999.9520898364361
82,82,[-2.03203132e+03  3.59399304e+02 -1.28409571e-04  4.79413705e+04],947,995.5466252596557
83,83,[-2.18147015e+03  3.59399299e+02 -1.04454253e-04  3.71369037e+04],259,992.0355322243591
84,84,[-1.91743674e+03  3.59399300e+02 -1.23337048e-04  4.39017341e+04],426,997.9365933417005
85,85,[-2.04398551e+03  3.59399462e+02 -1.07315864e-04  2.21872264e+05],151,997.015657480154
86,86,[-1.99348236e+03  3.59399307e+02 -1.23220015e-04  4.68060253e+04],613,997.1478273817016
87,87,[-2.01481467e+03  3.59399307e+02 -1.09360666e-04  5.44617560e+04],955,992.5949613786698
88,88,[-2.06342674e+03  3.59399304e+02 -1.30419669e-04  6.93048359e+04],8,991.4332839708165
89,89,[-2.25756050e+03  3.59399304e+02 -1.04359715e-04  3.34335621e+04],610,994.6044216158504
90,90,[-1.87052280e+03  3.59399300e+02 -1.20461869e-04  3.69244443e+04],50,999.382839769953
91,91,[-2.02295268e+03  3.59399299e+02 -1.17068447e-04  3.61921507e+04],395,998.8255251594634
92,92,[-1.97816963e+03  3.59399304e+02 -1.20965936e-04  4.14636361e+04],472,997.414856428292
93,93,[-2.09950517e+03  3.59399307e+02 -1.00608144e-04  3.09629562e+04],846,994.5491891496454
94,94,[-1.70048205e+03  3.59399296e+02 -1.35905846e-04  4.77096540e+04],558,996.58509717395
95,95,[-1.91608270e+03  3.59399294e+02 -1.20029232e-04  4.39873523e+04],76,998.350028048233
96,96,[-1.92102543e+03  3.59399301e+02 -1.13309093e-04  3.51512122e+04],254,999.1099421514024
97,97,[-1.97693359e+03  3.59399315e+02 -1.17462505e-04  5.53923032e+04],29,996.9149624713601
98,98,[-2.37157264e+03  3.59399302e+02 -1.00318360e-04  3.67402363e+04],65,991.1573896234722
99,99,[-1.90340162e+03  3.59399322e+02 -1.23234273e-04  1.96660538e+05],244,1000.5926614017633
100,100,[-2.04949393e+03  3.59399386e+02 -1.11553465e-04  1.27132969e+05],721,999.4560096469817
101,101,[-1.94192963e+03  3.59399301e+02 -1.19516382e-04  4.55557791e+04],99,998.7914714577192
102,102,[-2.07174939e+03  3.59399297e+02 -1.16612851e-04  4.08211600e+04],49,1000.1500826483561
103,103,[-2.13842918e+03  3.59399303e+02 -1.14498470e-04  4.64952199e+04],752,999.8767633398083
104,104,[-2.07643711e+03  3.59399312e+02 -1.07162352e-04  5.31423797e+04],710,998.7395513674979
105,105,[-1.96193483e+03  3.59399267e+02 -1.19942198e-04  2.50276247e+04],37,999.2607806852031
106,106,[-2.03133924e+03  3.59399298e+02 -1.17429057e-04  5.12656636e+04],681,1000.5162829354156
107,107,[-2.07363943e+03  3.59399306e+02 -1.12308171e-04  4.26171664e+04],204,1000.4829598580366
108,108,[-1.99309776e+03  3.59399439e+02 -1.16843055e-04  1.53909568e+05],224,1000.1398617190481
109,109,[-1.85258074e+03  3.59399298e+02 -1.19093628e-04  3.95843453e+04],901,997.8106081103487
110,110,[-1.79252465e+03  3.59399290e+02 -1.25968125e-04  3.18510515e+05],611,1000.1336534986642
111,111,[-2.02501666e+03  3.59399304e+02 -1.09110961e-04  3.55640230e+04],155,999.924105548387
112,112,[-2.01012207e+03  3.59399325e+02 -1.05870130e-04  1.91573001e+05],759,998.0979543214053
113,113,[-1.97316609e+03  3.59399302e+02 -1.14151662e-04  4.90367447e+04],551,1000.172081325975
114,114,[-1.97105989e+03  3.59399308e+02 -1.20884058e-04  5.22116234e+04],405,1000.8493502281434
115,115,[-2.11333093e+03  3.59399301e+02 -1.07621251e-04  3.61598904e+04],517,999.0097890041445
116,116,[-2.22718393e+03  3.59399303e+02 -1.06447039e-04  4.20431595e+04],177,997.5326248520385
117,117,[-2.08006614e+03  3.59399298e+02 -1.13546547e-04  4.03568727e+04],709,999.2102381332649
118,118,[-1.99158054e+03  3.59399298e+02 -1.17242694e-04  4.17720785e+04],106,1000.5153927854393
119,119,[-2.09417406e+03  3.59399300e+02 -1.08238750e-04  3.95071398e+04],842,999.503049879634
120,120,[-2.06206695e+03  3.59399299e+02 -1.14503005e-04  4.02707975e+04],118,999.2441516126347
121,121,[-2.02434230e+03  3.59399301e+02 -1.17780319e-04  3.76683109e+04],168,1000.3433602810767
122,122,[-1.95096719e+03  3.59399321e+02 -1.16065090e-04  9.60595344e+04],701,1000.1525193715476
123,123,[-2.07341470e+03  3.59399302e+02 -1.08594982e-04  4.23074773e+04],42,999.7757839821502
124,124,[-2.08002118e+03  3.59399303e+02 -1.13581449e-04  4.31621093e+04],764,998.9852562774781
125,125,[-1.96792399e+03  3.59399315e+02 -1.12386360e-04  6.95854025e+04],107,1000.1921658148369
126,126,[-1.96885915e+03  3.59399312e+02 -1.22055386e-04  1.04180777e+05],362,1000.9644732609831
127,127,[-1.95592361e+03  3.59399309e+02 -1.23498339e-04  4.63712438e+04],12,999.3438345243658
128,128,[-1.82097080e+03  3.59399304e+02 -1.23414705e-04  5.90377266e+04],212,993.5503592746829
129,129,[-1.89572333e+03  3.59399299e+02 -1.31296378e-04  5.21289675e+04],621,995.9061651170323
130,130,[-1.78168887e+03  3.59399309e+02 -1.19293757e-04  5.16531652e+04],671,998.4782595172634
131,131,[-1.92244627e+03  3.59399287e+02 -1.23347765e-04  5.37992424e+04],527,994.7453381570247
132,132,[-2.04197005e+03  3.59399310e+02 -1.03526770e-04  4.62540540e+04],428,994.2394419127685
133,133,[-1.88032218e+03  3.59399291e+02 -1.30277742e-04  3.74572504e+04],60,995.5553477909874
134,134,[-1.86205498e+03  3.59399301e+02 -1.06827173e-04  3.61837044e+04],188,988.0242523329978
135,135,[-1.81821750e+03  3.59399204e+02 -1.53787564e-04  2.19094230e+05],397,992.1604928161782
136,136,[-2.09969056e+03  3.59399303e+02 -1.15495101e-04  3.90620504e+04],895,997.6304202115685
137,137,[-1.94116282e+03  3.59399324e+02 -1.02084710e-04  9.16834779e+04],160,993.2573017425323
138,138,[-1.88285164e+03  3.59399303e+02 -1.25537077e-04  4.07369891e+04],712,991.8586272886878
139,139,[-1.99475417e+03  3.59399303e+02 -1.07680766e-04  4.65969031e+04],227,991.0081723260167
140,140,[-1.82412562e+03  3.59399290e+02 -1.49296747e-04  7.55100336e+04],64,991.5377960880527
141,141,[-2.06397733e+03  3.59399294e+02 -1.16090338e-04  2.97132132e+04],401,997.6678867724032
142,142,[-1.91432666e+03  3.59399288e+02 -1.08266355e-04  2.57740406e+04],670,996.4760965436525
143,143,[-1.90221744e+03  3.59399303e+02 -1.29352199e-04  4.22808514e+04],693,996.6336734341147
144,144,[-2.08040383e+03  3.59399299e+02 -1.06249886e-04  3.50341003e+04],62,992.1022892881039
145,145,[-1.97342210e+03  3.59399302e+02 -1.31255797e-04  5.34110645e+04],756,992.1718480656258
146,146,[-1.97359929e+03  3.59399309e+02 -1.07340259e-04  4.17677211e+04],967,995.993707049146
147,147,[-1.95429925e+03  3.59399302e+02 -1.22561272e-04  4.47168031e+04],72,994.4600375432168
148,148,[-2.04379076e+03  3.59399501e+02 -1.10338023e-04  9.01817315e+04],464,991.5010516641256
149,149,[-2.05054567e+03  3.59399260e+02 -1.31821723e-04  7.49084897e+04],562,990.5197031336438
150,150,[-2.32170961e+03  3.59399301e+02 -1.04835601e-04  3.80815831e+04],273,994.2625055886575
151,151,[-1.96558525e+03  3.59399299e+02 -1.20832469e-04  4.24597382e+04],766,1000.7087601043305
152,152,[-2.27963709e+03  3.59399301e+02 -1.21998948e-04  4.11374709e+04],704,998.3422313633138
153,153,[-1.98175778e+03  3.59399311e+02 -1.23148313e-04  5.20284179e+04],939,1000.1579318316499
154,154,[-2.04591086e+03  3.59399302e+02 -1.12418827e-04  3.54087883e+04],620,999.616639261363
155,155,[-1.89109495e+03  3.59399119e+02 -1.16073057e-04  6.64794854e+03],329,1000.5733537881098
156,156,[-1.98170131e+03  3.59399295e+02 -1.32452242e-04  4.57495746e+04],15,1000.0203446703832
157,157,[-1.86228999e+03  3.59399296e+02 -1.12892473e-04  4.02989014e+04],873,995.6981128266312
158,158,[-2.01122680e+03  3.59399301e+02 -1.08699985e-04  3.69023894e+04],388,999.8365877781488
159,159,[-1.80635632e+03  3.59399287e+02 -1.24697653e-04  5.30700750e+04],702,998.9666816990972
160,160,[-1.70289273e+03  3.59399426e+02 -1.23478454e-04  2.17159260e+05],596,1000.4436281411256
161,161,[-2.10487066e+03  3.59399316e+02 -1.11907779e-04  5.94615311e+04],330,999.7101535573493
162,162,[-2.06110714e+03  3.59399300e+02 -1.13371722e-04  3.71170232e+04],694,1000.2055483486224
163,163,[-1.85611018e+03  3.59399275e+02 -1.31965598e-04  8.37174916e+04],121,998.3326760322021
164,164,[-1.86017634e+03  3.59399307e+02 -1.31395829e-04  1.17250587e+05],732,999.4801803603788
165,165,[-2.11386964e+03  3.59399297e+02 -1.09158107e-04  2.92791140e+04],389,999.6103613057462
166,166,[-2.05119728e+03  3.59399302e+02 -1.16215721e-04  3.55232590e+04],361,999.6342363273305
167,167,[-1.93209311e+03  3.59399300e+02 -1.16126948e-04  3.86400895e+04],564,1000.061284393826
168,168,[-1.99771788e+03  3.59399317e+02 -1.15495239e-04  6.89026309e+04],942,1000.496175655613
169,169,[-2.02450074e+03  3.59399317e+02 -1.11701790e-04  5.21058368e+04],941,999.9482516146172
170,170,[-2.24831675e+03  3.59399299e+02 -1.09633952e-04  4.28970628e+04],591,996.5404622886014
171,171,[-1.97926369e+03  3.59399303e+02 -1.19153805e-04  3.80136510e+04],723,999.9823247713465
172,172,[-2.07204599e+03  3.59399273e+02 -1.20149318e-04  2.19212667e+04],662,1000.8893069568321
173,173,[-1.96230192e+03  3.59399305e+02 -1.18128991e-04  4.44217146e+04],3,1000.1796809317669
174,174,[-1.94755332e+03  3.59399364e+02 -1.16213299e-04  1.38508445e+05],623,999.7276495115891
175,175,[-2.00477125e+03  3.59399295e+02 -1.23851642e-04  4.48666741e+04],251,1000.799407632239
176,176,[-1.93740715e+03  3.59399310e+02 -1.21979554e-04  4.78601696e+04],838,1000.9466093338173
177,177,[-2.03508872e+03  3.59399299e+02 -1.16854118e-04  4.10726365e+04],385,1000.5254844699818
178,178,[-2.04146595e+03  3.59399308e+02 -1.02889716e-04  3.95697578e+04],5,999.0274340456488
179,179,[-1.92493247e+03  3.59399301e+02 -1.16460749e-04  3.59795996e+04],961,999.0570389106044
180,180,[-1.81628220e+03  3.59399278e+02 -1.20368151e-04  1.06813348e+05],36,999.8177049466408
181,181,[-2.17807459e+03  3.59399316e+02 -1.16203007e-04  5.26471472e+04],71,999.8731388799067
182,182,[-2.02297554e+03  3.59399316e+02 -1.08225072e-04  6.22427642e+04],463,999.3917979770431
183,183,[-1.94458994e+03  3.59399316e+02 -1.26178315e-04  8.26429049e+04],416,999.081705238841
184,184,[-2.06340097e+03  3.59399319e+02 -1.27691548e-04  9.47547883e+04],252,1001.0945789748728
185,185,[-2.06351264e+03  3.59399316e+02 -1.12328926e-04  6.24157438e+04],33,998.4042164937395
186,186,[-2.01238228e+03  3.59399302e+02 -1.15548353e-04  4.80451847e+04],536,998.6714205646771
187,187,[-1.94703878e+03  3.59399297e+02 -1.20164445e-04  4.29535902e+04],465,998.4672464963633
188,188,[-1.94466981e+03  3.59399315e+02 -1.34674486e-04  8.46122492e+04],402,1000.4593907921434
189,189,[-2.06383831e+03  3.59399316e+02 -1.14627849e-04  6.17398616e+04],974,999.366265154355
190,190,[-2.01963360e+03  3.59399323e+02 -1.07471929e-04  1.06076230e+05],236,999.2496817727321
191,191,[-1.92588051e+03  3.59399277e+02 -1.26883006e-04  1.32021975e+05],415,998.2078504413096
192,192,[-1.87192395e+03  3.59399298e+02 -1.19306380e-04  4.14902377e+04],260,1001.1532299373149
193,193,[-2.06328074e+03  3.59399287e+02 -1.10479784e-04  2.83558793e+04],705,999.8620095224409
194,194,[-2.19304274e+03  3.59399314e+02 -1.06912434e-04  6.27182086e+04],162,997.0282323084316
195,195,[-1.96509082e+03  3.59399291e+02 -1.18011374e-04  2.95394811e+04],521,999.9216745722375
196,196,[-1.93541495e+03  3.59399302e+02 -1.16520308e-04  3.68572126e+04],125,1000.8227550842691
197,197,[-2.18802836e+03  3.59399307e+02 -1.07866282e-04  4.43097922e+04],720,997.9884891177221
198,198,[-2.13526944e+03  3.59399285e+02 -1.08354569e-04  2.65345507e+04],332,996.6377845493936
199,199,[-1.83051411e+03  3.59399299e+02 -1.14631544e-04  5.97154328e+04],173,998.987360679362
200,200,[-1.91669551e+03  3.59399303e+02 -1.21434911e-04  3.70547704e+04],469,1000.7838381539847
201,201,[-2.06223431e+03  3.59399301e+02 -1.16344134e-04  4.70198315e+04],113,999.5290757473382
202,202,[-2.01930905e+03  3.59399299e+02 -1.09776110e-04  4.15050176e+04],419,999.1321722136646
203,203,[-1.90308211e+03  3.59399297e+02 -1.17389721e-04  4.05464264e+04],724,998.882208362239
204,204,[-1.93922053e+03  3.59399299e+02 -1.21484806e-04  5.47676845e+04],153,1000.5763688664076
205,205,[-2.00085387e+03  3.59399408e+02 -1.07607375e-04  1.75280603e+05],324,999.8370838052396
206,206,[-2.12842938e+03  3.59399305e+02 -1.02479812e-04  3.63861003e+04],122,996.3789976321887
207,207,[-1.85853711e+03  3.59399300e+02 -1.20286615e-04  3.71863757e+04],725,998.9894191909067
208,208,[-1.85862388e+03  3.59399301e+02 -1.24728689e-04  4.31704079e+04],102,1000.7900108044188
209,209,[-2.10688435e+03  3.59399309e+02 -1.08872724e-04  4.82635065e+04],570,999.1123181473745
210,210,[-2.14952873e+03  3.59399306e+02 -1.07236961e-04  3.96468750e+04],460,997.8933743181179
211,211,[-1.89347246e+03  3.59399299e+02 -1.12436254e-04  4.01781264e+04],767,999.1157115216699
212,212,[-1.93565457e+03  3.59399306e+02 -1.17758443e-04  5.48358543e+04],427,1000.4747037171078
213,213,[-2.14092551e+03  3.59399303e+02 -1.09289976e-04  3.81725915e+04],108,999.1859707321843
214,214,[-2.08025774e+03  3.59399309e+02 -1.11070196e-04  4.33111184e+04],715,999.295404634891
215,215,[-2.01383495e+03  3.59399303e+02 -1.17757028e-04  3.91203441e+04],110,998.5823885930611
216,216,[-1.94868684e+03  3.59399311e+02 -1.28746003e-04  7.37428045e+04],933,1000.0808635012476
217,217,[-2.15388907e+03  3.59399300e+02 -1.12771932e-04  4.01825898e+04],760,999.7131077927079
218,218,[-2.15785609e+03  3.59399301e+02 -1.13923457e-04  4.01710392e+04],945,997.9228866817027
219,219,[-1.97275760e+03  3.59399305e+02 -1.16232920e-04  4.71132144e+04],220,997.8831575599249
220,220,[-1.86896570e+03  3.59399295e+02 -1.25616941e-04  4.77196395e+04],216,1000.1142157389014
221,221,[-2.16936492e+03  3.59399305e+02 -1.05048292e-04  3.99588654e+04],872,998.0593148633766
222,222,[-2.14974530e+03  3.59399300e+02 -1.04171896e-04  4.07843973e+04],691,996.3118222673947
223,223,[-1.96804364e+03  3.59399292e+02 -1.13084866e-04  2.80000394e+04],338,999.2242200611677
224,224,[-2.00621673e+03  3.59399318e+02 -1.16284266e-04  9.67203963e+04],697,1000.5758649085046
225,225,[-2.00445351e+03  3.59399309e+02 -1.10458423e-04  5.53010174e+04],462,999.144087293081
226,226,[-1.96333101e+03  3.59399305e+02 -1.17027865e-04  3.90066925e+04],167,998.0428534873838
227,227,[-2.06417133e+03  3.59399455e+02 -1.17676860e-04  1.39669186e+05],593,1000.4340898472614
228,228,[-2.02353430e+03  3.59399302e+02 -1.07996258e-04  4.87940217e+04],907,999.2426657954824
229,229,[-2.03200245e+03  3.59399306e+02 -1.08902875e-04  4.57292748e+04],2,998.0192122466146
230,230,[-1.83558816e+03  3.59399301e+02 -1.17516449e-04  3.80955191e+04],553,998.252139919325
231,231,[-1.91645374e+03  3.59399300e+02 -1.21070281e-04  7.96596371e+04],566,1000.0197462498097
232,232,[-2.18007086e+03  3.59399307e+02 -1.09656097e-04  4.34393212e+04],940,998.3435103001314
233,233,[-2.04522301e+03  3.59399299e+02 -1.13548501e-04  4.07403339e+04],567,999.2506350216297
234,234,[-1.89393969e+03  3.59399296e+02 -1.25163446e-04  4.64960883e+04],770,998.5701376131116
235,235,[-1.92199536e+03  3.59399379e+02 -1.28909525e-04  1.56203085e+05],509,999.896105141356
236,236,[-2.00282790e+03  3.59399293e+02 -1.21258824e-04  3.01291970e+04],156,1000.2215889371803
237,237,[-2.09659872e+03  3.59399321e+02 -1.13516404e-04  8.21816336e+04],11,998.2396649417208
238,238,[-1.88919132e+03  3.59399287e+02 -1.19959558e-04  5.67038139e+04],231,999.3156651228024
239,239,[-1.91651773e+03  3.59399291e+02 -1.20879314e-04  5.61672137e+04],841,1000.9629697118723
240,240,[-2.08316951e+03  3.59399309e+02 -1.10101464e-04  5.89286176e+04],765,999.3548222409175
241,241,[-2.22372923e+03  3.59399312e+02 -1.00811711e-04  4.68029680e+04],70,995.1867916774295
242,242,[-1.84008763e+03  3.59399288e+02 -1.21583424e-04  5.40734760e+04],61,999.5874702916084
243,243,[-2.00084584e+03  3.59399309e+02 -1.26186761e-04  5.24893175e+04],394,999.6285527489373
244,244,[-1.84101893e+03  3.59399304e+02 -1.17427250e-04  3.55356170e+04],263,1000.6049937646791
245,245,[-2.03663801e+03  3.59399301e+02 -1.08362809e-04  3.82694228e+04],975,998.8513511944675
246,246,[-1.92956606e+03  3.59399304e+02 -1.20519464e-04  5.39449477e+04],952,999.5662867841695
247,247,[-1.92893640e+03  3.59399300e+02 -1.22255347e-04  4.40692333e+04],722,1000.8695641174882
248,248,[-2.15290595e+03  3.59399301e+02 -1.12998805e-04  4.04000093e+04],919,997.970305041244
249,249,[-1.94110364e+03  3.59399316e+02 -1.10889872e-04  8.19322088e+04],171,998.2914926081711
250,250,[-2.09882709e+03  3.59399308e+02 -1.16904621e-04  5.50809217e+04],301,999.657183864295
251,251,[-1.94717763e+03  3.59399302e+02 -1.14730630e-04  3.99445447e+04],63,1000.2702091503193
252,252,[-1.91952069e+03  3.59399277e+02 -1.16396653e-04  2.10460207e+04],272,1000.2378535315825
253,253,[-1.86391515e+03  3.59399301e+02 -1.21106765e-04  3.87848579e+04],461,998.5894830142444
254,254,[-1.92030679e+03  3.59399300e+02 -1.20200325e-04  4.38824400e+04],627,1000.6407575784007
255,255,[-2.10145864e+03  3.59399308e+02 -1.18500068e-04  5.52781954e+04],333,999.7488344790861
256,256,[-2.06014922e+03  3.59399309e+02 -1.10390384e-04  4.83825232e+04],4,998.5112915196878
257,257,[-1.73994323e+03  3.59399266e+02 -1.22686512e-04  3.27371057e+05],943,999.4517458067627
258,258,[-1.87047796e+03  3.59399295e+02 -1.20292988e-04  4.65767376e+04],726,1000.7931744560776
259,259,[-1.93422186e+03  3.59399226e+02 -1.10591631e-04  1.19571447e+05],81,1000.7140167775433
260,260,[-2.04643656e+03  3.59399325e+02 -1.14640689e-04  1.34469694e+05],425,1000.2180574250153
261,261,[-1.88117873e+03  3.59399301e+02 -1.20169833e-04  3.82240630e+04],598,999.5774308190774
262,262,[-1.93677951e+03  3.59399277e+02 -1.15840377e-04  1.84301283e+05],169,999.7303991064852
263,263,[-2.03532190e+03  3.59399307e+02 -1.12578692e-04  4.31513514e+04],430,999.9918897458894
264,264,[-2.05113989e+03  3.59399302e+02 -1.08612122e-04  3.86881528e+04],400,998.1689046698566
265,265,[-1.84753169e+03  3.59399318e+02 -1.15812876e-04  1.00747483e+05],393,999.029696636051
266,266,[-1.92452838e+03  3.59399199e+02 -1.21707048e-04  2.17978692e+05],111,1000.8431970890263
267,267,[-2.01922572e+03  3.59399303e+02 -1.14262244e-04  3.96372726e+04],28,999.4848743120806
268,268,[-1.97550453e+03  3.59399311e+02 -1.14608360e-04  4.32453837e+04],195,999.6503744078404
269,269,[-1.68415343e+03  3.59399298e+02 -1.26744663e-04  4.76247684e+04],708,999.260012766331
270,270,[-1.78427213e+03  3.59399316e+02 -1.28006586e-04  7.56742242e+04],424,1000.7525826726751
271,271,[-1.91213996e+03  3.59399301e+02 -1.15767445e-04  3.90370574e+04],774,1000.7772199079828
272,272,[-1.91847495e+03  3.59399297e+02 -1.19726834e-04  4.55090834e+04],1,999.9674631475274
273,273,[-1.97782274e+03  3.59399297e+02 -1.16482127e-04  4.82072588e+04],546,1000.3920248630999
274,274,[-1.87036658e+03  3.59399172e+02 -1.12905061e-04  1.08352636e+05],735,1001.0813175728131
275,275,[-1.90124601e+03  3.59399316e+02 -1.12335647e-04  6.06676296e+04],555,999.0988580689132
276,276,[-1.84200730e+03  3.59399306e+02 -1.25984809e-04  6.42203974e+04],326,996.8830006931419
277,277,[-2.03125340e+03  3.59399303e+02 -1.18880875e-04  4.77684432e+04],695,996.2580759733595
278,278,[-1.91700724e+03  3.59399306e+02 -1.08987166e-04  4.83831657e+04],762,992.3352997711046
279,279,[-1.96309144e+03  3.59399280e+02 -1.22298818e-04  2.81958988e+04],831,993.2473716145221
280,280,[-2.10556781e+03  3.59399297e+02 -9.59369763e-05  2.88969949e+04],235,989.2344418881364
281,281,[-1.71761456e+03  3.59399309e+02 -1.33935739e-04  7.19921475e+04],916,996.9336550339973
282,282,[-1.85177837e+03  3.59399309e+02 -1.27667326e-04  6.07857516e+04],528,998.0800434396959
283,283,[-1.99801820e+03  3.59399313e+02 -1.16044431e-04  5.15927864e+04],679,996.5669181945924
284,284,[-1.88208642e+03  3.59399599e+02 -1.01804379e-04  4.77039978e+05],103,991.2687682822086
285,285,[-1.62607682e+03  3.59399293e+02 -1.46917904e-04  7.60951058e+04],181,994.2635964978517
286,286,[-1.91430581e+03  3.59399302e+02 -1.16613107e-04  3.95238181e+04],882,998.3862016536832
287,287,[-2.25473003e+03  3.59399554e+02 -1.02057320e-04  8.20623207e+05],686,992.976016153531
288,288,[-2.05106519e+03  3.59399313e+02 -1.20501074e-04  5.77275062e+04],193,997.8421324780154
289,289,[-2.17143638e+03  3.59399298e+02 -1.15596756e-04  4.71489571e+04],716,997.7149551323062
290,290,[-2.26349773e+03  3.59399303e+02 -1.15244981e-04  3.76518691e+04],749,998.7552359657586
291,291,[-2.08214764e+03  3.59399317e+02 -1.07525470e-04  5.93076834e+04],205,998.0685545739981
292,292,[-2.09451137e+03  3.59399306e+02 -1.13093234e-04  5.30149117e+04],158,996.2358855849225
293,293,[-1.98399557e+03  3.59399265e+02 -1.29472472e-04  5.73218796e+04],925,999.8007957789657
294,294,[-2.05520480e+03  3.59399299e+02 -1.17066071e-04  4.19122946e+04],616,999.665984303722
295,295,[-2.04287627e+03  3.59399313e+02 -1.09539806e-04  4.45095400e+04],354,997.3346875774776
296,296,[-2.01876436e+03  3.59399305e+02 -1.13227212e-04  6.05278966e+04],180,997.5382395645613
297,297,[-2.18257582e+03  3.59399300e+02 -1.15386012e-04  4.36567338e+04],305,998.4942324057284
298,298,[-2.29807086e+03  3.59399301e+02 -1.07701133e-04  4.03532192e+04],604,997.4777939473507
299,299,[-2.09067558e+03  3.59399308e+02 -1.10033470e-04  5.57659436e+04],761,997.2690422428426
300,300,[-2.07518150e+03  3.59399557e+02 -1.17095318e-04  9.31801861e+04],574,998.3317355578841
301,301,[-2.02446823e+03  3.59399313e+02 -1.19695900e-04  8.05933027e+04],700,999.976607005802
302,302,[-2.13654886e+03  3.59399302e+02 -1.08386784e-04  3.91037674e+04],293,997.5920728056255
303,303,[-2.05485302e+03  3.59399299e+02 -1.15979603e-04  4.40765134e+04],853,996.7756198161442
304,304,[-2.03430617e+03  3.59399300e+02 -1.22701399e-04  5.37256234e+04],39,999.6278988727935
305,305,[-2.08567456e+03  3.59399303e+02 -1.15323786e-04  4.16782110e+04],323,999.817352824287
306,306,[-2.22362462e+03  3.59399302e+02 -1.14821747e-04  3.89200431e+04],707,997.7942634210074
307,307,[-2.04020106e+03  3.59399325e+02 -1.12453953e-04  1.13298096e+05],468,997.8377193309753
308,308,[-2.11773149e+03  3.59399304e+02 -1.16816436e-04  7.01508901e+04],331,997.7633846606365
309,309,[-2.16757117e+03  3.59399301e+02 -1.16149400e-04  3.75962582e+04],22,998.9628885882455
310,310,[-2.07708575e+03  3.59399309e+02 -1.08388383e-04  5.27676166e+04],674,998.1572290259792
311,311,[-2.03076413e+03  3.59399296e+02 -1.13465220e-04  4.77081864e+04],123,996.5796845812446
312,312,[-2.13701994e+03  3.59399290e+02 -1.19032835e-04  6.31970777e+04],526,999.6882931724508
313,313,[-2.14567177e+03  3.59399303e+02 -1.13970797e-04  3.63754711e+04],615,998.9112025364739
314,314,[-1.97232076e+03  3.59399302e+02 -1.13417967e-04  4.13427657e+04],696,999.3399694431736
315,315,[-1.91128060e+03  3.59399307e+02 -1.12924879e-04  5.48263062e+04],522,998.1616454676727
316,316,[-2.06015327e+03  3.59399298e+02 -1.17137067e-04  4.63697586e+04],958,1000.8357995648169
317,317,[-2.04440816e+03  3.59399308e+02 -1.16618661e-04  5.95299033e+04],547,1000.9139000829114
318,318,[-2.01825236e+03  3.59399302e+02 -1.12982779e-04  3.87060761e+04],753,1000.8025140123431
319,319,[-1.97682184e+03  3.59399373e+02 -1.24566699e-04  1.65301435e+05],255,999.245284243728
320,320,[-1.92971633e+03  3.59399299e+02 -1.24068324e-04  4.54159219e+04],262,1001.0169382214578
321,321,[-2.15311083e+03  3.59399312e+02 -1.02984772e-04  4.50346631e+04],174,998.1197112434132
322,322,[-2.12544850e+03  3.59399300e+02 -1.06717372e-04  4.39216848e+04],20,997.859296973552
323,323,[-2.02913610e+03  3.59399305e+02 -1.17853629e-04  5.73152704e+04],403,999.7889117904264
324,324,[-2.10164509e+03  3.59399298e+02 -1.18184609e-04  4.67268476e+04],467,1000.152655203286
325,325,[-2.04191299e+03  3.59399309e+02 -1.10835589e-04  4.38447700e+04],217,999.4916723015573
326,326,[-2.09175701e+03  3.59399299e+02 -1.14132951e-04  4.59141780e+04],161,999.9038036723011
327,327,[-2.09743064e+03  3.59399301e+02 -1.11351205e-04  4.15847028e+04],334,999.5096675585991
328,328,[-1.89152527e+03  3.59399296e+02 -1.23084025e-04  4.92989364e+04],932,1001.0231317580303
329,329,[-2.06281483e+03  3.59399310e+02 -1.15677792e-04  5.55061842e+04],312,1000.3814939898
330,330,[-1.99199927e+03  3.59399322e+02 -1.10044836e-04  1.07454368e+05],27,1000.3570539640855
331,331,[-1.83650102e+03  3.59399301e+02 -1.22083070e-04  5.50722158e+04],550,999.7843152078384
332,332,[-1.89709086e+03  3.59399300e+02 -1.18961195e-04  4.53894886e+04],294,1000.1830625413096
333,333,[-2.05610407e+03  3.59399302e+02 -1.13716346e-04  3.90179770e+04],250,999.9586121573897
334,334,[-2.16165953e+03  3.59399302e+02 -1.11115143e-04  4.00908383e+04],951,999.707201335638
335,335,[-1.80549680e+03  3.59399306e+02 -1.25172258e-04  8.12190383e+04],268,999.5700271835925
336,336,[-1.77507028e+03  3.59399314e+02 -1.34450357e-04  2.49736627e+05],690,999.5384378691799
337,337,[-1.97913281e+03  3.59399314e+02 -1.19309582e-04  7.67598685e+04],682,998.4293207557666
338,338,[-1.91637912e+03  3.59399310e+02 -1.09855891e-04  5.39033489e+04],763,1000.0677366942548
339,339,[-1.86651798e+03  3.59399299e+02 -1.16362692e-04  4.21686959e+04],665,998.3852504362519
340,340,[-1.90560782e+03  3.59399399e+02 -1.39496438e-04  2.06306193e+05],166,996.6385978651665
341,341,[-1.86190172e+03  3.59399318e+02 -1.08397057e-04  5.86977860e+04],599,997.6314440727979
342,342,[-1.93713159e+03  3.59399305e+02 -1.21745069e-04  4.35123447e+04],684,995.221518037324
343,343,[-2.16147070e+03  3.59399304e+02 -1.03093534e-04  3.87807014e+04],839,991.589638596264
344,344,[-2.12298751e+03  3.59399301e+02 -1.25057053e-04  4.24450548e+04],243,997.7109542581196
345,345,[-1.78491844e+03  3.59399138e+02 -1.10832754e-04  2.39288140e+05],304,995.1619620549747
346,346,[-1.92628228e+03  3.59399313e+02 -1.40449949e-04  8.40425949e+04],559,991.6337428248967
347,347,[-1.89419439e+03  3.59399307e+02 -1.16212996e-04  5.97572747e+04],866,995.5041095001393
348,348,[-2.17578148e+03  3.59399312e+02 -1.31838028e-04  5.64480545e+04],154,990.0928216390097
349,349,[-2.39614410e+03  3.59399303e+02 -1.01857572e-04  4.08737692e+04],680,992.00429239043
350,350,[-2.18563014e+03  3.59399308e+02 -1.17467342e-04  3.79706509e+04],165,999.1019818338546
351,351,[-1.69843571e+03  3.59399284e+02 -1.32150704e-04  5.83481264e+04],481,998.0821677760803
352,352,[-1.67312723e+03  3.59399400e+02 -1.35389585e-04  2.00652786e+05],35,998.254409578407
353,353,[-1.89937493e+03  3.59399316e+02 -1.29007711e-04  8.71143113e+04],44,999.238641325261
354,354,[-1.95724704e+03  3.59399327e+02 -1.13647538e-04  2.28219421e+05],466,999.8223344067762
355,355,[-1.72538949e+03  3.59399297e+02 -1.28944001e-04  4.70606682e+04],552,999.5311753027097
356,356,[-1.75918213e+03  3.59399297e+02 -1.27951708e-04  5.75636511e+04],476,999.2629438928456
357,357,[-1.87059481e+03  3.59399303e+02 -1.17479578e-04  5.54486762e+04],490,1001.270237639218
358,358,[-1.92456090e+03  3.59399303e+02 -1.06252321e-04  4.13935809e+04],242,999.4340705941892
359,359,[-1.82023451e+03  3.59399303e+02 -1.17000901e-04  3.98599519e+04],514,999.2980882670367
360,360,[-1.88751795e+03  3.59399284e+02 -1.19909491e-04  2.70478026e+04],772,1000.7595180380155
361,361,[-2.01957691e+03  3.59399288e+02 -1.14985669e-04  2.63088547e+04],57,1000.3299731517413
362,362,[-1.88503266e+03  3.59399312e+02 -1.16120484e-04  6.84991606e+04],409,1000.4819205246905
363,363,[-1.67802503e+03  3.59399296e+02 -1.21710933e-04  5.15284038e+04],261,998.8522622943817
364,364,[-1.88630641e+03  3.59399314e+02 -1.24474015e-04  6.91142579e+04],21,998.7588834439246
365,365,[-1.91157706e+03  3.59399304e+02 -1.17527846e-04  3.81018606e+04],335,1000.9438735320356
366,366,[-1.63483914e+03  3.59399306e+02 -1.19083394e-04  4.44084504e+04],970,999.062104920466
367,367,[-1.57025489e+03  3.59399315e+02 -1.32872910e-04  8.82946940e+04],612,997.2076092853398
368,368,[-1.69991997e+03  3.59399316e+02 -1.29597005e-04  6.94626058e+04],246,997.6726499540414
369,369,[-1.85528817e+03  3.59399308e+02 -1.21599542e-04  4.23105108e+04],658,996.8667720909716
370,370,[-1.73471585e+03  3.59399327e+02 -1.08204422e-04  3.04784360e+05],667,989.9640991210464
371,371,[-1.83968319e+03  3.59399284e+02 -1.34689844e-04  1.41924768e+05],47,994.4066725400423
372,372,[-1.67009237e+03  3.59399380e+02 -1.21712101e-04  1.65098005e+05],750,996.9752139787745
373,373,[-1.68632460e+03  3.59399211e+02 -1.32552967e-04  1.62501145e+05],52,997.6637204730145
374,374,[-1.65188381e+03  3.59399302e+02 -1.16089203e-04  4.11410843e+04],543,993.4286313580849
375,375,[-1.93158457e+03  3.59399316e+02 -1.30836126e-04  1.07891716e+05],7,991.1227850854171
376,376,[-1.97024077e+03  3.59399323e+02 -1.00370553e-04  1.24548642e+05],336,990.4220581998155
377,377,[-1.67636548e+03  3.59399432e+02 -1.27284488e-04  2.03721165e+05],880,996.19849422822
378,378,[-1.69633321e+03  3.59399302e+02 -1.23775340e-04  5.01334204e+04],355,998.0468179064309
379,379,[-1.81488031e+03  3.59399305e+02 -1.19600998e-04  5.13971019e+04],688,996.500603756416
380,380,[-1.87321699e+03  3.59399303e+02 -1.06922804e-04  3.80334009e+04],201,991.2685703904235
381,381,[-1.69463774e+03  3.59399305e+02 -1.46349827e-04  1.13500461e+05],421,992.6291378639941
382,382,[-1.84634036e+03  3.59399307e+02 -1.21028369e-04  5.07897600e+04],948,999.3524472668709
383,383,[-1.82460780e+03  3.59399302e+02 -1.21954076e-04  6.63450774e+04],687,994.1501149262286
384,384,[-2.37865509e+03  3.59399303e+02 -1.03030005e-04  4.05548204e+04],327,993.3034607700408
385,385,[-1.86738958e+03  3.59399308e+02 -1.19755639e-04  5.11225329e+04],18,1000.2689779733197
386,386,[-1.76662219e+03  3.59399298e+02 -1.26983144e-04  4.95964746e+04],917,999.0830358447271
387,387,[-1.74924795e+03  3.59399317e+02 -1.31898673e-04  7.21895404e+04],471,998.9839980470972
388,388,[-1.95299229e+03  3.59399306e+02 -1.17046863e-04  5.17706553e+04],119,1000.3715510988796
389,389,[-1.96897076e+03  3.59399303e+02 -1.21637028e-04  3.67964978e+04],325,1000.332663682794
390,390,[-1.66180434e+03  3.59399297e+02 -1.26192744e-04  4.96454543e+04],267,999.0052859458843
391,391,[-1.85936653e+03  3.59399304e+02 -1.25086781e-04  1.85021049e+05],935,999.4294585270411
392,392,[-1.94117156e+03  3.59399302e+02 -1.18757038e-04  4.21554744e+04],164,1000.7433252983284
393,393,[-1.86402468e+03  3.59399299e+02 -1.15778529e-04  4.67087257e+04],860,999.9325261807242
394,394,[-1.70493067e+03  3.59399284e+02 -1.21682222e-04  1.01239342e+05],689,999.9963431872354
395,395,[-1.84165584e+03  3.59399308e+02 -1.26445016e-04  6.19430846e+04],100,1000.6923893542275
396,396,[-1.93355148e+03  3.59399303e+02 -1.18106784e-04  4.39509314e+04],906,1001.0914195787301
397,397,[-1.83906994e+03  3.59399312e+02 -1.22286600e-04  7.40917045e+04],257,1000.4540705857497
398,398,[-1.74337229e+03  3.59399299e+02 -1.35182724e-04  4.95710096e+04],40,997.191916501236
399,399,[-1.77620049e+03  3.59399296e+02 -1.32151755e-04  5.21066365e+04],768,994.3504361168921
400,400,[-2.00084312e+03  3.59399306e+02 -1.13553019e-04  4.72274934e+04],669,999.945655106263
401,401,[-1.96343001e+03  3.59399304e+02 -1.16208420e-04  5.40374630e+04],934,1000.4247568221737
402,402,[-1.84795780e+03  3.59399296e+02 -1.21253214e-04  5.01832057e+04],626,1000.224937670271
403,403,[-1.90801350e+03  3.59399301e+02 -1.20204386e-04  5.32647796e+04],504,999.7199062838843
404,404,[-1.90992396e+03  3.59399255e+02 -1.19583229e-04  8.79615312e+04],358,1000.8344690632756
405,405,[-1.94856672e+03  3.59399309e+02 -1.13275310e-04  4.72530476e+04],391,1000.5303148160087
406,406,[-1.71356915e+03  3.59399300e+02 -1.23602000e-04  4.65546657e+04],495,998.2198718921176
407,407,[-1.70897959e+03  3.59399302e+02 -1.35750729e-04  4.29934741e+04],957,996.8285332348943
408,408,[-1.91864714e+03  3.59399302e+02 -1.26764646e-04  4.34494126e+04],525,993.9024099873773
409,409,[-2.05360104e+03  3.59399306e+02 -1.10375434e-04  3.82244395e+04],563,999.5786904029111
410,410,[-1.73135516e+03  3.59399306e+02 -1.18052250e-04  4.07480527e+04],672,998.9558619389876
411,411,[-1.80361884e+03  3.59399301e+02 -1.30876788e-04  4.40762178e+04],520,996.7551514297717
412,412,[-1.73349768e+03  3.59399304e+02 -1.10912972e-04  5.63704436e+04],515,993.1755974886713
413,413,[-2.02182591e+03  3.59399308e+02 -1.36761996e-04  7.20118515e+04],16,988.2980574723621
414,414,[-2.40398983e+03  3.59399324e+02 -1.01969089e-04  7.90312962e+04],182,993.0532537150442
415,415,[-1.96436423e+03  3.59399303e+02 -1.15795174e-04  4.00256289e+04],673,1000.2214596235091
416,416,[-1.84441726e+03  3.59399314e+02 -1.15469412e-04  6.42995071e+04],480,1000.2379999435163
417,417,[-1.84687212e+03  3.59399293e+02 -1.25167278e-04  3.20310915e+04],90,1000.8805894321475
418,418,[-1.87508548e+03  3.59399301e+02 -1.18038958e-04  4.22545064e+04],507,1000.8795528297165
419,419,[-1.90847804e+03  3.59399305e+02 -1.13744304e-04  3.78662857e+04],661,1000.1633109254201
420,420,[-1.69092003e+03  3.59399298e+02 -1.22087891e-04  4.75505814e+04],17,998.8213260038217
421,421,[-1.70904215e+03  3.59399224e+02 -1.41161044e-04  1.87092369e+05],189,999.5149839879014
422,422,[-1.94520471e+03  3.59399303e+02 -1.14780994e-04  4.20386286e+04],849,1001.127148610065
423,423,[-1.95217478e+03  3.59399303e+02 -1.21009518e-04  4.35061736e+04],240,1001.1368294190381
424,424,[-1.78141872e+03  3.59399281e+02 -1.23717206e-04  8.14707557e+04],382,999.9170456222278
425,425,[-1.88655167e+03  3.59399295e+02 -1.26967372e-04  5.28499858e+04],127,999.9512452764649
426,426,[-1.92517134e+03  3.59399308e+02 -1.19812461e-04  5.46548822e+04],524,1000.711272205677
427,427,[-1.93495889e+03  3.59399300e+02 -1.18472137e-04  4.50321747e+04],678,1000.1409188849731
428,428,[-1.98815195e+03  3.59399297e+02 -1.19297308e-04  4.98201682e+04],314,1000.4596447151072
429,429,[-1.99072917e+03  3.59399303e+02 -1.19865038e-04  4.83627584e+04],757,1001.2831428177441
430,430,[-1.98097105e+03  3.59399300e+02 -1.11906697e-04  4.64491576e+04],505,999.9478140939299
431,431,[-1.81601767e+03  3.59399302e+02 -1.21388728e-04  4.54935522e+04],238,998.8788549778048
432,432,[-1.70203675e+03  3.59399181e+02 -1.31222141e-04  4.84659082e+05],903,998.3697144727257
433,433,[-1.92114513e+03  3.59399311e+02 -1.30493799e-04  4.64647062e+04],854,994.0224538267054
434,434,[-1.82914622e+03  3.59399307e+02 -1.02164054e-04  3.30687540e+04],561,993.5988152498572
435,435,[-1.79992993e+03  3.59399283e+02 -1.49790774e-04  6.61775968e+04],359,992.7675031360659
436,436,[-1.88919703e+03  3.59399311e+02 -1.24211424e-04  6.32740426e+04],214,998.9877238889582
437,437,[-1.95987047e+03  3.59399322e+02 -1.13612996e-04  8.81087804e+04],544,997.6232427020262
438,438,[-2.18024500e+03  3.59399308e+02 -1.00292504e-04  4.40045264e+04],944,991.779425980526
439,439,[-1.78979016e+03  3.59399293e+02 -1.31767646e-04  5.53665969e+04],23,998.3695282083834
440,440,[-1.89883791e+03  3.59399283e+02 -1.16230224e-04  7.62538779e+04],6,995.4294826040368
441,441,[-1.82220098e+03  3.59399307e+02 -1.07940348e-04  3.52090099e+04],38,990.6395970364374
442,442,[-1.76937665e+03  3.59399303e+02 -1.49758279e-04  3.85622175e+05],356,993.7172126624937
443,443,[-1.87336581e+03  3.59399305e+02 -1.15232601e-04  3.86027642e+04],443,999.2622041058153
444,444,[-1.70174633e+03  3.59399311e+02 -1.03973650e-04  6.29885945e+04],105,991.9572267311866
445,445,[-1.73377893e+03  3.59399310e+02 -1.43697216e-04  7.29524822e+04],269,990.8763932305371
446,446,[-1.78636214e+03  3.59399327e+02 -1.22240187e-04  2.19670086e+05],233,992.5473179945332
447,447,[-1.88616357e+03  3.59399288e+02 -1.32514970e-04  6.00477525e+04],190,989.3668225579618
448,448,[-1.80570086e+03  3.59399304e+02 -1.12297997e-04  4.13326532e+04],46,993.8222875383715
449,449,[-1.85122209e+03  3.59399398e+02 -1.13327307e-04  1.96633003e+05],319,986.6855745205063
450,450,[-1.99332563e+03  3.59399306e+02 -9.97385534e-05  4.03299053e+04],120,988.6978810922391
451,451,[-1.78494239e+03  3.59399299e+02 -1.36832239e-04  6.23168877e+04],228,995.4901188618259
452,452,[-1.90359180e+03  3.59399319e+02 -1.28682376e-04  9.65820011e+04],473,997.424374545513
453,453,[-1.78485802e+03  3.59399301e+02 -1.15445016e-04  4.46219406e+04],353,996.0905454197333
454,454,[-1.73871466e+03  3.59399312e+02 -1.36493018e-04  6.83109257e+04],75,991.3621529453187
455,455,[-1.94402625e+03  3.59399301e+02 -1.13066798e-04  4.50545507e+04],223,997.251202282674
456,456,[-1.89776975e+03  3.59399301e+02 -1.29278986e-04  4.77699890e+04],31,993.1877915329669
457,457,[-1.91547870e+03  3.59399303e+02 -1.10855161e-04  4.17169864e+04],837,998.5753815554167
458,458,[-1.50844852e+03  3.59399300e+02 -1.30008423e-04  8.53881872e+04],58,998.318610268672
459,459,[-1.65951738e+03  3.59399323e+02 -1.31813217e-04  1.07918173e+05],19,998.1596975806739
460,460,[-1.88364657e+03  3.59399306e+02 -1.18805023e-04  4.66325276e+04],117,1000.1491191444442
461,461,[-1.83729633e+03  3.59399313e+02 -1.14631018e-04  4.68035212e+04],600,999.9602472099987
462,462,[-1.69092478e+03  3.59399317e+02 -1.22173644e-04  7.91068498e+04],213,1000.0644440192871
463,463,[-1.82432215e+03  3.59399301e+02 -1.21813863e-04  4.88237578e+04],78,1000.2390728133382
464,464,[-1.81389792e+03  3.59399309e+02 -1.27375573e-04  6.17506674e+04],225,1000.3928018907644
465,465,[-1.65535374e+03  3.59399288e+02 -1.29617342e-04  6.14545750e+04],603,1000.2280430404575
466,466,[-1.75356113e+03  3.59399012e+02 -1.31009623e-04  3.93952446e+05],202,999.605605081083
467,467,[-1.87983991e+03  3.59399301e+02 -1.31294415e-04  4.48630507e+04],736,999.7135404217319
468,468,[-1.90829097e+03  3.59399728e+02 -1.12780173e-04  3.96833306e+05],30,999.7848284221324
469,469,[-1.85020265e+03  3.59399321e+02 -1.17431397e-04  9.88419659e+04],692,1000.1784298355689
470,470,[-1.66133200e+03  3.59399393e+02 -1.28748035e-04  1.93922394e+05],969,998.6333011165818
471,471,[-1.84294813e+03  3.59399311e+02 -1.31086382e-04  6.46906130e+04],211,999.5050513817679
472,472,[-1.80715493e+03  3.59399315e+02 -1.19622483e-04  1.04139906e+05],479,1000.6821637038599
473,473,[-1.63900764e+03  3.59399301e+02 -1.23657718e-04  4.63374814e+04],209,999.2419027530822
474,474,[-1.50094205e+03  3.59399299e+02 -1.37398549e-04  4.98996910e+04],622,995.4098531032625
475,475,[-1.57969089e+03  3.59399287e+02 -1.45293109e-04  6.24759649e+04],96,995.161565578964
476,476,[-1.91034687e+03  3.59399305e+02 -1.25992575e-04  4.18926416e+04],703,999.5969826958038
477,477,[-1.52785125e+03  3.59399317e+02 -1.25442959e-04  6.26795198e+04],9,998.3934397239566
478,478,[-1.66870252e+03  3.59399305e+02 -1.18948351e-04  5.39758773e+04],350,998.3516590622593
479,479,[-1.80928080e+03  3.59399315e+02 -1.27649674e-04  6.95527837e+04],275,999.112691930054
480,480,[-1.88243164e+03  3.59399316e+02 -1.21928464e-04  7.42120630e+04],34,999.3907640223265
481,481,[-1.72802891e+03  3.59399306e+02 -1.23731964e-04  4.14927420e+04],386,999.6084489448315
482,482,[-1.58186693e+03  3.59399302e+02 -1.17197496e-04  4.59380621e+04],183,998.2802455116297
483,483,[-1.73569198e+03  3.59399322e+02 -1.26746741e-04  5.42374883e+05],847,997.8850292121048
484,484,[-1.84598513e+03  3.59399317e+02 -1.31193566e-04  1.04584185e+05],533,997.122244742606
485,485,[-1.75509400e+03  3.59399283e+02 -1.31697226e-04  6.54526266e+04],698,993.6839098692069
486,486,[-1.72165186e+03  3.59399209e+02 -1.45059160e-04  1.54648685e+05],992,993.3959620558633
487,487,[-1.55415393e+03  3.59399281e+02 -1.30835490e-04  2.11793508e+05],973,989.9021255010922
488,488,[-1.67654750e+03  3.59399375e+02 -1.33573438e-04  1.63580193e+05],366,993.4242901596225
489,489,[-1.77699138e+03  3.59399292e+02 -1.32220117e-04  6.31408339e+04],179,997.209950895064
490,490,[-1.68614039e+03  3.59399290e+02 -1.24793496e-04  6.18331419e+04],905,999.5958338458158
491,491,[-1.35637325e+03  3.59399308e+02 -1.36404667e-04  7.87613765e+04],976,995.3650542193514
492,492,[-1.40374983e+03  3.59399276e+02 -1.48514823e-04  7.84321346e+04],265,993.0470675114319
493,493,[-1.47654337e+03  3.59399300e+02 -1.27943037e-04  5.72578925e+04],178,996.8576090371613
494,494,[-1.56929711e+03  3.59399305e+02 -1.22918554e-04  3.96486756e+04],874,998.8048723776396
495,495,[-1.52309015e+03  3.59399318e+02 -1.25886182e-04  8.58504874e+04],557,999.4293939027536
496,496,[-1.41730009e+03  3.59399307e+02 -1.30954417e-04  6.72860284e+04],115,996.5126034395493
497,497,[-1.55183045e+03  3.59399325e+02 -1.37951262e-04  2.13595837e+05],390,996.5439740978002
498,498,[-1.65573059e+03  3.59399302e+02 -1.30217627e-04  4.74634856e+04],629,998.1300554502875
499,499,[-1.59580191e+03  3.59399312e+02 -1.14526838e-04  5.06476809e+04],980,998.869750700548
500,500,[-1.66553653e+03  3.59399303e+02 -1.32626522e-04  4.50937574e+04],207,998.0901520227292
501,501,[-1.54566062e+03  3.59399297e+02 -1.15616514e-04  5.14116920e+04],436,997.0421741391648
502,502,[-1.64919840e+03  3.59399301e+02 -1.37284071e-04  4.80238271e+04],199,994.7621841022777
503,503,[-1.76474082e+03  3.59399325e+02 -1.27895162e-04  1.83244249e+05],124,998.1230048682178
504,504,[-1.69003579e+03  3.59399370e+02 -1.16940800e-04  1.61568203e+05],387,999.436017226647
505,505,[-1.99479481e+03  3.59399307e+02 -1.16332329e-04  3.98103586e+04],0,999.3271605380676
506,506,[-1.81204143e+03  3.59399283e+02 -1.25124989e-04  6.58022698e+04],67,1000.7873478975152
507,507,[-1.85509169e+03  3.59399296e+02 -1.32767465e-04  5.29454758e+04],159,999.374618665693
508,508,[-1.75100465e+03  3.59399324e+02 -1.31909844e-04  1.63281055e+05],309,998.1114688095478
509,509,[-1.84819575e+03  3.59399311e+02 -1.23087573e-04  5.25239083e+04],410,1000.032692150029
510,510,[-1.86416846e+03  3.59399311e+02 -1.08975459e-04  4.33532795e+04],510,998.9426060859288
511,511,[-1.69423543e+03  3.59399287e+02 -1.23167700e-04  6.39171858e+04],950,998.4637429647195
512,512,[-1.55900154e+03  3.59399299e+02 -1.38326263e-04  4.92957458e+04],936,996.2567298796864
513,513,[-1.70255359e+03  3.59399302e+02 -1.26324111e-04  4.15509365e+04],313,998.1368034504856
514,514,[-1.77282130e+03  3.59399400e+02 -1.11752144e-04  1.65796182e+05],902,999.5853966543644
515,515,[-1.73399726e+03  3.59399403e+02 -1.27998218e-04  2.14851737e+05],203,999.4001404849433
516,516,[-1.69833432e+03  3.59399297e+02 -1.26857818e-04  5.29660585e+04],431,998.7028808958472
517,517,[-1.85141405e+03  3.59399310e+02 -1.26874955e-04  4.78501832e+04],499,1000.5294785778971
518,518,[-1.46206520e+03  3.59399296e+02 -1.47865072e-04  5.39550891e+04],363,997.4007824873214
519,519,[-1.60715526e+03  3.59399276e+02 -1.42519769e-04  1.00042765e+05],245,997.5537546578672
520,520,[-1.85857203e+03  3.59399307e+02 -1.25478639e-04  4.63744825e+04],59,999.420007747027
521,521,[-1.67074258e+03  3.59399302e+02 -1.18872925e-04  4.23814213e+04],554,1000.1985472381614
522,522,[-1.85889565e+03  3.59399299e+02 -1.27580475e-04  5.00155952e+04],937,999.755676990604
523,523,[-1.77328987e+03  3.59399306e+02 -1.21399925e-04  5.14246914e+04],523,998.82670495532
524,524,[-1.84765173e+03  3.59399306e+02 -1.14155180e-04  3.99482526e+04],91,999.3432860930678
525,525,[-1.89982646e+03  3.59399303e+02 -1.26660069e-04  4.76379976e+04],420,999.4253375669651
526,526,[-1.82575987e+03  3.59399298e+02 -1.33214284e-04  5.21666584e+04],66,999.7754765750008
527,527,[-1.90327539e+03  3.59399302e+02 -1.20495578e-04  4.40706782e+04],870,1000.4650715729334
528,528,[-1.57879553e+03  3.59399304e+02 -1.17710564e-04  4.26240331e+04],879,999.8849485247448
529,529,[-1.55816333e+03  3.59399283e+02 -1.39123614e-04  1.14435243e+05],494,996.3389410197806
530,530,[-1.84572044e+03  3.59399303e+02 -1.34678254e-04  4.83182469e+04],101,998.027158840179
531,531,[-1.88836991e+03  3.59399290e+02 -1.15803164e-04  2.86889188e+04],69,997.7370025639425
532,532,[-2.30027297e+03  3.59399304e+02 -1.14053661e-04  4.45147606e+04],816,992.0749370689199
533,533,[-1.63832949e+03  3.59399311e+02 -1.17714818e-04  5.98479057e+04],364,999.0725217262603
534,534,[-1.67513713e+03  3.59399324e+02 -1.32919417e-04  1.57358597e+05],290,996.6832532641963
535,535,[-2.05949664e+03  3.59399317e+02 -1.20540915e-04  7.96702098e+04],104,998.500100990855
536,536,[-1.74587087e+03  3.59399305e+02 -1.20152611e-04  5.09995637e+04],630,1000.2328067164862
537,537,[-1.85317548e+03  3.59399307e+02 -1.46028950e-04  1.08071448e+05],24,995.1321640015574
538,538,[-1.66580405e+03  3.59399305e+02 -1.14803230e-04  6.41132176e+04],48,997.0058696229653
539,539,[-2.29906606e+03  3.59399311e+02 -1.05806440e-04  4.88031076e+04],516,995.9260571754093
540,540,[-1.99567369e+03  3.59399309e+02 -1.05547150e-04  5.78923115e+04],913,998.1023698783499
541,541,[-1.87856065e+03  3.59399309e+02 -1.23979688e-04  5.50484733e+04],928,997.977235306192
542,542,[-1.70269255e+03  3.59399291e+02 -1.23882935e-04  6.13849158e+04],186,997.5963207705167
543,543,[-2.11366059e+03  3.59399313e+02 -1.10223726e-04  5.41517346e+04],840,999.5414506877357
544,544,[-2.16022457e+03  3.59399306e+02 -1.12662225e-04  4.05629110e+04],904,999.283361214978
545,545,[-2.05880774e+03  3.59399304e+02 -1.12181896e-04  5.47398175e+04],683,998.4811055408289
546,546,[-2.04846167e+03  3.59399298e+02 -1.21195202e-04  5.29057445e+04],470,999.911838383083
547,547,[-2.00733844e+03  3.59399302e+02 -1.20781947e-04  4.67996680e+04],926,999.751620872676
548,548,[-2.17929924e+03  3.59399314e+02 -1.06464933e-04  5.33730661e+04],706,997.826156789941
549,549,[-2.13181406e+03  3.59399305e+02 -1.12391351e-04  5.52897140e+04],711,997.3990738894406
550,550,[-2.09574343e+03  3.59399314e+02 -1.16522613e-04  7.36374315e+04],887,999.6754243731101
551,551,[-2.07676049e+03  3.59399304e+02 -1.19016715e-04  5.70917916e+04],253,1000.5336730242861
552,552,[-2.13915233e+03  3.59399314e+02 -1.12769515e-04  5.74470925e+04],215,999.6030380226105
553,553,[-1.94020552e+03  3.59399305e+02 -1.19826868e-04  4.42386427e+04],457,1000.0445463224869
554,554,[-2.04537550e+03  3.59399296e+02 -1.26838336e-04  5.73301796e+04],234,998.8316497599923
555,555,[-2.09127948e+03  3.59399211e+02 -1.09724789e-04  2.00225251e+05],660,999.9046048687327
556,556,[-1.97664838e+03  3.59399303e+02 -1.15174600e-04  4.34657432e+04],1002,1000.8372124107549
557,557,[-1.76371348e+03  3.59399299e+02 -1.15067069e-04  5.11467612e+04],256,999.0150092698781
558,558,[-1.94931875e+03  3.59399306e+02 -1.20643975e-04  4.44157338e+04],848,1000.663315609891
559,559,[-2.12842320e+03  3.59399305e+02 -1.11265154e-04  4.30051139e+04],535,999.6183125781761
560,560,[-2.14037981e+03  3.59399303e+02 -1.07882183e-04  4.53963453e+04],915,997.2218157791904
561,561,[-2.01439322e+03  3.59399299e+02 -1.23059000e-04  5.09745645e+04],297,999.2992381048605
562,562,[-1.96598820e+03  3.59399311e+02 -1.16586046e-04  5.95287936e+04],819,1000.3923454541764
563,563,[-2.02119447e+03  3.59399306e+02 -1.14337782e-04  4.34561696e+04],595,999.4233014040974
564,564,[-1.75771109e+03  3.59399324e+02 -1.29215814e-04  2.11285038e+05],545,1000.3299271342171
565,565,[-1.88042498e+03  3.59399308e+02 -1.27492513e-04  6.75824160e+04],130,1001.3211322295837
566,566,[-1.95065316e+03  3.59399306e+02 -1.14701566e-04  4.28832872e+04],187,1000.0444097066603
567,567,[-1.91366190e+03  3.59399317e+02 -1.11788218e-04  9.98525656e+04],606,1000.0400840121414
568,568,[-1.92610703e+03  3.59399300e+02 -1.25497831e-04  5.00378214e+04],511,1000.8398497165646
569,569,[-1.86517919e+03  3.59399301e+02 -1.23773970e-04  4.69361122e+04],978,1001.2389720218027
570,570,[-1.86785847e+03  3.59399308e+02 -1.21773244e-04  5.76929268e+04],855,1000.1497625226989
571,571,[-1.83851475e+03  3.59399308e+02 -1.25951844e-04  7.73718369e+04],337,996.84340565802
572,572,[-1.83664648e+03  3.59399322e+02 -1.37172207e-04  1.30963744e+05],185,994.3704925967367
573,573,[-1.89805305e+03  3.59399387e+02 -1.33208812e-04  1.99119176e+05],812,995.8797359234549
574,574,[-2.00380679e+03  3.59399306e+02 -1.10966186e-04  4.26335096e+04],631,999.8101540163852
575,575,[-1.84230937e+03  3.59399309e+02 -1.20901537e-04  5.57734854e+04],477,997.8305494902788
576,576,[-1.62545529e+03  3.59399290e+02 -1.20282532e-04  6.30183656e+04],286,992.2368386612019
577,577,[-1.73180357e+03  3.59399299e+02 -1.38878697e-04  5.32235177e+04],339,993.605865164054
578,578,[-1.67539248e+03  3.59399301e+02 -1.02323349e-04  4.81603781e+04],432,995.7652345343984
579,579,[-2.01117453e+03  3.59399310e+02 -1.27779524e-04  4.54936656e+04],439,996.5438368627548
580,580,[-1.55594324e+03  3.59399301e+02 -1.09313944e-04  4.82915462e+04],478,986.5047671908478
581,581,[-1.79708989e+03  3.59399284e+02 -1.53206702e-04  7.31133892e+04],95,988.8309059040209
582,582,[-1.71787145e+03  3.59399309e+02 -1.11785357e-04  4.11340634e+04],232,996.8466795401091
583,583,[-1.89968415e+03  3.59399301e+02 -1.36716080e-04  4.93755231e+04],152,993.2240860446209
584,584,[-1.74668827e+03  3.59399306e+02 -9.81344160e-05  4.17059754e+04],666,983.3192847350118
585,585,[-1.84891692e+03  3.59399311e+02 -1.41693488e-04  9.88740102e+04],163,991.9038650783624
586,586,[-1.88998461e+03  3.59399317e+02 -1.06913323e-04  5.98085928e+04],300,996.2754270870038
587,587,[-1.78515530e+03  3.59399301e+02 -1.29600941e-04  4.98237389e+04],458,995.9680188734244
588,588,[-1.73606943e+03  3.59399306e+02 -1.05639625e-04  4.15590657e+04],931,990.7819133354964
589,589,[-1.81439941e+03  3.59399286e+02 -1.36844659e-04  1.85008421e+05],896,989.3895702217669
590,590,[-2.33121431e+03  3.59399308e+02 -1.01120690e-04  3.83710113e+04],993,994.6694862542488
591,591,[-1.95687042e+03  3.59399305e+02 -1.18558882e-04  4.04503346e+04],833,1000.3084115402963
592,592,[-1.93711081e+03  3.59399299e+02 -1.24507784e-04  5.37090882e+04],249,1001.0693731311009
593,593,[-2.06579314e+03  3.59399314e+02 -1.15282644e-04  7.56566954e+04],482,1000.0545856802722
594,594,[-2.21852185e+03  3.59399307e+02 -1.10369315e-04  3.91544774e+04],914,998.0956737001709
595,595,[-1.98140430e+03  3.59399303e+02 -1.16387769e-04  4.62789825e+04],352,998.4834877998226
596,596,[-1.77335143e+03  3.59399296e+02 -1.31425480e-04  5.55030493e+04],230,1000.3619299054872
597,597,[-1.91736213e+03  3.59399303e+02 -1.24570416e-04  4.69771533e+04],237,1001.2090578685784
598,598,[-1.77314843e+03  3.59399328e+02 -1.09118901e-04  2.68039487e+05],406,999.9493252090248
599,599,[-1.78333049e+03  3.59399299e+02 -1.29854796e-04  5.27749186e+04],56,999.6335347073112
600,600,[-1.82519880e+03  3.59399302e+02 -1.41202400e-04  6.75185040e+04],191,999.1929737216501
601,601,[-2.10020794e+03  3.59399305e+02 -1.11147594e-04  4.41366311e+04],881,998.0261509227038
602,602,[-2.20478570e+03  3.59399311e+02 -1.07760470e-04  5.35349350e+04],79,996.7702812466563
603,603,[-2.06867546e+03  3.59399300e+02 -1.18563383e-04  5.17684413e+04],844,999.1439619882855
604,604,[-1.94790610e+03  3.59399304e+02 -1.18489126e-04  4.53268224e+04],264,999.8133249972943
605,605,[-2.13957120e+03  3.59399304e+02 -1.04179786e-04  4.39155740e+04],883,997.0503948202087
606,606,[-2.03753354e+03  3.59399303e+02 -1.09773918e-04  4.59872483e+04],315,998.4653472532369
607,607,[-1.86860337e+03  3.59399302e+02 -1.19323194e-04  7.97697926e+04],459,997.3395660655991
608,608,[-1.74661040e+03  3.59399303e+02 -1.27914948e-04  1.00279969e+05],310,997.90885568138
609,609,[-1.99638082e+03  3.59399315e+02 -1.27634390e-04  6.79401098e+04],55,1000.9542249056748
610,610,[-1.92302198e+03  3.59399304e+02 -1.07536044e-04  4.29219033e+04],513,1000.6976769322133
611,611,[-1.93654523e+03  3.59399544e+02 -1.14735949e-04  6.19427045e+05],498,1000.5743877162063
612,612,[-1.80172030e+03  3.59399308e+02 -1.23652066e-04  5.89938924e+04],843,999.5673782281505
613,613,[-1.74695443e+03  3.59399304e+02 -1.29116436e-04  6.89074626e+04],991,1000.7066522224135
614,614,[-1.97189794e+03  3.59399307e+02 -1.16338775e-04  6.53571840e+04],503,1001.244612176293
615,615,[-2.07611928e+03  3.59399309e+02 -1.15473183e-04  4.81522465e+04],321,999.7610891527609
616,616,[-1.89068690e+03  3.59399310e+02 -1.25276938e-04  5.75953518e+04],508,999.8228469120367
617,617,[-2.03932223e+03  3.59399306e+02 -1.22430684e-04  5.53575147e+04],540,1001.2476952557927
618,618,[-1.87714896e+03  3.59399305e+02 -1.16643885e-04  5.60288995e+04],112,1000.7722365447441
619,619,[-1.68569773e+03  3.59399302e+02 -1.20350540e-04  4.63073557e+04],594,996.728310225095
620,620,[-1.9999437e+03  3.5939933e+02 -1.2864696e-04  6.1149686e+05],26,1000.3840228037927
621,621,[-1.95463414e+03  3.59399305e+02 -1.10685391e-04  4.18890872e+04],500,1000.4736585788701
622,622,[-1.83041359e+03  3.59399313e+02 -1.20389206e-04  6.79724060e+04],663,999.1115934249724
623,623,[-1.95992965e+03  3.59399316e+02 -1.24877884e-04  7.44315864e+04],351,1000.2786373123228
624,624,[-1.95642246e+03  3.59399304e+02 -1.21514521e-04  4.48693670e+04],282,1000.8704869290714
625,625,[-1.93315708e+03  3.59399304e+02 -1.13280841e-04  4.45317733e+04],291,1000.9395220247075
626,626,[-1.77108282e+03  3.59399292e+02 -1.32881922e-04  3.47700987e+04],733,999.4368002887517
627,627,[-1.73425345e+03  3.59399300e+02 -1.21258919e-04  5.14174637e+04],221,999.9590896917293
628,628,[-1.91436915e+03  3.59399308e+02 -1.21440114e-04  6.35748851e+04],378,1001.1289531110532
629,629,[-1.70530423e+03  3.59399310e+02 -1.26785473e-04  6.05888264e+04],226,999.0023406331401
630,630,[-1.94617936e+03  3.59399300e+02 -1.39086400e-04  4.40740384e+04],25,998.728622607183
631,631,[-1.93329323e+03  3.59399309e+02 -1.17036874e-04  5.77143935e+04],530,998.3954792132129
632,632,[-1.97826369e+03  3.59399306e+02 -1.24504728e-04  5.87382200e+04],601,992.4918955971873
633,633,[-2.05422117e+03  3.59399305e+02 -1.06719733e-04  4.35235804e+04],229,990.1424458680935
634,634,[-1.59215092e+03  3.59399318e+02 -2.08021416e-04  8.27634901e+04],197,989.1320990985712
635,635,[-1.78421231e+03  3.59399324e+02 -1.14353759e-04  1.24639650e+05],685,996.6271353865615
636,636,[-1.84801814e+03  3.59399304e+02 -1.30396525e-04  4.42593339e+04],541,995.5387667254586
637,637,[-1.70371318e+03  3.59399305e+02 -1.12528642e-04  4.35917589e+04],248,989.8771766375106
638,638,[-1.76277817e+03  3.59399286e+02 -1.42011564e-04  6.78408989e+04],968,987.1990737972955
639,639,[-2.03545520e+03  3.59399309e+02 -1.05586137e-04  3.79852416e+04],84,996.0520638069875
640,640,[-1.98509887e+03  3.59399304e+02 -1.23668287e-04  4.63385886e+04],775,994.9525073596332
641,641,[-1.97247769e+03  3.59399306e+02 -1.07734712e-04  4.29550652e+04],10,993.9228225073642
642,642,[-1.83366100e+03  3.59399308e+02 -1.29104116e-04  4.62783355e+04],218,997.7534652417488
643,643,[-1.76144075e+03  3.59399323e+02 -1.12394557e-04  8.38982769e+04],608,991.0644384458262
644,644,[-1.70776749e+03  3.59399251e+02 -1.50925945e-04  1.02288263e+05],210,993.2353954860023
645,645,[-2.00834566e+03  3.59399298e+02 -1.22799058e-04  4.76456386e+04],483,997.624932160025
646,646,[-1.80246339e+03  3.59399325e+02 -1.15430588e-04  1.23015294e+05],219,996.8108417579529
647,647,[-1.83410165e+03  3.59399307e+02 -1.37019003e-04  5.90338790e+04],960,993.399458240227
648,648,[-1.93903943e+03  3.59399304e+02 -1.06021057e-04  4.64127608e+04],322,993.7727872493865
649,649,[-1.89113206e+03  3.59399309e+02 -1.31473045e-04  6.01461413e+04],288,997.8331768439206
650,650,[-1.82020720e+03  3.59399311e+02 -1.20950081e-04  5.42961856e+04],307,996.8336231874163
651,651,[-1.57787371e+03  3.59399295e+02 -1.40090092e-04  6.11421639e+04],649,995.1780140073818
652,652,[-1.73629187e+03  3.59399305e+02 -1.29719407e-04  5.32354587e+04],575,997.3772810078818
653,653,[-1.76609998e+03  3.59399318e+02 -1.20473509e-04  5.59469301e+04],548,995.8119072463836
654,654,[-1.72934347e+03  3.59399304e+02 -1.25567162e-04  4.59157257e+04],109,994.7194463112293
655,655,[-1.90988672e+03  3.59399311e+02 -1.16876144e-04  5.37451041e+04],920,994.421272063766
656,656,[-1.81709255e+03  3.59399309e+02 -1.15792711e-04  5.66704889e+04],306,994.4706566033957
657,657,[-1.81544749e+03  3.59399304e+02 -1.35992858e-04  4.68565306e+04],953,996.9567866576962
658,658,[-1.89345883e+03  3.59399302e+02 -1.14932270e-04  4.09948732e+04],966,999.5643647021672
659,659,[-1.43212309e+03  3.59399313e+02 -1.44983477e-04  1.07372613e+05],308,996.1448707999489
660,660,[-1.59322447e+03  3.59399290e+02 -1.33322455e-04  6.88007911e+04],811,998.5658218547799
661,661,[-1.74033639e+03  3.59399313e+02 -1.22243594e-04  6.50781497e+04],832,999.3744049279782
662,662,[-1.76934194e+03  3.59399316e+02 -1.20464664e-04  7.66260868e+04],642,1000.3077223135663
663,663,[-1.57849532e+03  3.59399297e+02 -1.28417283e-04  5.72300761e+04],817,998.0896618902699
664,664,[-1.61490950e+03  3.59399074e+02 -1.35426273e-04  2.44911748e+05],531,997.4165643512528
665,665,[-1.67632454e+03  3.59399323e+02 -1.26871601e-04  1.20790036e+05],289,999.6366524518304
666,666,[-1.67348956e+03  3.59399302e+02 -1.33437244e-04  4.96203059e+04],344,998.3414001272174
667,667,[-1.59649433e+03  3.59399299e+02 -1.27806371e-04  5.43119820e+04],868,999.5608557161182
668,668,[-1.60930636e+03  3.59399300e+02 -1.46693230e-04  5.34821228e+04],979,997.6184013888857
669,669,[-1.81718159e+03  3.59399424e+02 -1.27325278e-04  1.94242819e+05],368,999.4471952085353
670,670,[-1.86614865e+03  3.59399303e+02 -1.18262106e-04  3.60162782e+04],141,1000.4204416052385
671,671,[-2.36920608e+03  3.59399332e+02 -1.36989044e-04  4.28779760e-02],373,1000.4684276263555
672,672,[-1.61097868e+03  3.59399312e+02 -1.19498256e-04  6.89690827e+04],743,999.4213507267312
673,673,[-1.72820026e+03  3.59399298e+02 -1.33368008e-04  4.29412494e+04],341,999.3912534593348
674,674,[-1.84180530e+03  3.59399313e+02 -1.19797038e-04  7.86518111e+04],136,999.7807589253915
675,675,[-1.90350917e+03  3.59399307e+02 -1.14400413e-04  4.02398318e+04],645,1000.7937788800934
676,676,[-1.82266133e+03  3.59399312e+02 -1.17149612e-04  6.13895798e+04],437,1000.7975949339024
677,677,[-1.39382879e+03  3.59399301e+02 -1.11248022e-04  6.25118644e+04],668,996.7371095559284
678,678,[-1.72632426e+03  3.59399320e+02 -1.24989608e-04  9.88994741e+04],875,999.340789739269
679,679,[-1.87703060e+03  3.59399304e+02 -1.16778290e-04  4.48242331e+04],542,999.8800777978036
680,680,[-1.99191300e+03  3.59399306e+02 -1.15346364e-04  4.42557072e+04],302,999.6121314973582
681,681,[-1.83807001e+03  3.59399303e+02 -1.19067488e-04  4.63390104e+04],54,1000.5797345551542
682,682,[-1.62455805e+03  3.59399275e+02 -1.27966565e-04  3.11083461e+04],820,999.6491095156828
683,683,[-2.33251813e+03  3.59399332e+02 -1.64029076e-04  4.18755377e-02],519,998.651835346027
684,684,[-1.97864972e+03  3.59399309e+02 -1.21699588e-04  6.58930682e+04],296,999.6322708683095
685,685,[-2.04974349e+03  3.59399307e+02 -1.07707790e-04  4.14663703e+04],116,997.9831878469968
686,686,[-1.89598913e+03  3.59399310e+02 -1.14409499e-04  4.77807125e+04],972,999.862189152144
687,687,[-1.77093042e+03  3.59399302e+02 -1.20449918e-04  4.82864013e+04],836,999.5120770833871
688,688,[-1.74398441e+03  3.59399313e+02 -1.33235826e-04  1.01476987e+05],298,999.5299160242838
689,689,[-1.90394216e+03  3.59399307e+02 -1.12125741e-04  3.99362434e+04],815,999.4750099448123
690,690,[-1.95470801e+03  3.59399306e+02 -1.10503576e-04  4.10709245e+04],963,999.6501425455472
691,691,[-1.83988396e+03  3.59399320e+02 -1.15365468e-04  8.85557531e+04],51,1000.0803484519704
692,692,[-1.77337757e+03  3.59399303e+02 -1.20519184e-04  4.84466925e+04],861,999.1220162925152
693,693,[-1.73287271e+03  3.59399422e+02 -1.33975994e-04  2.61926934e+05],452,1000.4157647684553
694,694,[-1.85312020e+03  3.59399315e+02 -1.15364982e-04  6.18385042e+04],664,1000.3550970994818
695,695,[-1.91074737e+03  3.59399306e+02 -1.16331073e-04  4.54576525e+04],92,999.901760048801
696,696,[-1.76196177e+03  3.59399309e+02 -1.26357831e-04  5.75838673e+04],518,999.7597560553722
697,697,[-1.88916233e+03  3.59399306e+02 -1.18218314e-04  4.23523480e+04],549,1000.0664195895725
698,698,[-2.12796528e+03  3.59399306e+02 -1.15467580e-04  5.42263140e+04],652,999.0719414810563
699,699,[-2.29021976e+03  3.59399306e+02 -1.06135342e-04  4.30862546e+04],740,994.9894608639931
700,700,[-2.03118451e+03  3.59399315e+02 -1.16883483e-04  6.56269244e+04],607,999.8057667717054
701,701,[-2.07664702e+03  3.59399304e+02 -1.14136788e-04  4.79156545e+04],295,1000.4937084516978
702,702,[-1.98301745e+03  3.59399299e+02 -1.11427674e-04  5.26046569e+04],734,1000.3637398218207
703,703,[-2.01817831e+03  3.59399306e+02 -1.18447126e-04  5.91215287e+04],299,999.1089885728701
704,704,[-1.93176201e+03  3.59399302e+02 -1.18938292e-04  5.04563361e+04],885,1000.385937843586
705,705,[-2.09455480e+03  3.59399306e+02 -1.16854356e-04  4.33008767e+04],455,1000.21510614284
706,706,[-2.11069747e+03  3.59399306e+02 -1.09561739e-04  4.39802737e+04],68,998.624207910928
707,707,[-1.97237504e+03  3.59399298e+02 -1.18229657e-04  5.47841967e+04],560,999.7865554912507
708,708,[-2.09124941e+03  3.59399306e+02 -1.22403451e-04  4.37625055e+04],876,999.9216315559416
709,709,[-1.99540043e+03  3.59399304e+02 -1.19280610e-04  4.61535103e+04],489,1000.5228610595238
710,710,[-2.09211533e+03  3.59399323e+02 -1.17616098e-04  9.78605783e+04],367,1000.5887868899835
711,711,[-2.12186083e+03  3.59399306e+02 -1.10631763e-04  4.44128497e+04],43,998.6241297602983
712,712,[-1.89466713e+03  3.59399297e+02 -1.25351055e-04  5.68611145e+04],398,1000.4380184842621
713,713,[-1.96339103e+03  3.59399306e+02 -1.20397692e-04  4.12589294e+04],865,1001.2829179898504
714,714,[-2.02742346e+03  3.59399310e+02 -1.15594139e-04  5.66421830e+04],86,1000.8984712969766
715,715,[-1.97610518e+03  3.59399318e+02 -1.13033687e-04  7.28936944e+04],484,1000.1351102099684
716,716,[-1.95291147e+03  3.59399310e+02 -1.22723959e-04  5.66545176e+04],1003,999.8512088896487
717,717,[-1.88919241e+03  3.59399311e+02 -1.19288231e-04  6.61145646e+04],814,1000.8328405317237
718,718,[-1.90762532e+03  3.59399316e+02 -1.18620983e-04  7.83718187e+04],605,1001.3500652510127
719,719,[-1.94753771e+03  3.59399306e+02 -1.17367697e-04  4.38012531e+04],501,1001.0849737076014
720,720,[-1.82643411e+03  3.59399299e+02 -1.26151845e-04  5.58910452e+04],821,1000.1860658513717
721,721,[-1.90263237e+03  3.59399302e+02 -1.23238401e-04  5.20477063e+04],793,1000.5984184528954
722,722,[-2.05455505e+03  3.59399308e+02 -1.16270172e-04  4.91649585e+04],194,999.9863641213802
723,723,[-2.03816200e+03  3.59399304e+02 -1.14045057e-04  4.81042134e+04],856,1000.3081620417921
724,724,[-1.87194706e+03  3.59399324e+02 -1.17038468e-04  1.05538389e+05],85,1000.1592981262586
725,725,[-1.65027909e+03  3.59399314e+02 -1.14778115e-04  6.09784758e+04],538,1000.1520857195466
726,726,[-1.83973254e+03  3.59399307e+02 -1.14147028e-04  4.15278459e+04],829,999.9525677612424
727,727,[-1.95477612e+03  3.59399306e+02 -1.19189771e-04  4.43556634e+04],776,994.8014237002319
728,728,[-1.90486613e+03  3.59399304e+02 -1.32823385e-04  4.94670892e+04],372,990.3062677043474
729,729,[-1.85743897e+03  3.59399304e+02 -1.34239321e-04  6.66307753e+04],871,996.7116223581775
730,730,[-2.00436080e+03  3.59399306e+02 -1.13694109e-04  4.50140763e+04],657,996.3735967868545
731,731,[-2.34186510e+03  3.59399324e+02 -9.82619399e-05  8.84946685e+04],898,992.4882899588943
732,732,[-1.84338977e+03  3.59399304e+02 -1.20069801e-04  4.76221008e+04],281,1000.3403187067838
733,733,[-1.86698040e+03  3.59399312e+02 -1.19918573e-04  5.78932886e+04],97,998.0678466877218
734,734,[-1.89619188e+03  3.59399314e+02 -1.34466173e-04  1.64036354e+05],787,997.3116451925964
735,735,[-1.92310432e+03  3.59399310e+02 -1.17741211e-04  5.25747462e+04],965,999.905555210112
736,736,[-1.74420880e+03  3.59399317e+02 -1.22116318e-04  7.44223306e+04],276,999.1278689254733
737,737,[-1.60867921e+03  3.59399307e+02 -1.25997388e-04  6.68118801e+04],369,992.7252468999732
738,738,[-1.88627350e+03  3.59399289e+02 -1.47382844e-04  7.09445699e+04],493,986.744839684315
739,739,[-1.83809551e+03  3.59399390e+02 -1.10060566e-04  2.04544638e+05],582,996.5049755596687
740,740,[-1.90805987e+03  3.59399308e+02 -1.25931363e-04  4.90538227e+04],571,997.375870548759
741,741,[-1.93019683e+03  3.59399311e+02 -1.06269241e-04  6.03351701e+04],650,991.1123665594187
742,742,[-1.74847226e+03  3.59399227e+02 -1.25134546e-04  5.69842586e+04],407,995.4574988199822
743,743,[-1.90591276e+03  3.59399325e+02 -1.08958662e-04  1.30987936e+05],646,997.634864878144
744,744,[-1.89557136e+03  3.59399311e+02 -1.33093222e-04  6.23797221e+04],303,996.6206336374584
745,745,[-1.83751127e+03  3.59399322e+02 -1.07294670e-04  9.74318883e+04],602,989.1759543594028
746,746,[-1.75419002e+03  3.59399302e+02 -1.40901112e-04  9.94025747e+04],411,994.5902406691209
747,747,[-2.22048326e+03  3.59399312e+02 -1.16299447e-04  5.41704610e+04],747,996.7414862604779
748,748,[-2.31866896e+03  3.59399324e+02 -9.89358612e-05  9.00676703e+04],878,993.1396573100782
749,749,[-1.83776029e+03  3.59399324e+02 -1.14817270e-04  1.29109428e+05],677,999.848938811282
750,750,[-1.93143347e+03  3.59399309e+02 -1.21119898e-04  6.72962398e+04],995,999.5601319829063
751,751,[-2.03397047e+03  3.59399313e+02 -1.17158567e-04  5.04868219e+04],619,1001.1283158505983
752,752,[-1.86417570e+03  3.59399305e+02 -1.09975307e-04  4.45981297e+04],729,1000.5918784737701
753,753,[-1.75681704e+03  3.59399294e+02 -1.28281581e-04  9.95091077e+04],534,999.7498911314553
754,754,[-1.89161057e+03  3.59399304e+02 -1.19350341e-04  4.88474164e+04],964,1000.9448948777568
755,755,[-1.92821885e+03  3.59399307e+02 -1.15820702e-04  5.65522456e+04],340,1000.8941234888359
756,756,[-1.91848300e+03  3.59399304e+02 -1.11036675e-04  4.81667825e+04],198,1000.3968908853584
757,757,[-1.79928617e+03  3.59399313e+02 -1.10045273e-04  8.05987359e+04],143,999.3316445187553
758,758,[-1.81421636e+03  3.59399304e+02 -1.16335982e-04  4.68606997e+04],635,1000.7891466412581
759,759,[-1.98684506e+03  3.59399307e+02 -1.13436838e-04  4.76079926e+04],744,1000.5479128396996
760,760,[-1.97028645e+03  3.59399307e+02 -1.14409065e-04  4.33179414e+04],998,1000.122382344599
761,761,[-1.84094948e+03  3.59399300e+02 -1.24425144e-04  5.46326027e+04],94,999.8107798466882
762,762,[-1.83975784e+03  3.59399301e+02 -1.28952958e-04  5.55650824e+04],311,999.9004395642902
763,763,[-1.90665075e+03  3.59399306e+02 -1.15295536e-04  4.48527817e+04],283,999.6423948281405
764,764,[-1.87945781e+03  3.59399306e+02 -1.14131934e-04  4.33624550e+04],985,1000.4869087914882
765,765,[-1.95280856e+03  3.59399296e+02 -1.25665693e-04  5.95356601e+04],497,1000.0109313623639
766,766,[-1.85105507e+03  3.59399316e+02 -1.29496509e-04  7.96252221e+04],579,1000.387683843607
767,767,[-1.95926808e+03  3.59399306e+02 -1.11491128e-04  4.38277249e+04],170,1000.1434993772889
768,768,[-1.91153852e+03  3.59399305e+02 -1.15404295e-04  4.64482863e+04],496,999.4486582712739
769,769,[-1.92302409e+03  3.59399309e+02 -1.21194254e-04  6.24672731e+04],739,1000.94422344709
770,770,[-2.05101801e+03  3.59399303e+02 -1.12268138e-04  4.37071179e+04],379,1000.0357675978091
771,771,[-2.21875008e+03  3.59399309e+02 -1.02676827e-04  4.02461018e+04],994,995.6401206220715
772,772,[-1.91890996e+03  3.59399294e+02 -1.17305586e-04  7.77514372e+04],788,999.5830363383772
773,773,[-1.87293029e+03  3.59399310e+02 -1.27896897e-04  6.96187298e+04],780,1000.9735151981048
774,774,[-2.07359233e+03  3.59399305e+02 -1.14557147e-04  4.69521582e+04],142,999.9133798093933
775,775,[-1.83275997e+03  3.59399319e+02 -1.12115206e-04  1.35219444e+05],857,997.926490822625
776,776,[-1.88979865e+03  3.59399301e+02 -1.31927670e-04  7.01371509e+04],801,996.9915594358683
777,777,[-1.86339394e+03  3.59399304e+02 -1.23392108e-04  4.87590908e+04],206,996.1942927992233
778,778,[-1.87829166e+03  3.59399313e+02 -1.05580659e-04  5.95316382e+04],730,992.1406588523771
779,779,[-1.93366372e+03  3.59399326e+02 -1.43309180e-04  4.21300612e+05],869,988.3809949760547
780,780,[-1.69718864e+03  3.59399310e+02 -1.02542659e-04  4.39790071e+04],794,996.4890036797384
781,781,[-2.12857184e+03  3.59399279e+02 -1.27912500e-04  1.55395947e+05],529,991.541393989032
782,782,[-1.92159134e+03  3.59399300e+02 -1.03643794e-04  2.86426600e+04],222,991.0282623764847
783,783,[-1.77085483e+03  3.59399322e+02 -1.37659327e-04  9.81701233e+04],586,993.1455454816196
784,784,[-1.86802247e+03  3.59399305e+02 -1.02995349e-04  4.55452368e+04],277,988.8942117128521
785,785,[-1.93602349e+03  3.59399394e+02 -1.40833956e-04  2.22922700e+05],512,989.9231291881629
786,786,[-1.81387466e+03  3.59399311e+02 -1.03798253e-04  5.86428154e+04],959,993.5492776220059
787,787,[-1.85765858e+03  3.59399318e+02 -1.30981593e-04  1.06098520e+05],292,996.904065134855
788,788,[-2.00798091e+03  3.59399309e+02 -1.21347913e-04  4.03065907e+04],800,996.4943048486853
789,789,[-1.76761550e+03  3.59399323e+02 -1.04241574e-04  8.38906894e+04],377,991.5892961938815
790,790,[-1.96488626e+03  3.59399266e+02 -1.36919584e-04  9.96548641e+04],962,993.3274307530761
791,791,[-1.42149191e+03  3.59399299e+02 -1.14102161e-04  5.74376282e+04],777,985.562734274445
792,792,[-1.82739223e+03  3.59399187e+02 -1.53724445e-04  1.60009532e+05],886,990.97167397139
793,793,[-1.87772360e+03  3.59399307e+02 -1.14720200e-04  4.28873214e+04],823,997.0318368902841
794,794,[-1.80839279e+03  3.59399305e+02 -1.09511791e-04  4.60322240e+04],810,996.3399954013652
795,795,[-1.55222013e+03  3.59399320e+02 -1.44042862e-04  2.09845380e+05],659,992.9152069584303
796,796,[-1.63363001e+03  3.59399321e+02 -1.15825947e-04  1.17967580e+05],453,994.7508736112477
797,797,[-1.99411649e+03  3.59399304e+02 -1.24784215e-04  5.01693132e+04],818,990.7784055721102
798,798,[-1.98811461e+03  3.59399310e+02 -1.06548853e-04  5.59685842e+04],639,993.1901648982495
799,799,[-1.44451784e+03  3.59399254e+02 -1.67992936e-04  1.09197593e+05],146,988.8664773724703
800,800,[-1.83549504e+03  3.59399312e+02 -1.32983379e-04  6.67142285e+04],1004,996.234289589541
801,801,[-1.75862425e+03  3.59399316e+02 -1.14573567e-04  6.20436552e+04],587,996.4272028193857
802,802,[-1.86889423e+03  3.59399308e+02 -1.32126153e-04  7.37541500e+04],539,990.2191051706159
803,803,[-1.84582879e+03  3.59399322e+02 -1.01316223e-04  1.04250296e+05],129,987.788671259112
804,804,[-1.76501605e+03  3.59399255e+02 -1.44868860e-04  1.15969508e+05],573,988.7100723913052
805,805,[-1.97754087e+03  3.59399311e+02 -1.04500270e-04  4.30069361e+04],653,995.708598715763
806,806,[-1.83827325e+03  3.59399314e+02 -1.30840163e-04  5.64164754e+04],859,995.5720734400745
807,807,[-1.91795120e+03  3.59399307e+02 -1.07095695e-04  5.94340229e+04],578,990.7250743671788
808,808,[-2.03753104e+03  3.59399313e+02 -1.28426102e-04  6.32052249e+04],805,990.2285053954793
809,809,[-1.91034632e+03  3.59399516e+02 -1.07379774e-04  7.15989443e+05],157,995.2309544686133
810,810,[-1.71315221e+03  3.59399315e+02 -1.43111952e-04  9.64686399e+04],771,996.1463020511088
811,811,[-1.84734559e+03  3.59399656e+02 -1.26506592e-04  5.16532097e+05],954,997.759237251933
812,812,[-1.80483293e+03  3.59399304e+02 -1.11797683e-04  4.87475085e+04],806,998.4030277964243
813,813,[-1.81209966e+03  3.59399317e+02 -1.29476278e-04  9.78785639e+04],990,995.4478886681202
814,814,[-1.95263425e+03  3.59399323e+02 -1.08573362e-04  9.13392763e+04],133,997.0793964331878
815,815,[-1.82153281e+03  3.59399395e+02 -1.21669167e-04  2.28074448e+05],82,997.451850275723
816,816,[-1.95344603e+03  3.59399309e+02 -1.10150029e-04  3.65224628e+04],636,998.7730972977619
817,817,[-1.54889742e+03  3.59399303e+02 -1.32847220e-04  5.28480555e+04],347,997.7526206852882
818,818,[-1.68653333e+03  3.59399304e+02 -1.30970524e-04  6.64998854e+04],451,996.0649897317109
819,819,[-1.91771242e+03  3.59399308e+02 -1.11051568e-04  4.19097871e+04],742,998.4864683530205
820,820,[-1.76026830e+03  3.59399309e+02 -1.17843214e-04  5.55779361e+04],984,997.5616159843793
821,821,[-1.68984787e+03  3.59399323e+02 -1.26705309e-04  1.14650944e+05],813,997.0374848352569
822,822,[-1.70165722e+03  3.59399306e+02 -1.39821386e-04  4.93772213e+04],440,994.4491021122407
823,823,[-1.81740306e+03  3.59399315e+02 -1.29380446e-04  5.80886943e+04],899,996.1923968284347
824,824,[-1.68164269e+03  3.59399496e+02 -1.30044833e-04  5.29520854e+05],474,991.7866083184863
825,825,[-1.87377463e+03  3.59399303e+02 -1.33977143e-04  5.16435236e+04],491,990.2851605973134
826,826,[-2.01984800e+03  3.59399306e+02 -1.04855830e-04  4.77154510e+04],809,989.5643400840033
827,827,[-1.74870276e+03  3.59399324e+02 -1.42092359e-04  2.44188375e+05],342,985.3049080967261
828,828,[-2.25526328e+03  3.59399315e+02 -9.88843374e-05  4.85698178e+04],927,992.7002419095056
829,829,[-1.65715650e+03  3.59399294e+02 -1.36674731e-04  1.07108588e+05],241,997.0054049232998
830,830,[-1.92246725e+03  3.59399307e+02 -1.22223080e-04  4.36762940e+04],858,1000.8928951935953
831,831,[-1.99505877e+03  3.59399308e+02 -1.13223501e-04  4.57896694e+04],651,999.8974572891834
832,832,[-2.12644808e+03  3.59399307e+02 -1.05578430e-04  4.72773925e+04],891,997.7570661391694
833,833,[-1.85989157e+03  3.59399406e+02 -1.59263825e-04  2.52185044e+05],345,998.293062045418
834,834,[-1.56308491e+03  3.59399273e+02 -1.47202345e-04  4.93423764e+05],475,995.0655477033598
835,835,[-1.81794899e+03  3.59399005e+02 -1.52380216e-04  1.76431643e+05],835,995.1378793512978
836,836,[-1.82317696e+03  3.59399305e+02 -1.20211472e-04  4.95990836e+04],537,997.4899761837463
837,837,[-1.98515264e+03  3.59399310e+02 -1.09265599e-04  5.11500664e+04],996,999.2180826304838
838,838,[-1.90455258e+03  3.59399305e+02 -1.14336366e-04  4.94235762e+04],834,1000.2699435124152
839,839,[-1.80889003e+03  3.59399308e+02 -1.24470896e-04  6.24175991e+04],699,999.6302391310675
840,840,[-1.79483650e+03  3.59399320e+02 -1.24102153e-04  1.34831776e+05],897,998.662640057006
841,841,[-1.98114878e+03  3.59399310e+02 -1.21023016e-04  5.89543611e+04],640,1000.0138656532179
842,842,[-1.91573206e+03  3.59399378e+02 -1.08966637e-04  5.92966069e+05],727,1000.5156762448383
843,843,[-1.86182297e+03  3.59399317e+02 -1.23182607e-04  1.03904261e+05],502,998.1245906690407
844,844,[-1.66021284e+03  3.59399288e+02 -1.40767264e-04  7.21556172e+04],796,998.1708830915005
845,845,[-1.85379248e+03  3.59399302e+02 -1.21111490e-04  5.55409526e+04],131,1000.8542606409471
846,846,[-2.07107762e+03  3.59399312e+02 -1.18937303e-04  6.33541019e+04],654,1000.6735178351723
847,847,[-1.82177956e+03  3.59399307e+02 -1.13663076e-04  4.65867266e+04],981,999.0794804432643
848,848,[-1.67302256e+03  3.59399305e+02 -1.15893684e-04  4.92975920e+04],888,998.5033628816536
849,849,[-1.89508436e+03  3.59399317e+02 -1.15361470e-04  3.48147311e+04],590,999.3626797984477
850,850,[-1.53197715e+03  3.59399301e+02 -1.39931374e-04  5.72716311e+04],89,993.9801411336579
851,851,[-1.39442056e+03  3.59399266e+02 -1.41121622e-04  9.55076468e+04],746,986.4510713955074
852,852,[-1.54888082e+03  3.59399259e+02 -1.47278638e-04  1.09224630e+05],93,990.1067542296676
853,853,[-1.86700281e+03  3.59399306e+02 -1.11257283e-04  4.80353297e+04],80,999.7994795874587
854,854,[-1.84503262e+03  3.59399315e+02 -1.18517621e-04  7.02566484e+04],656,999.3021571774009
855,855,[-1.72168404e+03  3.59399312e+02 -1.20108276e-04  5.95789343e+04],147,998.447495540928
856,856,[-1.50829826e+03  3.59399278e+02 -1.38843300e-04  3.57468788e+04],822,997.0257698993984
857,857,[-1.66275208e+03  3.59399319e+02 -1.31429286e-04  9.26447249e+04],892,996.4615997966246
858,858,[-1.96223111e+03  3.59399300e+02 -1.25386156e-04  7.62681388e+04],655,995.1810570074169
859,859,[-2.14387416e+03  3.59399300e+02 -1.03291691e-04  2.52094964e+05],922,995.8117401366086
860,860,[-1.74152228e+03  3.59399309e+02 -1.27394283e-04  5.26489241e+04],1000,999.4786045495155
861,861,[-1.64040462e+03  3.59399321e+02 -1.24778983e-04  1.24668264e+05],371,997.425046071932
862,862,[-1.57607552e+03  3.59399298e+02 -1.21525827e-04  1.00589461e+05],572,989.042463390907
863,863,[-1.77812594e+03  3.59399313e+02 -1.35083556e-04  7.23673450e+04],399,992.6003665469615
864,864,[-2.25607210e+03  3.59399271e+02 -1.11567726e-04  3.55814590e+04],285,994.2176806330314
865,865,[-2.17324350e+03  3.59399244e+02 -1.10773174e-04  1.65995396e+05],150,997.1738781307412
866,866,[-1.97474378e+03  3.59399307e+02 -1.20439092e-04  4.19515496e+04],132,999.6176201319907
867,867,[-1.86840627e+03  3.59399304e+02 -1.15950064e-04  5.11886136e+04],864,1000.9139180988223
868,868,[-1.66904245e+03  3.59399312e+02 -1.26110086e-04  2.13800400e+05],383,997.6885066659629
869,869,[-1.81083330e+03  3.59399312e+02 -1.38359073e-04  1.16985749e+05],433,996.357291525733
870,870,[-2.07028558e+03  3.59399316e+02 -1.08770364e-04  8.36071490e+04],850,998.8103619533784
871,871,[-1.94941253e+03  3.59398555e+02 -1.44387510e-04  2.05423002e+05],641,996.9699438139816
872,872,[-2.01022020e+03  3.59399313e+02 -1.15270780e-04  4.26858148e+04],408,1000.0807470103147
873,873,[-1.83578918e+03  3.59399309e+02 -1.20073748e-04  4.53740693e+04],448,1000.3768598515945
874,874,[-1.86369553e+03  3.59399311e+02 -1.27277802e-04  7.60503438e+04],648,999.0213863016052
875,875,[-1.81096152e+03  3.59399299e+02 -1.26920773e-04  6.27562868e+04],442,997.6038605166643
876,876,[-1.88349978e+03  3.59399320e+02 -1.32495613e-04  1.22670145e+05],485,997.218504823391
877,877,[-1.93446748e+03  3.59399307e+02 -1.26870611e-04  7.50641337e+04],577,990.9486318253463
878,878,[-2.12565175e+03  3.59399308e+02 -1.02243320e-04  4.43779164e+04],924,996.7379523923912
879,879,[-2.07911921e+03  3.59399310e+02 -1.10786169e-04  4.73777451e+04],434,998.8093843020459
880,880,[-1.98062103e+03  3.59399307e+02 -1.09516357e-04  4.65032969e+04],997,999.5312933173758
881,881,[-1.99597615e+03  3.59399304e+02 -1.14131542e-04  5.18112031e+04],128,998.1724512977778
882,882,[-2.06023810e+03  3.59399313e+02 -1.18986296e-04  1.09481559e+05],786,999.8622990902976
883,883,[-2.00407088e+03  3.59399304e+02 -1.15513075e-04  5.18856379e+04],374,998.1647273038491
884,884,[-1.97706383e+03  3.59399305e+02 -1.16480055e-04  5.11708353e+04],488,1000.7986159432072
885,885,[-2.14173509e+03  3.59399233e+02 -1.12483178e-04  1.11458666e+05],647,997.2687789672552
886,886,[-2.19802986e+03  3.59399321e+02 -1.02657888e-04  1.01207589e+05],486,996.1941223687841
887,887,[-1.76532850e+03  3.59399306e+02 -1.09909048e-04  4.69376621e+04],790,998.6048536638087
888,888,[-2.03113467e+03  3.59399315e+02 -1.22307550e-04  8.35651417e+04],384,994.6909317202986
889,889,[-1.85635824e+03  3.59399319e+02 -1.13149647e-04  1.02980191e+05],137,993.0528833098219
890,890,[-1.65637000e+03  3.59399302e+02 -1.43804631e-04  5.73045207e+04],279,991.7668906540471
891,891,[-1.69440728e+03  3.59399303e+02 -1.35611676e-04  5.59034622e+04],644,995.1774746686066
892,892,[-1.89648483e+03  3.59399313e+02 -1.19591277e-04  5.79249265e+04],583,994.4255462153509
893,893,[-2.41415067e+03  3.59399242e+02 -1.02775878e-04  8.76952449e+04],798,992.5320889932997
894,894,[-1.89171461e+03  3.59399306e+02 -1.24367308e-04  5.16898633e+04],456,1000.8886145557332
895,895,[-1.72123219e+03  3.59399294e+02 -1.26849637e-04  6.62388629e+04],412,1000.45292779673
896,896,[-1.65171679e+03  3.59399318e+02 -1.27800441e-04  1.33725899e+05],923,998.3068645177609
897,897,[-1.75026169e+03  3.59399312e+02 -1.46936270e-04  7.40569138e+04],783,994.9721205915674
898,898,[-1.97144694e+03  3.59399299e+02 -1.24116099e-04  4.84916980e+04],748,996.9486992582326
899,899,[-2.21976548e+03  3.59399282e+02 -1.01940821e-04  1.23194728e+05],414,995.4133708349754
900,900,[-1.84226724e+03  3.59399308e+02 -1.20567537e-04  4.83343273e+04],889,1000.7533552597948
901,901,[-1.79299355e+03  3.59399307e+02 -1.17535869e-04  6.85816257e+04],492,1000.574983781462
902,902,[-1.60472917e+03  3.59399297e+02 -1.35659921e-04  6.65688248e+04],983,998.9027196565085
903,903,[-1.73868081e+03  3.59399300e+02 -1.35964246e-04  7.96531194e+04],287,999.3091681247546
904,904,[-1.87249417e+03  3.59399306e+02 -1.27385570e-04  5.05170462e+04],795,998.6538018295004
905,905,[-2.04706561e+03  3.59399324e+02 -1.11112281e-04  1.00474576e+05],435,999.0559998643934
906,906,[-1.92247707e+03  3.59399306e+02 -1.13619606e-04  4.70868377e+04],737,999.4547094651535
907,907,[-1.83588833e+03  3.59399301e+02 -1.25186560e-04  5.89639707e+04],999,1000.0501869652984
908,908,[-1.68975148e+03  3.59399305e+02 -1.23147538e-04  5.10741956e+04],828,992.4737893821363
909,909,[-1.79928106e+03  3.59399297e+02 -1.40444426e-04  6.35936359e+04],381,990.1371005111222
910,910,[-1.62947307e+03  3.59399302e+02 -1.21399690e-04  5.75341060e+04],863,986.4547012842708
911,911,[-2.01719216e+03  3.59399484e+02 -1.35097824e-04  3.94148947e+05],87,988.6830703154548
912,912,[-2.33908857e+03  3.59399283e+02 -1.03334038e-04  8.54725538e+04],446,989.5097570180054
913,913,[-1.72924002e+03  3.59399307e+02 -1.10197237e-04  4.77195175e+04],893,998.7020465820101
914,914,[-1.89699480e+03  3.59399304e+02 -1.31728958e-04  1.23711512e+05],632,998.2741948261736
915,915,[-1.78096413e+03  3.59399301e+02 -1.30178446e-04  5.98913898e+04],731,998.4960269508158
916,916,[-1.80514446e+03  3.59399296e+02 -1.26442989e-04  9.25476310e+04],908,999.8857408303234
917,917,[-1.89482209e+03  3.59399308e+02 -1.11915724e-04  4.34686895e+04],921,999.5083996827493
918,918,[-1.82129602e+03  3.59399313e+02 -1.12227199e-04  7.46069158e+04],278,1000.910883199491
919,919,[-1.88391009e+03  3.59399310e+02 -1.20022630e-04  6.72822435e+04],988,999.9829346395563
920,920,[-1.79157700e+03  3.59399307e+02 -1.20923951e-04  6.93005260e+04],576,997.7944843071357
921,921,[-1.56207649e+03  3.59399282e+02 -1.48886573e-04  8.63310218e+04],145,992.3959996491934
922,922,[-1.71061276e+03  3.59399291e+02 -1.42596812e-04  9.45290446e+04],135,994.4204366148258
923,923,[-1.91058194e+03  3.59399304e+02 -1.19408783e-04  5.44634133e+04],778,993.1580375368568
924,924,[-2.32376790e+03  3.59399306e+02 -1.03844704e-04  3.73623271e+04],144,993.6003215682628
925,925,[-1.96708119e+03  3.59399307e+02 -1.23472353e-04  5.04392689e+04],532,999.8363350996118
926,926,[-1.75023360e+03  3.59399304e+02 -1.31089900e-04  5.48929078e+04],83,998.6321465219686
927,927,[-1.37774517e+03  3.59399279e+02 -1.42342945e-04  8.64930376e+04],349,995.2086422339922
928,928,[-1.67570725e+03  3.59399301e+02 -1.31402856e-04  6.02400504e+04],444,998.6834093504409
929,929,[-1.72347933e+03  3.59399317e+02 -1.27377911e-04  9.76103253e+04],585,1000.8047583132549
930,930,[-1.87442573e+03  3.59399305e+02 -1.17948144e-04  5.23344501e+04],138,1000.7743722619847
931,931,[-1.69614031e+03  3.59399313e+02 -1.31775478e-04  1.11197421e+05],824,998.3112633671849
932,932,[-1.85903694e+03  3.59399307e+02 -1.34924699e-04  4.71283761e+04],438,999.6973405901676
933,933,[-1.77189884e+03  3.59399313e+02 -1.14899644e-04  5.13131864e+04],890,1000.1260907178001
934,934,[-2.12377083e+03  3.59399309e+02 -1.15279720e-04  4.58176014e+04],346,999.43835706042
935,935,[-1.77851419e+03  3.59399309e+02 -1.21487892e-04  4.74652150e+04],343,999.4837910927638
936,936,[-1.80255352e+03  3.59399300e+02 -1.29327257e-04  6.17307642e+04],789,998.9348589807016
937,937,[-1.82888135e+03  3.59399317e+02 -1.31306960e-04  1.07908065e+05],781,998.829723985431
938,938,[-1.96293303e+03  3.59399308e+02 -1.17061924e-04  4.47282612e+04],140,1001.0167278969324
939,939,[-1.97053132e+03  3.59399303e+02 -1.14264820e-04  4.72933346e+04],148,1000.3857327547468
940,940,[-1.85865689e+03  3.59399316e+02 -1.26526064e-04  1.09717979e+05],88,1000.0420938503585
941,941,[-1.74763971e+03  3.59399303e+02 -1.31167013e-04  5.66414781e+04],454,1000.31020907553
942,942,[-1.84580142e+03  3.59399300e+02 -1.24780851e-04  6.26782284e+04],284,1000.3155004533546
943,943,[-1.92747506e+03  3.59399313e+02 -1.17342973e-04  5.20440957e+04],380,999.9576163848928
944,944,[-1.71722710e+03  3.59399301e+02 -1.26532117e-04  5.90490653e+04],98,999.2766815753321
945,945,[-1.77070141e+03  3.59399316e+02 -1.34827320e-04  8.82375467e+04],375,1000.1167668822171
946,946,[-1.87241668e+03  3.59399308e+02 -1.16469832e-04  4.81461611e+04],741,1001.0185052529275
947,947,[-1.89535805e+03  3.59399322e+02 -1.20419944e-04  1.13957194e+05],643,1000.7263624219004
948,948,[-1.82935802e+03  3.59399317e+02 -1.22908140e-04  9.17582390e+04],782,999.5149646461127
949,949,[-3.71551584e+03  3.59399303e+02 -9.75800809e-05  3.61600412e+04],139,945.9673249558574
950,950,[-2.07801900e+03  3.59399312e+02 -1.16100057e-04  6.72906605e+04],792,998.9375647320588
951,951,[-2.06157973e+03  3.59399305e+02 -1.15396688e-04  5.43894378e+04],877,999.6524649153049
952,952,[-1.86076728e+03  3.59399324e+02 -1.19520578e-04  1.56662361e+05],445,999.9896692990702
953,953,[-1.75186196e+03  3.59399290e+02 -1.37485078e-04  7.46652302e+04],982,997.7688505592461
954,954,[-1.91487968e+03  3.59399313e+02 -1.32612241e-04  6.62152495e+04],588,995.602091418847
955,955,[-1.95145152e+03  3.59399370e+02 -1.12596008e-04  6.13078511e+05],797,1000.7025785323937
956,956,[-1.92401576e+03  3.59399304e+02 -1.23439619e-04  5.40224898e+04],807,1000.9534329406717
957,957,[-1.95755181e+03  3.59399323e+02 -1.14831590e-04  6.21627099e+05],989,999.4263208298415
958,958,[-1.89330375e+03  3.59399301e+02 -1.19267168e-04  5.39928653e+04],441,999.7532859586051
959,959,[-1.50512093e+03  3.59399296e+02 -1.29740999e-04  4.27837109e+04],149,996.2507598821823
960,960,[-1.69341085e+03  3.59399293e+02 -1.45604617e-04  7.06341516e+04],376,997.880275166922
961,961,[-1.94920550e+03  3.59399307e+02 -1.16523307e-04  4.97477700e+04],986,1000.261645725444
962,962,[-1.86327765e+03  3.59399317e+02 -1.42279675e-04  9.82824013e+04],728,996.1984828395475
963,963,[-1.77493065e+03  3.59399280e+02 -1.45395207e-04  9.06964924e+04],987,997.4509310108065
964,964,[-1.94394548e+03  3.59399244e+02 -1.37045100e-04  1.43367605e+05],825,996.6614627561208
965,965,[-2.04631275e+03  3.59399310e+02 -1.07032167e-04  4.07875720e+04],808,996.8946218839832
966,966,[-1.97172427e+03  3.59399330e+02 -1.03303566e-04  4.66585251e+05],802,997.767491888206
967,967,[-1.92873288e+03  3.59399306e+02 -1.14260522e-04  5.22234768e+04],633,1000.3945974445464
968,968,[-1.66288486e+03  3.59399290e+02 -1.24506011e-04  7.82343680e+04],1005,997.9537448760963
969,969,[-1.67752490e+03  3.59399311e+02 -1.35793195e-04  8.16674033e+04],909,999.1163791160366
970,970,[-1.82251000e+03  3.59399308e+02 -1.31885765e-04  5.62993132e+04],852,999.5675163096881
971,971,[-2.86406292e+03  3.59399355e+02 -6.06083023e-05  1.59382789e+04],348,952.8698356581103
972,972,[-1.86448296e+03  3.59399311e+02 -1.03023737e-04  3.70548541e+04],370,997.526955996369
973,973,[-1.95794495e+03  3.59399308e+02 -1.23789702e-04  4.53677410e+04],785,999.0665004187213
974,974,[-1.76206950e+03  3.59399323e+02 -1.28757369e-04  1.11523430e+05],487,1000.2237517563643
975,975,[-1.80892986e+03  3.59399311e+02 -1.25832298e-04  1.04865427e+05],637,999.9901822037097
976,976,[-1.82673437e+03  3.59399314e+02 -1.37676957e-04  9.01593331e+04],826,999.0478223084461
977,977,[-1.96832796e+03  3.59399305e+02 -1.22500315e-04  4.79802020e+04],912,1000.9642261788423
978,978,[-1.64098395e+03  3.59399464e+02 -1.27454239e-04  5.69752272e+05],589,998.4615793443378
979,979,[-1.76995669e+03  3.59399301e+02 -1.39379104e-04  6.14168984e+04],447,997.6862438063881
980,980,[-1.75067901e+03  3.59399368e+02 -1.28248934e-04  6.64759154e+05],280,998.9898308073476
981,981,[-1.62138221e+03  3.59399312e+02 -1.17636017e-04  7.10872284e+04],745,994.7176459795195
982,982,[-1.92591793e+03  3.59399309e+02 -1.30391454e-04  6.24208105e+04],1001,990.7967288960531
983,983,[-2.00877042e+03  3.59399313e+02 -1.00754462e-04  5.68472357e+04],634,992.9998289896279
984,984,[-1.72525596e+03  3.59399309e+02 -1.26517502e-04  4.59634638e+04],862,995.4563723802015
985,985,[-1.72293005e+03  3.59399312e+02 -1.42001736e-04  7.79973193e+04],784,996.5480984618108
986,986,[-1.40434512e+03  3.59399320e+02 -1.35871869e-04  6.37124695e+04],799,990.3825195420513
987,987,[-1.75580026e+03  3.59399320e+02 -1.38447566e-04  9.60760048e+04],581,990.298468821821
988,988,[-1.71324773e+03  3.59399314e+02 -1.11660974e-04  1.47012164e+05],804,992.2943455287646
989,989,[-1.67035274e+03  3.59399287e+02 -1.66708564e-04  8.09690451e+04],450,990.6475295506405
990,990,[-1.80133260e+03  3.59399312e+02 -1.27276917e-04  8.10177971e+04],911,995.5713437224885
991,991,[-2.00416439e+03  3.59399313e+02 -1.11590900e-04  6.60720603e+04],779,998.1232175746438
992,992,[-1.93989124e+03  3.59399312e+02 -1.18204916e-04  4.73096922e+04],413,999.0676069157727
993,993,[-1.76348534e+03  3.59399303e+02 -1.25220860e-04  5.71101016e+04],134,998.2971952964792
994,994,[-1.62857426e+03  3.59399309e+02 -1.33827339e-04  6.45387613e+04],803,996.4992821670612
995,995,[-1.89335456e+03  3.59399309e+02 -1.15392697e-04  4.42424598e+04],638,996.7326694458799
996,996,[-1.74177318e+03  3.59399308e+02 -1.10460510e-04  5.04779147e+04],738,995.1294046200164
997,997,[-1.69203969e+03  3.59399308e+02 -1.44402361e-04  4.26706482e+05],449,993.5713624120804
998,998,[-1.89110514e+03  3.59399309e+02 -1.17520427e-04  4.27560707e+04],580,996.6078557800207
999,999,[-1.67480946e+03  3.59399304e+02 -1.37632237e-04  5.65554177e+04],910,992.7127810468255
1000,1000,[-1.83823965e+03  3.59399314e+02 -1.17934708e-04  7.12146121e+04],851,994.4090899134889
1001,1001,[-1.85520019e+03  3.59399312e+02 -1.42513025e-04  7.03870561e+04],791,989.1609025023622
1002,1002,[-2.02830026e+03  3.59399311e+02 -1.16946695e-04  7.09722032e+04],827,998.5202602097467
1003,1003,[-1.55886298e+03  3.59399306e+02 -1.34396122e-04  8.53218304e+04],584,997.1071007197359
1004,1004,[-1.50278752e+03  3.59399303e+02 -1.27885933e-04  8.73298194e+04],971,995.9728281558721
1005,1005,[-1.62411982e+03  3.59399286e+02 -1.46722842e-04  1.03104035e+05],949,990.1384156372159
