,0,1,2,3
0,0,[-2.31720956e+03  3.38376449e+02 -2.92142681e-03 -1.31641694e+07],593,782.6580615734134
1,1,[-2.19846859e+03  3.40378609e+02 -2.45917126e-03 -1.31641694e+07],449,781.5381246272617
2,2,[-3.95828384e+03  3.27363788e+02 -9.16360224e-03 -1.31641694e+07],600,782.7826650438541
3,3,[-3.57130929e+03  3.29365978e+02 -6.85722030e-03 -1.31641694e+07],451,785.3205364962657
4,4,[-2.13643348e+03  3.40378433e+02 -2.50782212e-03 -1.31641694e+07],167,787.5118122546363
5,5,[-2.07654579e+03  3.39377151e+02 -2.68744894e-03 -1.31641694e+07],488,788.679071268638
6,6,[-3.10921118e+03  3.30367106e+02 -5.95496079e-03 -1.31641694e+07],503,789.0925766105304
7,7,[-2.74028715e+03  3.32369412e+02 -5.13682206e-03 -1.31641694e+07],340,788.2926947738985
8,8,[-2.20566673e+03  3.39377702e+02 -2.84407535e-03 -1.31641694e+07],489,787.3093606574877
9,9,[-3.42622217e+03  3.28364876e+02 -7.23368816e-03 -1.31641694e+07],168,784.9054524497329
10,10,[-1.90439356e+03  3.42380689e+02 -2.32745709e-03 -1.31641694e+07],19,784.0646556725688
11,11,[-2.09210517e+03  3.40378420e+02 -2.62488707e-03 -1.31641694e+07],751,784.5408631667722
12,12,[-3.16883404e+03  3.29366168e+02 -7.32533932e-03 -1.31641694e+07],333,785.4337698015714
13,13,[-2.22384528e+03  3.37375106e+02 -3.15594311e-03 -1.31641694e+07],516,783.6278775350632
14,14,[-3.25776365e+03  3.30367163e+02 -5.61620227e-03 -1.31641694e+07],598,783.9933206613389
15,15,[-1.71116602e+03  3.44383010e+02 -2.06922451e-03 -1.31641694e+07],363,787.5679925844386
16,16,[-2.07564727e+03  3.40378814e+02 -2.73210547e-03 -1.31641694e+07],769,788.17322164746
17,17,[-3.40667309e+03  3.28364972e+02 -7.05099242e-03 -1.31641694e+07],391,787.0639222026404
18,18,[-2.78584398e+03  3.32369321e+02 -4.90584852e-03 -1.31641694e+07],502,789.7022299987602
19,19,[-2.39309823e+03  3.36374353e+02 -3.36519775e-03 -1.31641694e+07],86,789.8926505787585
20,20,[-2.12275782e+03  3.40378666e+02 -2.58516874e-03 -1.31641694e+07],362,787.6943333930305
21,21,[-1.89462085e+03  3.40378783e+02 -2.49049041e-03 -1.31641694e+07],332,785.7304063250206
22,22,[-3.10207897e+03  3.31368427e+02 -5.55760414e-03 -1.31641694e+07],755,785.7899874261335
23,23,[-1.94442353e+03  3.41380384e+02 -2.30323315e-03 -1.31641694e+07],588,784.574308416393
24,24,[-2.18688971e+03  3.39377178e+02 -2.78769975e-03 -1.31641694e+07],754,785.0977458371179
25,25,[-3.73444619e+03  3.27364149e+02 -8.13319228e-03 -1.31641694e+07],342,783.0282871690159
26,26,[-2.96606129e+03  3.32369938e+02 -4.92219334e-03 -1.31641694e+07],30,787.5129091838771
27,27,[-2.21578180e+03  3.38376978e+02 -2.99736410e-03 -1.31641694e+07],144,789.711484505741
28,28,[-1.73735605e+03  3.44382737e+02 -2.02621513e-03 -1.31641694e+07],448,789.0685676867771
29,29,[-3.29829351e+03  3.29366017e+02 -6.29790751e-03 -1.31641694e+07],27,787.3131521905119
30,30,[-3.39707200e+03  3.29366369e+02 -7.20457465e-03 -1.31641694e+07],115,789.7374498894314
31,31,[-2.10530347e+03  3.39377306e+02 -2.81723736e-03 -1.31641694e+07],18,788.9152513965166
32,32,[-3.00956026e+03  3.31368206e+02 -5.50331483e-03 -1.31641694e+07],612,788.6515876503693
33,33,[-2.23258175e+03  3.37375230e+02 -3.14267642e-03 -1.31641694e+07],88,789.2482543773501
34,34,[-1.80643217e+03  3.43382026e+02 -2.13482467e-03 -1.31641694e+07],762,787.44365666324
35,35,[-3.35183847e+03  3.29366054e+02 -6.81609347e-03 -1.31641694e+07],589,787.8614833458373
36,36,[-3.26772685e+03  3.30367253e+02 -6.16174747e-03 -1.31641694e+07],169,785.1236551741462
37,37,[-2.13461506e+03  3.39377403e+02 -2.67566487e-03 -1.31641694e+07],170,788.3437278221419
38,38,[-2.08774683e+03  3.39377354e+02 -2.69249949e-03 -1.31641694e+07],491,786.8016711706147
39,39,[-3.41052472e+03  3.28364872e+02 -8.09683776e-03 -1.31641694e+07],190,786.2442714632739
40,40,[-2.19171928e+03  3.36373924e+02 -3.69263889e-03 -1.31641694e+07],171,784.9877631143804
41,41,[-2.06770379e+03  3.38375985e+02 -3.18864685e-03 -1.31641694e+07],609,785.4480525858921
42,42,[-3.18335149e+03  3.28364994e+02 -7.84062114e-03 -1.31641694e+07],553,785.4208801877984
43,43,[-3.33656963e+03  3.26362766e+02 -1.17416081e-02 -1.31641694e+07],432,782.3871392636696
44,44,[-2.03605745e+03  3.38375989e+02 -3.29056307e-03 -1.31641694e+07],781,783.0118183464837
45,45,[-3.25495105e+03  3.28364857e+02 -8.26983957e-03 -1.31641694e+07],147,786.1058613033383
46,46,[-3.35818247e+03  3.27363847e+02 -8.95384363e-03 -1.31641694e+07],125,785.5760485089378
47,47,[-3.49563202e+03  3.28364884e+02 -9.06506895e-03 -1.31641694e+07],554,786.1958855371848
48,48,[-2.21079649e+03  3.36374552e+02 -3.54453549e-03 -1.31641694e+07],277,786.3671793772626
49,49,[-3.03155443e+03  3.28364972e+02 -7.53492540e-03 -1.31641694e+07],517,784.8582097848451
50,50,[-3.28404878e+03  3.28364941e+02 -8.76693506e-03 -1.31641694e+07],352,786.6421683166086
51,51,[-1.88725250e+03  3.41379417e+02 -2.71410138e-03 -1.31641694e+07],138,784.2691365230187
52,52,[-3.70425229e+03  3.27364076e+02 -8.28044139e-03 -1.31641694e+07],61,784.8094689040278
53,53,[-2.92216693e+03  3.31368412e+02 -4.91723304e-03 -1.31641694e+07],556,787.3072648305343
54,54,[-2.04080862e+03  3.41379382e+02 -2.45517777e-03 -1.31641694e+07],82,787.0255749958351
55,55,[-2.49688856e+03  3.36374458e+02 -3.35663985e-03 -1.31641694e+07],611,788.2753502558287
56,56,[-3.65257786e+03  3.28365082e+02 -7.66154184e-03 -1.31641694e+07],84,788.210176083075
57,57,[-2.08006288e+03  3.39377098e+02 -2.72776637e-03 -1.31641694e+07],563,788.1432736808326
58,58,[-2.12027376e+03  3.39377196e+02 -2.76493835e-03 -1.31641694e+07],548,788.5689192441082
59,59,[-3.38746064e+03  3.29365998e+02 -6.93053804e-03 -1.31641694e+07],331,786.7839768967352
60,60,[-1.97675094e+03  3.40378264e+02 -2.50291422e-03 -1.31641694e+07],389,788.1264630605875
61,61,[-2.02339665e+03  3.41379985e+02 -2.34446497e-03 -1.31641694e+07],383,789.4913463335743
62,62,[-1.92221782e+03  3.41380177e+02 -2.35679852e-03 -1.31641694e+07],375,788.858410342588
63,63,[-2.54280971e+03  3.34371573e+02 -3.62945452e-03 -1.31641694e+07],377,787.7791373152583
64,64,[-2.25563111e+03  3.37375412e+02 -3.07215559e-03 -1.31641694e+07],506,786.4611077597776
65,65,[-2.18926051e+03  3.39377411e+02 -2.91061906e-03 -1.31641694e+07],515,785.8477306267473
66,66,[-1.79008944e+03  3.42380644e+02 -2.19815345e-03 -1.31641694e+07],148,787.2190982023288
67,67,[-1.71913371e+03  3.44382966e+02 -1.84213717e-03 -1.31641694e+07],97,787.2178706333311
68,68,[-2.39401487e+03  3.37374875e+02 -3.16669215e-03 -1.31641694e+07],396,788.0798825521887
69,69,[-2.01086330e+03  3.41379531e+02 -2.43520426e-03 -1.31641694e+07],796,788.1889277879096
70,70,[-1.98941785e+03  3.40378485e+02 -2.50261599e-03 -1.31641694e+07],343,787.8691054519683
71,71,[-2.88078339e+03  3.31368600e+02 -4.78030508e-03 -1.31641694e+07],90,786.5220971449254
72,72,[-2.37524079e+03  3.36374644e+02 -3.58834511e-03 -1.31641694e+07],81,787.2441149583814
73,73,[-2.29646413e+03  3.38376710e+02 -2.89626307e-03 -1.31641694e+07],267,787.0694364006487
74,74,[-3.64272920e+03  3.28364861e+02 -8.27505664e-03 -1.31641694e+07],154,787.7450420140062
75,75,[-2.51590277e+03  3.35372945e+02 -3.75093570e-03 -1.31641694e+07],513,786.7600900955064
76,76,[-2.34538703e+03  3.36374054e+02 -3.30878224e-03 -1.31641694e+07],669,787.6868638229814
77,77,[-1.80075659e+03  3.44382832e+02 -2.22126781e-03 -1.31641694e+07],557,786.6222684853138
78,78,[-1.94305970e+03  3.41380072e+02 -2.31899263e-03 -1.31641694e+07],479,787.1835512576614
79,79,[-3.14872836e+03  3.30367200e+02 -5.55128182e-03 -1.31641694e+07],152,788.3040572011737
80,80,[-1.91648692e+03  3.41379319e+02 -2.31897389e-03 -1.31641694e+07],33,788.8429818012751
81,81,[-2.10565745e+03  3.40378356e+02 -2.64713771e-03 -1.31641694e+07],514,789.3046777716975
82,82,[-2.30416477e+03  3.37375509e+02 -3.16226692e-03 -1.31641694e+07],199,789.4856419432344
83,83,[-3.49919810e+03  3.29366274e+02 -7.26291806e-03 -1.31641694e+07],793,788.5490316615422
84,84,[-3.34409110e+03  3.30367130e+02 -6.76967716e-03 -1.31641694e+07],716,789.4389029908687
85,85,[-1.78730556e+03  3.44383379e+02 -2.25222434e-03 -1.31641694e+07],130,787.6241970393743
86,86,[-3.72490997e+03  3.28364943e+02 -7.95986017e-03 -1.31641694e+07],477,789.818473650594
87,87,[-3.10487660e+03  3.31368364e+02 -5.93965449e-03 -1.31641694e+07],384,787.5102540896567
88,88,[-2.18292056e+03  3.39377214e+02 -2.78163250e-03 -1.31641694e+07],441,789.6693646784354
89,89,[-3.65642933e+03  3.28364926e+02 -7.25484296e-03 -1.31641694e+07],560,788.218045697668
90,90,[-3.55009130e+03  3.28364883e+02 -7.56736041e-03 -1.31641694e+07],578,789.3254619099494
91,91,[-2.09772342e+03  3.40378600e+02 -2.62905943e-03 -1.31641694e+07],752,787.3727004000784
92,92,[-2.07040555e+03  3.40378493e+02 -2.66076909e-03 -1.31641694e+07],378,786.7559392718601
93,93,[-2.01780283e+03  3.38376025e+02 -2.69676025e-03 -1.31641694e+07],6,785.1237156256564
94,94,[-2.92386573e+03  3.31368222e+02 -5.33355464e-03 -1.31641694e+07],782,788.8166115673463
95,95,[-2.27176693e+03  3.38375981e+02 -2.91216691e-03 -1.31641694e+07],381,787.5429036077558
96,96,[-2.05640917e+03  3.40378569e+02 -2.56818456e-03 -1.31641694e+07],770,788.1137747466902
97,97,[-3.62865441e+03  3.28364890e+02 -7.97048278e-03 -1.31641694e+07],28,789.3777350498377
98,98,[-1.74722170e+03  3.44382661e+02 -2.00684140e-03 -1.31641694e+07],761,789.0423150902113
99,99,[-1.78974664e+03  3.44383309e+02 -2.26411896e-03 -1.31641694e+07],395,787.9792290785213
100,100,[-1.72412192e+03  3.44382841e+02 -2.09164072e-03 -1.31641694e+07],270,787.1020625836212
101,101,[-1.67687633e+03  3.45385757e+02 -1.87437455e-03 -1.31641694e+07],795,788.4384154525612
102,102,[-2.17410710e+03  3.39377111e+02 -2.92257914e-03 -1.31641694e+07],98,788.8265179523352
103,103,[-3.50330442e+03  3.29366169e+02 -7.30354121e-03 -1.31641694e+07],677,788.3083005103833
104,104,[-3.46046146e+03  3.29365997e+02 -7.18107742e-03 -1.31641694e+07],388,787.4586047751113
105,105,[-2.08114198e+03  3.40379036e+02 -2.77070546e-03 -1.31641694e+07],382,785.7202342234035
106,106,[-1.74298782e+03  3.45383917e+02 -1.86609928e-03 -1.31641694e+07],505,788.5876285061033
107,107,[-3.75897062e+03  3.27363956e+02 -8.99599469e-03 -1.31641694e+07],374,788.209441923753
108,108,[-2.08460961e+03  3.40378395e+02 -2.58232691e-03 -1.31641694e+07],602,788.25897561421
109,109,[-2.11488432e+03  3.40378271e+02 -2.62280941e-03 -1.31641694e+07],118,788.1003758716236
110,110,[-3.55673471e+03  3.29365986e+02 -7.53259745e-03 -1.31641694e+07],400,786.8613506104764
111,111,[-3.67929683e+03  3.28365342e+02 -7.93934573e-03 -1.31641694e+07],276,788.4522849864179
112,112,[-2.04690325e+03  3.38376465e+02 -2.86631622e-03 -1.31641694e+07],268,784.4359927755669
113,113,[-2.23373270e+03  3.37375307e+02 -3.09526153e-03 -1.31641694e+07],555,786.9798554916664
114,114,[-3.56999659e+03  3.30367088e+02 -6.84138936e-03 -1.31641694e+07],31,785.5934267329803
115,115,[-2.06594421e+03  3.40378258e+02 -2.53338072e-03 -1.31641694e+07],150,789.7040109365689
116,116,[-1.80555395e+03  3.43382202e+02 -2.08992810e-03 -1.31641694e+07],773,788.1847639858236
117,117,[-3.59481664e+03  3.28365128e+02 -7.91452480e-03 -1.31641694e+07],480,788.836610686206
118,118,[-3.36264266e+03  3.29366190e+02 -7.00652713e-03 -1.31641694e+07],599,788.9858595413327
119,119,[-1.80388664e+03  3.43383243e+02 -2.15774190e-03 -1.31641694e+07],714,788.220211181428
120,120,[-2.38175779e+03  3.37375166e+02 -3.22280550e-03 -1.31641694e+07],62,786.7192941935606
121,121,[-3.03694642e+03  3.30367417e+02 -5.20630154e-03 -1.31641694e+07],266,783.4570293362618
122,122,[-2.13736570e+03  3.39377532e+02 -2.63521010e-03 -1.31641694e+07],80,782.6571747676231
123,123,[-1.85074611e+03  3.43382428e+02 -2.08242318e-03 -1.31641694e+07],117,782.2567242564373
124,124,[-3.66835401e+03  3.28364854e+02 -7.36703791e-03 -1.31641694e+07],453,786.1592035424148
125,125,[-2.69950646e+03  3.33370656e+02 -4.23688642e-03 -1.31641694e+07],102,789.5207783275416
126,126,[-1.97766576e+03  3.42380817e+02 -2.30969216e-03 -1.31641694e+07],715,788.4164143494663
127,127,[-3.34082179e+03  3.29366163e+02 -6.42882270e-03 -1.31641694e+07],376,788.519892200427
128,128,[-1.97187031e+03  3.40378309e+02 -2.50980965e-03 -1.31641694e+07],94,787.1309206512907
129,129,[-2.16014291e+03  3.39377189e+02 -2.81516470e-03 -1.31641694e+07],334,788.469679947825
130,130,[-3.62508648e+03  3.28364983e+02 -8.44906126e-03 -1.31641694e+07],372,789.1676905095638
131,131,[-2.45246984e+03  3.36374001e+02 -3.43940365e-03 -1.31641694e+07],487,787.9376140837917
132,132,[-2.17464963e+03  3.39377215e+02 -2.84795620e-03 -1.31641694e+07],450,786.8323247432589
133,133,[-3.52513730e+03  3.28364921e+02 -7.17140335e-03 -1.31641694e+07],667,786.1118502370032
134,134,[-3.54056145e+03  3.29366028e+02 -7.42604149e-03 -1.31641694e+07],341,787.0822038277598
135,135,[-1.99643317e+03  3.41379929e+02 -2.31811586e-03 -1.31641694e+07],151,787.7356147304425
136,136,[-2.12311667e+03  3.40378830e+02 -2.62198242e-03 -1.31641694e+07],486,787.5734321899339
137,137,[-1.86082748e+03  3.42380479e+02 -2.13685376e-03 -1.31641694e+07],5,788.3077199560167
138,138,[-2.76320678e+03  3.33370553e+02 -4.49821185e-03 -1.31641694e+07],353,789.5044259487981
139,139,[-2.20804827e+03  3.40378289e+02 -2.54449927e-03 -1.31641694e+07],32,788.5196039482724
140,140,[-3.64628763e+03  3.29366037e+02 -7.57886427e-03 -1.31641694e+07],518,787.7803274425669
141,141,[-2.05491889e+03  3.40378381e+02 -2.55160016e-03 -1.31641694e+07],756,787.1899214790691
142,142,[-2.21931528e+03  3.38376232e+02 -2.96778810e-03 -1.31641694e+07],146,788.084530401149
143,143,[-2.13510408e+03  3.39377600e+02 -2.73251808e-03 -1.31641694e+07],686,788.4138569467435
144,144,[-2.13146207e+03  3.38376038e+02 -2.91545408e-03 -1.31641694e+07],402,789.7293409619022
145,145,[-3.10064009e+03  3.31368395e+02 -5.90316876e-03 -1.31641694e+07],106,788.3774905126393
146,146,[-2.24753608e+03  3.38376383e+02 -2.95587480e-03 -1.31641694e+07],58,788.599603611525
147,147,[-3.26329383e+03  3.30367078e+02 -6.02757716e-03 -1.31641694e+07],399,789.5306753547748
148,148,[-3.50968554e+03  3.29366056e+02 -7.25576446e-03 -1.31641694e+07],149,789.3838081281818
149,149,[-2.12463290e+03  3.41379417e+02 -2.38525620e-03 -1.31641694e+07],83,788.5560176468286
150,150,[-3.61807478e+03  3.28365202e+02 -7.24850368e-03 -1.31641694e+07],465,788.9036836978131
151,151,[-3.14486505e+03  3.30367171e+02 -5.81432827e-03 -1.31641694e+07],597,788.7189764271934
152,152,[-2.86293051e+03  3.32369539e+02 -5.02922204e-03 -1.31641694e+07],336,789.2489036503565
153,153,[-2.14708142e+03  3.39377273e+02 -2.91118788e-03 -1.31641694e+07],127,787.6491708526374
154,154,[-3.22002796e+03  3.29366330e+02 -6.57298975e-03 -1.31641694e+07],139,789.3002581907377
155,155,[-3.07270103e+03  3.31368358e+02 -6.07561334e-03 -1.31641694e+07],763,784.4884243785312
156,156,[-3.42440859e+03  3.29366034e+02 -7.63128986e-03 -1.31641694e+07],670,787.7112460961586
157,157,[-2.12634846e+03  3.40378842e+02 -2.66500241e-03 -1.31641694e+07],525,787.0566752054034
158,158,[-1.79901482e+03  3.43381654e+02 -2.20065071e-03 -1.31641694e+07],746,785.7255452944486
159,159,[-3.81355888e+03  3.27363829e+02 -8.95920994e-03 -1.31641694e+07],129,786.7743352500316
160,160,[-1.90829246e+03  3.43381844e+02 -2.08728409e-03 -1.31641694e+07],594,787.6020712943989
161,161,[-2.04225731e+03  3.42381868e+02 -2.21559195e-03 -1.31641694e+07],490,786.835916274285
162,162,[-1.71370586e+03  3.44382677e+02 -1.90515754e-03 -1.31641694e+07],380,787.5407311515667
163,163,[-2.86369923e+03  3.31368433e+02 -5.10517107e-03 -1.31641694e+07],111,787.4858234201108
164,164,[-2.16175409e+03  3.39377110e+02 -2.75821999e-03 -1.31641694e+07],101,786.7671020187296
165,165,[-2.09914642e+03  3.40378353e+02 -2.55303300e-03 -1.31641694e+07],601,786.1670316753117
166,166,[-3.56920745e+03  3.28364952e+02 -7.11429389e-03 -1.31641694e+07],328,786.1402977756047
167,167,[-3.01668376e+03  3.31368208e+02 -5.21413550e-03 -1.31641694e+07],126,790.0520738084385
168,168,[-1.99422709e+03  3.41379538e+02 -2.32051070e-03 -1.31641694e+07],143,789.9006972587198
169,169,[-2.29860959e+03  3.38376023e+02 -2.92918566e-03 -1.31641694e+07],668,789.6648465325626
170,170,[-3.72991644e+03  3.28364888e+02 -8.30494761e-03 -1.31641694e+07],145,789.6405912766403
171,171,[-2.07107395e+03  3.40378305e+02 -2.56078334e-03 -1.31641694e+07],468,789.5985498981487
172,172,[-2.00313422e+03  3.40378843e+02 -2.54723296e-03 -1.31641694e+07],549,785.4984250597861
173,173,[-3.27794613e+03  3.29366286e+02 -6.89598872e-03 -1.31641694e+07],545,787.8063027388848
174,174,[-3.46423076e+03  3.29366013e+02 -6.69457609e-03 -1.31641694e+07],244,786.2207558570598
175,175,[-2.19262062e+03  3.39377374e+02 -2.84379011e-03 -1.31641694e+07],37,784.384805936532
176,176,[-2.02236444e+03  3.42380853e+02 -2.20140865e-03 -1.31641694e+07],330,787.0877406115573
177,177,[-3.69899705e+03  3.27363801e+02 -8.40188732e-03 -1.31641694e+07],329,783.5318193127224
178,178,[-1.91994996e+03  3.43381668e+02 -2.03989342e-03 -1.31641694e+07],103,781.7521186041315
179,179,[-2.41084863e+03  3.36374306e+02 -3.43620254e-03 -1.31641694e+07],137,783.6982130235419
180,180,[-3.72945898e+03  3.28365007e+02 -8.84982493e-03 -1.31641694e+07],79,781.2278092516736
181,181,[-2.19791203e+03  3.38376301e+02 -3.05937239e-03 -1.31641694e+07],370,781.8925800773868
182,182,[-1.92066489e+03  3.41379324e+02 -2.30538268e-03 -1.31641694e+07],401,776.3631478215594
183,183,[-3.86996876e+03  3.28364889e+02 -7.54213427e-03 -1.31641694e+07],7,775.0708666056573
184,184,[-3.86705560e+03  3.28364934e+02 -7.89802088e-03 -1.31641694e+07],561,770.8511541636283
185,185,[-3.66439967e+03  3.29366091e+02 -6.77382919e-03 -1.31641694e+07],55,766.3806781066052
186,186,[-2.26192507e+03  3.39377992e+02 -2.50092589e-03 -1.31641694e+07],592,768.9680364163648
187,187,[-2.45160222e+03  3.37375061e+02 -3.11049999e-03 -1.31641694e+07],108,774.7733671597433
188,188,[-3.57551872e+03  3.29366001e+02 -6.77159824e-03 -1.31641694e+07],562,782.749878909463
189,189,[-3.36239285e+03  3.30367214e+02 -6.55489845e-03 -1.31641694e+07],478,785.9541133685447
190,190,[-2.10914920e+03  3.39377090e+02 -2.79951912e-03 -1.31641694e+07],119,789.6018939610578
191,191,[-2.25170287e+03  3.38376220e+02 -3.01415447e-03 -1.31641694e+07],89,787.80844843799
192,192,[-1.66277021e+03  3.45384399e+02 -1.96836826e-03 -1.31641694e+07],56,783.1187032672739
193,193,[-2.27930878e+03  3.38376158e+02 -3.16297171e-03 -1.31641694e+07],107,784.5901676930876
194,194,[-1.86910530e+03  3.42380723e+02 -2.28255981e-03 -1.31641694e+07],392,786.070263788724
195,195,[-3.58030140e+03  3.28364932e+02 -7.76136606e-03 -1.31641694e+07],476,782.36760641691
196,196,[-1.98493566e+03  3.41379854e+02 -2.39901567e-03 -1.31641694e+07],69,779.3115912161783
197,197,[-1.95477187e+03  3.41379517e+02 -2.36454069e-03 -1.31641694e+07],116,783.0770442660397
198,198,[-3.01457578e+03  3.30367076e+02 -5.44985018e-03 -1.31641694e+07],16,786.2037827933157
199,199,[-3.47374971e+03  3.29366063e+02 -6.79893033e-03 -1.31641694e+07],666,789.2385328450524
200,200,[-2.95653689e+03  3.29366009e+02 -8.35646055e-03 -1.31641694e+07],335,784.2653351885219
201,201,[-2.29844473e+03  3.35373024e+02 -4.12008348e-03 -1.31641694e+07],57,785.1155118383975
202,202,[-3.49984371e+03  3.28364951e+02 -9.53496421e-03 -1.31641694e+07],60,786.8483347866047
203,203,[-3.38320106e+03  3.28364883e+02 -9.56283634e-03 -1.31641694e+07],96,785.1008674395608
204,204,[-1.82855772e+03  3.40378221e+02 -2.92798810e-03 -1.31641694e+07],608,784.9618961373112
205,205,[-3.54669690e+03  3.28365041e+02 -1.00016591e-02 -1.31641694e+07],678,785.1363052247926
206,206,[-3.67196543e+03  3.26362655e+02 -1.08639723e-02 -1.31641694e+07],501,785.0884922873264
207,207,[-3.11393865e+03  3.28364910e+02 -8.43131236e-03 -1.31641694e+07],261,784.987012758832
208,208,[-3.06054003e+03  3.29366184e+02 -8.52923127e-03 -1.31641694e+07],109,785.0751595900828
209,209,[-3.32471515e+03  3.28364945e+02 -8.31194500e-03 -1.31641694e+07],287,787.590667606108
210,210,[-1.77306988e+03  3.41379742e+02 -2.72314141e-03 -1.31641694e+07],142,782.5729998885645
211,211,[-2.11116429e+03  3.36373758e+02 -3.58186770e-03 -1.31641694e+07],68,783.8774213467184
212,212,[-2.19350112e+03  3.36373862e+02 -3.56842591e-03 -1.31641694e+07],504,785.8915088925345
213,213,[-1.70298446e+03  3.42381490e+02 -2.51304849e-03 -1.31641694e+07],245,785.7346935454792
214,214,[-1.66452319e+03  3.43382919e+02 -2.35816554e-03 -1.31641694e+07],271,785.2434241672753
215,215,[-1.95952421e+03  3.39377774e+02 -2.96236078e-03 -1.31641694e+07],435,785.1665655893268
216,216,[-3.47251660e+03  3.27363781e+02 -9.84202156e-03 -1.31641694e+07],712,786.3185164155103
217,217,[-3.30997152e+03  3.29366001e+02 -8.84511513e-03 -1.31641694e+07],546,782.2116668402226
218,218,[-2.06966016e+03  3.38376341e+02 -3.16742679e-03 -1.31641694e+07],394,786.2431937353131
219,219,[-3.24517403e+03  3.28364924e+02 -8.63456578e-03 -1.31641694e+07],550,786.1845911515926
220,220,[-3.23409214e+03  3.28365175e+02 -7.75168735e-03 -1.31641694e+07],579,785.2438702281079
221,221,[-3.20931058e+03  3.28364979e+02 -7.62485353e-03 -1.31641694e+07],434,784.8169902545162
222,222,[-2.07072061e+03  3.38376479e+02 -3.14751222e-03 -1.31641694e+07],99,786.3153695144682
223,223,[-1.69678929e+03  3.43381776e+02 -2.28254891e-03 -1.31641694e+07],412,786.8923580108035
224,224,[-3.04699343e+03  3.29366092e+02 -6.97037205e-03 -1.31641694e+07],415,786.7507235695458
225,225,[-3.28912787e+03  3.29366004e+02 -8.10968478e-03 -1.31641694e+07],604,785.1577784310609
226,226,[-1.98022776e+03  3.39377094e+02 -3.15668505e-03 -1.31641694e+07],131,785.7630377724815
227,227,[-1.75608326e+03  3.43382165e+02 -2.29224376e-03 -1.31641694e+07],445,785.464319727914
228,228,[-3.53944903e+03  3.28365076e+02 -9.10571379e-03 -1.31641694e+07],385,786.0898490331108
229,229,[-1.78884416e+03  3.42380424e+02 -2.54983776e-03 -1.31641694e+07],390,784.7922497468376
230,230,[-2.25096949e+03  3.36374003e+02 -3.53251478e-03 -1.31641694e+07],676,786.0376245890258
231,231,[-1.68882488e+03  3.43383337e+02 -2.32415006e-03 -1.31641694e+07],70,783.5477163698743
232,232,[-3.15901055e+03  3.28364872e+02 -8.57290142e-03 -1.31641694e+07],35,785.5333015468391
233,233,[-2.01751804e+03  3.38376828e+02 -3.55172669e-03 -1.31641694e+07],507,784.6106384205135
234,234,[-1.61269718e+03  3.45384026e+02 -2.04368891e-03 -1.31641694e+07],590,786.1482097621906
235,235,[-3.35362055e+03  3.28365004e+02 -8.09968182e-03 -1.31641694e+07],431,786.4372546080768
236,236,[-3.43891167e+03  3.28364945e+02 -8.81668859e-03 -1.31641694e+07],783,786.2020514936368
237,237,[-2.22452879e+03  3.37374863e+02 -3.30471742e-03 -1.31641694e+07],439,787.1011790667422
238,238,[-1.90210837e+03  3.40378652e+02 -2.77858445e-03 -1.31641694e+07],275,785.2246881194485
239,239,[-3.22972766e+03  3.29365980e+02 -7.90975272e-03 -1.31641694e+07],547,784.8681239635173
240,240,[-1.96539064e+03  3.40378966e+02 -2.77713056e-03 -1.31641694e+07],785,785.0958453298343
241,241,[-1.64400443e+03  3.44382732e+02 -2.12316485e-03 -1.31641694e+07],191,785.2929512671723
242,242,[-3.40251125e+03  3.29366062e+02 -8.74674102e-03 -1.31641694e+07],173,781.4996028714935
243,243,[-2.04181235e+03  3.39377147e+02 -2.89496701e-03 -1.31641694e+07],747,785.012649762701
244,244,[-1.93040426e+03  3.41380018e+02 -2.40117151e-03 -1.31641694e+07],140,788.3481310229905
245,245,[-2.70575026e+03  3.33370510e+02 -4.42869251e-03 -1.31641694e+07],63,788.0469965825
246,246,[-1.82378449e+03  3.42380481e+02 -2.29119591e-03 -1.31641694e+07],743,783.6571460864145
247,247,[-2.37958445e+03  3.35372751e+02 -3.89491345e-03 -1.31641694e+07],321,785.8140106611829
248,248,[-3.35804580e+03  3.29366061e+02 -7.31166149e-03 -1.31641694e+07],398,784.1212387863571
249,249,[-2.18839570e+03  3.37375327e+02 -3.37396322e-03 -1.31641694e+07],544,783.9344729666919
250,250,[-2.05253720e+03  3.39377539e+02 -2.99011402e-03 -1.31641694e+07],713,784.3895341959216
251,251,[-3.25395578e+03  3.28365113e+02 -8.58673605e-03 -1.31641694e+07],74,784.0941506986344
252,252,[-3.07943041e+03  3.28365024e+02 -7.88911416e-03 -1.31641694e+07],262,783.4555401482115
253,253,[-1.83419447e+03  3.41379489e+02 -2.75461810e-03 -1.31641694e+07],135,782.9933769799476
254,254,[-2.22526092e+03  3.37374881e+02 -3.48347806e-03 -1.31641694e+07],469,784.2727759638918
255,255,[-2.92436126e+03  3.31368363e+02 -4.93282014e-03 -1.31641694e+07],559,787.3305607635642
256,256,[-3.44077760e+03  3.29366055e+02 -7.35430289e-03 -1.31641694e+07],156,786.7861948664266
257,257,[-2.14869359e+03  3.40378312e+02 -2.62427048e-03 -1.31641694e+07],259,786.5294963266638
258,258,[-1.88420686e+03  3.41379713e+02 -2.30891136e-03 -1.31641694e+07],587,787.0864946183605
259,259,[-1.97841122e+03  3.40378433e+02 -2.54395268e-03 -1.31641694e+07],20,787.7072154409567
260,260,[-2.55600951e+03  3.35373181e+02 -3.75644063e-03 -1.31641694e+07],76,787.3992410276679
261,261,[-2.11891678e+03  3.41379380e+02 -2.42288930e-03 -1.31641694e+07],772,788.1012350841044
262,262,[-3.18176985e+03  3.30367270e+02 -6.01034357e-03 -1.31641694e+07],603,787.7438959576281
263,263,[-2.38974700e+03  3.36373834e+02 -3.38567176e-03 -1.31641694e+07],153,787.2674861818474
264,264,[-2.35630609e+03  3.38376435e+02 -2.97940174e-03 -1.31641694e+07],519,787.1842237651243
265,265,[-3.42464910e+03  3.29366022e+02 -7.16707837e-03 -1.31641694e+07],433,786.508952327104
266,266,[-3.29313621e+03  3.29366488e+02 -6.38389773e-03 -1.31641694e+07],85,788.8446099565995
267,267,[-1.69149078e+03  3.45383799e+02 -1.85861228e-03 -1.31641694e+07],369,789.3018341571162
268,268,[-2.09154257e+03  3.40378252e+02 -2.63252941e-03 -1.31641694e+07],339,788.9496482155103
269,269,[-3.72871541e+03  3.28364931e+02 -8.90999324e-03 -1.31641694e+07],160,787.4614938815773
270,270,[-1.99931690e+03  3.41379661e+02 -2.37424892e-03 -1.31641694e+07],535,789.0519433398805
271,271,[-1.74954150e+03  3.44383425e+02 -2.03591277e-03 -1.31641694e+07],209,788.0399900915884
272,272,[-3.13221587e+03  3.31368310e+02 -6.07486859e-03 -1.31641694e+07],438,782.6216534242244
273,273,[-2.17115127e+03  3.41379993e+02 -2.37867669e-03 -1.31641694e+07],136,785.8594710717966
274,274,[-2.10156325e+03  3.41379932e+02 -2.44956022e-03 -1.31641694e+07],403,787.4640424181857
275,275,[-3.84709172e+03  3.27363992e+02 -8.70825439e-03 -1.31641694e+07],15,787.8206476304885
276,276,[-2.17087417e+03  3.38376461e+02 -2.91939086e-03 -1.31641694e+07],674,788.9709268041015
277,277,[-2.09702287e+03  3.40378836e+02 -2.54557635e-03 -1.31641694e+07],95,789.5098124406069
278,278,[-3.40267897e+03  3.28365051e+02 -6.73276889e-03 -1.31641694e+07],162,785.7975372892505
279,279,[-1.75752748e+03  3.44383088e+02 -1.98497515e-03 -1.31641694e+07],393,786.4742489916547
280,280,[-2.01991419e+03  3.41379501e+02 -2.41233470e-03 -1.31641694e+07],26,785.3455474575538
281,281,[-3.55967146e+03  3.28365347e+02 -9.38564492e-03 -1.31641694e+07],4,782.9204772735272
282,282,[-1.89374649e+03  3.41380274e+02 -2.44894704e-03 -1.31641694e+07],87,784.1553406408229
283,283,[-1.93116487e+03  3.39377753e+02 -2.79065388e-03 -1.31641694e+07],397,785.1222984830536
284,284,[-3.53425179e+03  3.28364913e+02 -9.31117733e-03 -1.31641694e+07],163,782.4746077828978
285,285,[-1.78244461e+03  3.42380987e+02 -2.57373153e-03 -1.31641694e+07],784,783.0468607570987
286,286,[-2.30242810e+03  3.36373817e+02 -3.68555061e-03 -1.31641694e+07],661,784.173562204289
287,287,[-3.91900189e+03  3.27363786e+02 -9.28813868e-03 -1.31641694e+07],777,788.0906171133853
288,288,[-2.17547550e+03  3.40378266e+02 -2.60101841e-03 -1.31641694e+07],274,786.8685273699418
289,289,[-2.36061364e+03  3.38376087e+02 -2.90836434e-03 -1.31641694e+07],269,787.2267892821313
290,290,[-3.86795012e+03  3.28364881e+02 -8.45509244e-03 -1.31641694e+07],104,781.6897625611517
291,291,[-3.76491736e+03  3.29366033e+02 -7.31886272e-03 -1.31641694e+07],361,777.2867558821114
292,292,[-3.03531787e+03  3.31368229e+02 -4.82537646e-03 -1.31641694e+07],591,771.0214007476941
293,293,[-3.54432562e+03  3.29365979e+02 -6.72268560e-03 -1.31641694e+07],34,773.8083223736164
294,294,[-2.24625049e+03  3.40378353e+02 -2.45050330e-03 -1.31641694e+07],768,774.6685628052538
295,295,[-3.80203255e+03  3.27363776e+02 -9.01668819e-03 -1.31641694e+07],260,777.0440606466624
296,296,[-3.38261373e+03  3.29366119e+02 -6.73535599e-03 -1.31641694e+07],91,781.8321603102612
297,297,[-1.80554871e+03  3.44383027e+02 -2.18412360e-03 -1.31641694e+07],564,783.3578231016652
298,298,[-2.03560179e+03  3.40378446e+02 -2.59074407e-03 -1.31641694e+07],778,780.2852362153216
299,299,[-3.65291442e+03  3.28364909e+02 -7.21483577e-03 -1.31641694e+07],753,785.2743129743004
300,300,[-2.51094191e+03  3.35372930e+02 -3.79211441e-03 -1.31641694e+07],493,781.9024258958249
301,301,[-2.07237672e+03  3.41379536e+02 -2.47437536e-03 -1.31641694e+07],255,776.5949173364007
302,302,[-3.38126638e+03  3.28364861e+02 -6.95757518e-03 -1.31641694e+07],798,774.5373616976257
303,303,[-1.91730658e+03  3.42380706e+02 -2.09614934e-03 -1.31641694e+07],558,770.2995020420889
304,304,[-2.00673968e+03  3.40378382e+02 -2.36537334e-03 -1.31641694e+07],29,771.9289521784283
305,305,[-3.77178948e+03  3.28364960e+02 -8.29310462e-03 -1.31641694e+07],687,776.497995033483
306,306,[-2.25591165e+03  3.39377380e+02 -2.73022814e-03 -1.31641694e+07],8,773.7895026383142
307,307,[-1.76309360e+03  3.43382270e+02 -2.07991772e-03 -1.31641694e+07],53,776.5584961650203
308,308,[-3.38263531e+03  3.29365993e+02 -7.26862888e-03 -1.31641694e+07],675,782.3418968350078
309,309,[-1.63500153e+03  3.45384880e+02 -1.85287993e-03 -1.31641694e+07],464,786.0459094608689
310,310,[-2.15490226e+03  3.40378294e+02 -2.62087150e-03 -1.31641694e+07],440,786.0892422145155
311,311,[-2.04148983e+03  3.40378442e+02 -2.62977915e-03 -1.31641694e+07],792,784.1409171381111
312,312,[-3.70376111e+03  3.28364878e+02 -8.01476119e-03 -1.31641694e+07],263,785.9846965951137
313,313,[-1.91089621e+03  3.41380331e+02 -2.39843503e-03 -1.31641694e+07],494,786.2797719661943
314,314,[-1.75289743e+03  3.43381618e+02 -2.11373353e-03 -1.31641694e+07],613,785.44892184269
315,315,[-2.14942101e+03  3.39377832e+02 -2.97787231e-03 -1.31641694e+07],72,785.0967014228272
316,316,[-3.39627190e+03  3.28364918e+02 -7.00831934e-03 -1.31641694e+07],657,783.4474607616135
317,317,[-2.78276041e+03  3.32369869e+02 -4.91597476e-03 -1.31641694e+07],767,785.7992583106904
318,318,[-2.13272665e+03  3.40379014e+02 -2.55134125e-03 -1.31641694e+07],456,784.4889808257808
319,319,[-3.23455748e+03  3.29366113e+02 -6.17525660e-03 -1.31641694e+07],289,784.57421349274
320,320,[-3.87057762e+03  3.26362824e+02 -9.44791146e-03 -1.31641694e+07],485,784.8534376451628
321,321,[-2.20711523e+03  3.39377184e+02 -2.82988386e-03 -1.31641694e+07],745,787.7733148622438
322,322,[-1.66643722e+03  3.45384854e+02 -1.89893134e-03 -1.31641694e+07],66,786.8798446308508
323,323,[-1.91761565e+03  3.40378203e+02 -2.34238499e-03 -1.31641694e+07],379,785.1604730492647
324,324,[-2.94608307e+03  3.31368341e+02 -5.45123157e-03 -1.31641694e+07],67,787.0086707118928
325,325,[-1.81889377e+03  3.44383303e+02 -2.23387044e-03 -1.31641694e+07],512,786.1369555136006
326,326,[-1.83505631e+03  3.42382309e+02 -2.22260072e-03 -1.31641694e+07],141,786.8049328968551
327,327,[-3.92289499e+03  3.26362801e+02 -9.68793502e-03 -1.31641694e+07],466,787.0654045579271
328,328,[-3.48503036e+03  3.29365969e+02 -7.95930689e-03 -1.31641694e+07],264,788.4178879057364
329,329,[-2.16955335e+03  3.39377105e+02 -2.75795001e-03 -1.31641694e+07],78,788.33507451544
330,330,[-3.56350841e+03  3.28364948e+02 -7.63342222e-03 -1.31641694e+07],442,788.33615801211
331,331,[-2.00941802e+03  3.40378230e+02 -2.67886349e-03 -1.31641694e+07],543,789.4176451230956
332,332,[-2.00999137e+03  3.40378242e+02 -2.64633898e-03 -1.31641694e+07],596,789.8094805565439
333,333,[-3.42396293e+03  3.28364945e+02 -7.62008328e-03 -1.31641694e+07],457,789.8881393492873
334,334,[-1.61396144e+03  3.46384998e+02 -1.76388806e-03 -1.31641694e+07],417,788.8085646064045
335,335,[-2.10284529e+03  3.40378441e+02 -2.69556252e-03 -1.31641694e+07],718,788.158550869735
336,336,[-3.36680722e+03  3.28364876e+02 -7.17330231e-03 -1.31641694e+07],128,788.5363929676071
337,337,[-3.61084072e+03  3.29365975e+02 -8.70281543e-03 -1.31641694e+07],679,783.4832295301835
338,338,[-2.06214794e+03  3.40378270e+02 -2.70507817e-03 -1.31641694e+07],100,786.6972211442525
339,339,[-3.79822519e+03  3.27363886e+02 -9.38817314e-03 -1.31641694e+07],237,787.605079366162
340,340,[-3.67734890e+03  3.27363818e+02 -9.42258614e-03 -1.31641694e+07],496,789.9589387605741
341,341,[-2.06680531e+03  3.40378438e+02 -2.77531738e-03 -1.31641694e+07],176,788.7255601053155
342,342,[-2.13553976e+03  3.38376065e+02 -2.95866304e-03 -1.31641694e+07],258,789.7377618389298
343,343,[-3.23009539e+03  3.29365999e+02 -6.54968215e-03 -1.31641694e+07],134,789.3327127361889
344,344,[-1.87678635e+03  3.42380810e+02 -2.31606044e-03 -1.31641694e+07],610,786.8919090123094
345,345,[-2.02830371e+03  3.41379650e+02 -2.38030187e-03 -1.31641694e+07],73,785.7623171322734
346,346,[-3.70225018e+03  3.27363751e+02 -9.33748027e-03 -1.31641694e+07],327,785.487134230958
347,347,[-2.37895164e+03  3.37375634e+02 -3.63438560e-03 -1.31641694e+07],17,782.870519580754
348,348,[-1.94734273e+03  3.42380445e+02 -2.51922783e-03 -1.31641694e+07],157,785.1858222960944
349,349,[-3.84855846e+03  3.27363839e+02 -8.43624805e-03 -1.31641694e+07],522,785.3507716113738
350,350,[-3.65258288e+03  3.27363798e+02 -8.32713512e-03 -1.31641694e+07],500,780.661716501936
351,351,[-3.41309245e+03  3.28364929e+02 -6.55265557e-03 -1.31641694e+07],368,786.098208369553
352,352,[-2.09108908e+03  3.40378370e+02 -2.57826800e-03 -1.31641694e+07],711,789.5046949948897
353,353,[-2.07504170e+03  3.39377326e+02 -2.77320535e-03 -1.31641694e+07],452,788.6716974973907
354,354,[-1.68818174e+03  3.45383924e+02 -1.95079056e-03 -1.31641694e+07],54,784.2796155289666
355,355,[-3.24042147e+03  3.29366191e+02 -8.49421081e-03 -1.31641694e+07],324,784.1378571890449
356,356,[-1.82817039e+03  3.41379600e+02 -2.72149139e-03 -1.31641694e+07],614,785.5707686018869
357,357,[-1.68748569e+03  3.43381883e+02 -2.29267149e-03 -1.31641694e+07],521,785.9118535827961
358,358,[-3.44350532e+03  3.26362791e+02 -1.08760085e-02 -1.31641694e+07],744,784.6758784331803
359,359,[-3.28330141e+03  3.27363867e+02 -8.97983936e-03 -1.31641694e+07],113,784.4445302051621
360,360,[-2.17030377e+03  3.37374952e+02 -3.40391556e-03 -1.31641694e+07],780,785.8825851641753
361,361,[-2.13947402e+03  3.38376105e+02 -3.22889111e-03 -1.31641694e+07],387,787.4547486966014
362,362,[-3.74840852e+03  3.28365180e+02 -8.93512955e-03 -1.31641694e+07],738,789.8173525252797
363,363,[-2.83717469e+03  3.31368376e+02 -5.22869347e-03 -1.31641694e+07],742,789.8811645181845
364,364,[-2.20681060e+03  3.38376978e+02 -3.11488457e-03 -1.31641694e+07],734,786.8582787453028
365,365,[-1.91672690e+03  3.39378629e+02 -3.14940119e-03 -1.31641694e+07],786,784.5869840915976
366,366,[-3.33101597e+03  3.27363976e+02 -1.04047642e-02 -1.31641694e+07],766,785.2642877081245
367,367,[-3.34492374e+03  3.28364924e+02 -8.68163143e-03 -1.31641694e+07],511,786.6911933609003
368,368,[-1.79315429e+03  3.42382274e+02 -2.39853420e-03 -1.31641694e+07],764,787.0401304208458
369,369,[-1.72037482e+03  3.44384150e+02 -2.36034554e-03 -1.31641694e+07],797,787.6110773923995
370,370,[-3.16400737e+03  3.30367454e+02 -6.59242798e-03 -1.31641694e+07],577,788.2932850843215
371,371,[-3.28667085e+03  3.31368411e+02 -6.72682060e-03 -1.31641694e+07],443,781.9197315425879
372,372,[-1.73304357e+03  3.44383146e+02 -2.13039322e-03 -1.31641694e+07],430,788.7978280074834
373,373,[-1.74947773e+03  3.44382682e+02 -2.33291656e-03 -1.31641694e+07],223,786.8279579617626
374,374,[-3.38170522e+03  3.29365967e+02 -7.36174928e-03 -1.31641694e+07],344,789.0015071844238
375,375,[-3.33125986e+03  3.29366002e+02 -7.04554704e-03 -1.31641694e+07],437,789.401421122236
376,376,[-2.10438949e+03  3.40378406e+02 -2.71217380e-03 -1.31641694e+07],322,788.8174982818913
377,377,[-2.47385991e+03  3.35372684e+02 -3.77303124e-03 -1.31641694e+07],288,789.3992809825772
378,378,[-3.31778614e+03  3.29366051e+02 -6.51603036e-03 -1.31641694e+07],741,789.0986347863737
379,379,[-2.26721122e+03  3.38376247e+02 -3.16878115e-03 -1.31641694e+07],110,787.219091336909
380,380,[-1.93377596e+03  3.42381040e+02 -2.34630251e-03 -1.31641694e+07],364,788.4546971816854
381,381,[-3.40479704e+03  3.29366385e+02 -7.05416708e-03 -1.31641694e+07],202,789.0849891230426
382,382,[-1.78150354e+03  3.43381572e+02 -2.19403171e-03 -1.31641694e+07],161,789.0120714636565
383,383,[-2.17719573e+03  3.39377698e+02 -2.82194730e-03 -1.31641694e+07],132,789.4165625515666
384,384,[-3.74263320e+03  3.27363823e+02 -9.30809717e-03 -1.31641694e+07],373,789.1273569983323
385,385,[-3.48919897e+03  3.29366303e+02 -7.07572097e-03 -1.31641694e+07],326,787.918962603314
386,386,[-1.81151880e+03  3.44382967e+02 -2.17567799e-03 -1.31641694e+07],38,786.275020812547
387,387,[-2.27678725e+03  3.37375072e+02 -3.06108237e-03 -1.31641694e+07],775,786.974743129037
388,388,[-3.54339257e+03  3.28365165e+02 -7.24238958e-03 -1.31641694e+07],680,789.0220947138567
389,389,[-1.91335433e+03  3.41379402e+02 -2.41356862e-03 -1.31641694e+07],256,789.416593622136
390,390,[-1.82803826e+03  3.44382885e+02 -2.19470169e-03 -1.31641694e+07],59,787.8807855676664
391,391,[-3.36912503e+03  3.29366014e+02 -6.95689151e-03 -1.31641694e+07],159,789.8376828958245
392,392,[-2.02075395e+03  3.40379677e+02 -2.53096174e-03 -1.31641694e+07],164,788.1909418984463
393,393,[-2.29354342e+03  3.37375247e+02 -3.32687046e-03 -1.31641694e+07],75,787.5357847517564
394,394,[-1.98575537e+03  3.42380584e+02 -2.26454335e-03 -1.31641694e+07],92,787.9978843435637
395,395,[-1.88454949e+03  3.42380734e+02 -2.30982825e-03 -1.31641694e+07],416,789.0640146594413
396,396,[-3.18323179e+03  3.29366047e+02 -6.81347737e-03 -1.31641694e+07],224,789.3767855886699
397,397,[-2.19514961e+03  3.38376217e+02 -3.10486848e-03 -1.31641694e+07],740,787.504535399713
398,398,[-1.77417422e+03  3.44383285e+02 -2.23184525e-03 -1.31641694e+07],520,787.7721486126835
399,399,[-3.30546471e+03  3.29366347e+02 -6.35964178e-03 -1.31641694e+07],774,788.5569316655003
400,400,[-3.41629153e+03  3.29366192e+02 -7.23720902e-03 -1.31641694e+07],120,788.9770425603372
401,401,[-1.80415553e+03  3.44382742e+02 -2.01485274e-03 -1.31641694e+07],771,788.2927647293692
402,402,[-2.00864066e+03  3.41380057e+02 -2.54162513e-03 -1.31641694e+07],787,788.5959473532063
403,403,[-3.63006428e+03  3.28364901e+02 -7.79286859e-03 -1.31641694e+07],750,787.572460265409
404,404,[-1.73994296e+03  3.44384304e+02 -2.21743212e-03 -1.31641694e+07],338,782.0985055041053
405,405,[-1.81322586e+03  3.43382253e+02 -2.16112995e-03 -1.31641694e+07],684,775.9970389113319
406,406,[-2.13305683e+03  3.38376311e+02 -2.76893072e-03 -1.31641694e+07],367,774.8765057262569
407,407,[-1.98639628e+03  3.43381808e+02 -2.14251648e-03 -1.31641694e+07],701,776.1170371096645
408,408,[-1.84291603e+03  3.44382666e+02 -2.16908633e-03 -1.31641694e+07],671,777.3369030277654
409,409,[-2.13958570e+03  3.38376125e+02 -2.82213109e-03 -1.31641694e+07],789,779.4071457969765
410,410,[-2.21621327e+03  3.40378319e+02 -2.57556171e-03 -1.31641694e+07],757,785.015351660161
411,411,[-2.26804101e+03  3.38376039e+02 -2.91500203e-03 -1.31641694e+07],50,786.1335803067118
412,412,[-3.39403444e+03  3.28364860e+02 -7.13506184e-03 -1.31641694e+07],77,787.9720432426498
413,413,[-2.35379458e+03  3.37374901e+02 -3.53659544e-03 -1.31641694e+07],760,786.1767005564909
414,414,[-2.08726471e+03  3.40378959e+02 -2.77747679e-03 -1.31641694e+07],414,786.5524237955797
415,415,[-2.00893406e+03  3.39377132e+02 -2.74898321e-03 -1.31641694e+07],620,787.9613670772495
416,416,[-1.98728605e+03  3.42380533e+02 -2.27757707e-03 -1.31641694e+07],257,786.7545924961805
417,417,[-2.65300832e+03  3.33370504e+02 -4.40866133e-03 -1.31641694e+07],475,787.1504774879382
418,418,[-2.23279282e+03  3.38376051e+02 -2.97006760e-03 -1.31641694e+07],71,786.2176057551766
419,419,[-1.81271109e+03  3.44382895e+02 -2.27406676e-03 -1.31641694e+07],536,785.1528484563572
420,420,[-2.13530699e+03  3.38376991e+02 -2.92229018e-03 -1.31641694e+07],265,784.6186834330811
421,421,[-1.81691598e+03  3.43381952e+02 -2.15305684e-03 -1.31641694e+07],524,781.6781007560562
422,422,[-2.19103772e+03  3.40378327e+02 -2.55083897e-03 -1.31641694e+07],279,781.5255933877047
423,423,[-3.47488692e+03  3.29366076e+02 -6.63639220e-03 -1.31641694e+07],64,778.4908172239811
424,424,[-3.50992065e+03  3.29365975e+02 -6.96932619e-03 -1.31641694e+07],685,776.7899824202868
425,425,[-3.36777216e+03  3.29365968e+02 -6.33949402e-03 -1.31641694e+07],235,770.7563854937613
426,426,[-2.13011902e+03  3.38376557e+02 -2.66777306e-03 -1.31641694e+07],739,768.9197114332546
427,427,[-2.00708501e+03  3.41379575e+02 -2.37362356e-03 -1.31641694e+07],681,770.2545474447414
428,428,[-2.35480570e+03  3.37375168e+02 -2.97321852e-03 -1.31641694e+07],682,774.563623626032
429,429,[-3.30807578e+03  3.29366354e+02 -6.44709582e-03 -1.31641694e+07],48,784.6861036602544
430,430,[-1.93961253e+03  3.41379811e+02 -2.30533749e-03 -1.31641694e+07],759,786.9024255626612
431,431,[-1.83530506e+03  3.43382228e+02 -2.12790764e-03 -1.31641694e+07],216,787.8300448990217
432,432,[-1.89484628e+03  3.41379397e+02 -2.41730114e-03 -1.31641694e+07],222,789.533451079025
433,433,[-2.32819329e+03  3.37375708e+02 -3.36076438e-03 -1.31641694e+07],454,787.6363512612679
434,434,[-1.80947292e+03  3.44383934e+02 -2.02873558e-03 -1.31641694e+07],313,787.9876880399584
435,435,[-3.25578401e+03  3.29366166e+02 -7.02839127e-03 -1.31641694e+07],497,788.0197448178694
436,436,[-2.08965737e+03  3.40378449e+02 -2.49971609e-03 -1.31641694e+07],386,786.1055438843833
437,437,[-2.08019139e+03  3.40378419e+02 -2.52489831e-03 -1.31641694e+07],39,786.8883288366701
438,438,[-3.29752905e+03  3.29366294e+02 -6.94476728e-03 -1.31641694e+07],218,787.5741020370332
439,439,[-2.21762025e+03  3.39377903e+02 -2.78405763e-03 -1.31641694e+07],446,787.8228238248151
440,440,[-2.36971521e+03  3.37375223e+02 -3.30274749e-03 -1.31641694e+07],462,787.2799027669123
441,441,[-3.58981049e+03  3.28364860e+02 -7.68783261e-03 -1.31641694e+07],484,789.1248527553203
442,442,[-2.26868051e+03  3.37375098e+02 -3.25984496e-03 -1.31641694e+07],174,787.1688723101109
443,443,[-1.77850951e+03  3.44384063e+02 -2.26916630e-03 -1.31641694e+07],776,786.9152059704503
444,444,[-3.63930217e+03  3.29366013e+02 -7.97504137e-03 -1.31641694e+07],418,785.7587591817977
445,445,[-1.71652998e+03  3.44382692e+02 -2.11538462e-03 -1.31641694e+07],198,787.9308079264326
446,446,[-2.09798623e+03  3.39377215e+02 -3.10796702e-03 -1.31641694e+07],236,786.2336851617328
447,447,[-3.35950810e+03  3.28364956e+02 -7.44619979e-03 -1.31641694e+07],656,785.8434845652462
448,448,[-2.52760912e+03  3.34371794e+02 -4.06980060e-03 -1.31641694e+07],47,789.7191355382337
449,449,[-3.23793585e+03  3.29365978e+02 -6.89674478e-03 -1.31641694e+07],219,790.2639574316203
450,450,[-2.09439617e+03  3.40378872e+02 -2.80596496e-03 -1.31641694e+07],413,788.7887582963707
451,451,[-2.26501550e+03  3.37374931e+02 -3.12900960e-03 -1.31641694e+07],737,790.1110883778052
452,452,[-3.32269432e+03  3.28364948e+02 -6.98296665e-03 -1.31641694e+07],605,787.027494980176
453,453,[-1.70203694e+03  3.44383288e+02 -2.07487800e-03 -1.31641694e+07],165,788.8302518449204
454,454,[-1.89025365e+03  3.40378846e+02 -2.93030460e-03 -1.31641694e+07],124,786.2915988254534
455,455,[-2.86905502e+03  3.29366016e+02 -6.66086645e-03 -1.31641694e+07],234,784.8539302714191
456,456,[-3.15926366e+03  3.28365076e+02 -8.73054749e-03 -1.31641694e+07],166,787.2329923867804
457,457,[-3.11508648e+03  3.29366103e+02 -7.55521131e-03 -1.31641694e+07],325,787.155741526577
458,458,[-3.02415126e+03  3.30367098e+02 -7.22313901e-03 -1.31641694e+07],411,785.2464756725666
459,459,[-1.88868518e+03  3.40378309e+02 -2.89248209e-03 -1.31641694e+07],552,785.5404833251054
460,460,[-1.68733234e+03  3.44382882e+02 -2.40238153e-03 -1.31641694e+07],523,785.5555156666911
461,461,[-3.07813579e+03  3.27363773e+02 -8.54293004e-03 -1.31641694e+07],551,783.9274773094266
462,462,[-3.37741579e+03  3.28364993e+02 -9.52874410e-03 -1.31641694e+07],583,786.2312236574309
463,463,[-2.05729539e+03  3.37375728e+02 -3.59773622e-03 -1.31641694e+07],133,785.585285766879
464,464,[-3.42559029e+03  3.28364889e+02 -7.47234751e-03 -1.31641694e+07],45,787.2841230423708
465,465,[-3.52743903e+03  3.29366028e+02 -7.42670956e-03 -1.31641694e+07],436,788.5478800345309
466,466,[-2.09751000e+03  3.40378777e+02 -2.76184222e-03 -1.31641694e+07],658,787.1883145715842
467,467,[-2.00383986e+03  3.41379554e+02 -2.63507103e-03 -1.31641694e+07],351,785.5240290217622
468,468,[-3.30066778e+03  3.29365996e+02 -7.01472828e-03 -1.31641694e+07],481,788.3758008744991
469,469,[-1.71523379e+03  3.44382980e+02 -1.98499533e-03 -1.31641694e+07],492,787.720957624892
470,470,[-1.96953772e+03  3.42380884e+02 -2.34771253e-03 -1.31641694e+07],779,783.514393855819
471,471,[-1.62887647e+03  3.46385003e+02 -1.86550473e-03 -1.31641694e+07],672,778.1348646883179
472,472,[-3.53523574e+03  3.28364878e+02 -7.12611708e-03 -1.31641694e+07],228,776.6088921930884
473,473,[-2.19847468e+03  3.40378661e+02 -2.56243375e-03 -1.31641694e+07],310,781.4350397512054
474,474,[-2.24991096e+03  3.39377437e+02 -2.76557695e-03 -1.31641694e+07],508,782.8380510617843
475,475,[-3.84254382e+03  3.27363996e+02 -9.13577805e-03 -1.31641694e+07],194,786.5255755953337
476,476,[-3.47907967e+03  3.28365029e+02 -6.98125543e-03 -1.31641694e+07],309,788.190433365313
477,477,[-2.56223367e+03  3.34371849e+02 -4.13022435e-03 -1.31641694e+07],765,789.1358898244667
478,478,[-1.74339829e+03  3.44382706e+02 -2.21938653e-03 -1.31641694e+07],230,788.2208233281544
479,479,[-3.36797876e+03  3.29366042e+02 -7.15413838e-03 -1.31641694e+07],673,789.2633091731618
480,480,[-1.90470139e+03  3.41379391e+02 -2.37665085e-03 -1.31641694e+07],312,788.887555712858
481,481,[-1.92166283e+03  3.41379637e+02 -2.28275099e-03 -1.31641694e+07],189,786.0964615866426
482,482,[-1.81142894e+03  3.44382791e+02 -2.23904667e-03 -1.31641694e+07],538,784.5055483883251
483,483,[-1.84718135e+03  3.44382705e+02 -2.20999579e-03 -1.31641694e+07],653,783.1431547100253
484,484,[-3.76379550e+03  3.28364912e+02 -7.73388565e-03 -1.31641694e+07],534,786.2221620801816
485,485,[-3.46528114e+03  3.28364854e+02 -7.31995196e-03 -1.31641694e+07],357,787.2233222732143
486,486,[-1.83283696e+03  3.43381723e+02 -2.22410219e-03 -1.31641694e+07],736,788.7026117958849
487,487,[-2.61827524e+03  3.34371752e+02 -4.26013340e-03 -1.31641694e+07],749,788.7889244403741
488,488,[-3.06487170e+03  3.30367418e+02 -5.91711536e-03 -1.31641694e+07],537,789.9972422727512
489,489,[-2.31676205e+03  3.37375083e+02 -3.21724830e-03 -1.31641694e+07],212,789.9170707173862
490,490,[-1.89143334e+03  3.43382001e+02 -2.11901391e-03 -1.31641694e+07],526,788.4585580180943
491,491,[-3.33669761e+03  3.29366121e+02 -6.95254075e-03 -1.31641694e+07],360,789.6254314002133
492,492,[-3.08387202e+03  3.29366226e+02 -5.92604294e-03 -1.31641694e+07],273,786.0949603125728
493,493,[-1.80748035e+03  3.44382792e+02 -2.01475771e-03 -1.31641694e+07],595,787.3321873461733
494,494,[-2.28506495e+03  3.39377266e+02 -2.76117939e-03 -1.31641694e+07],65,787.2614909051255
495,495,[-1.88572824e+03  3.43382199e+02 -2.21519593e-03 -1.31641694e+07],447,781.5994093073415
496,496,[-3.33588274e+03  3.29366113e+02 -6.54364553e-03 -1.31641694e+07],247,787.0975560485758
497,497,[-2.38909155e+03  3.36373929e+02 -3.44215284e-03 -1.31641694e+07],652,786.2789681100238
498,498,[-2.00552404e+03  3.42381144e+02 -2.24315047e-03 -1.31641694e+07],317,785.0689439144662
499,499,[-3.43439834e+03  3.29366103e+02 -7.17875111e-03 -1.31641694e+07],278,785.564326389701
500,500,[-2.12367944e+03  3.39377090e+02 -2.75329654e-03 -1.31641694e+07],22,787.0485727795719
501,501,[-2.00057566e+03  3.41379461e+02 -2.49699845e-03 -1.31641694e+07],226,788.1037242310603
502,502,[-1.92684059e+03  3.41379988e+02 -2.38558178e-03 -1.31641694e+07],345,789.8264687102035
503,503,[-3.34866650e+03  3.29366067e+02 -6.83440189e-03 -1.31641694e+07],444,789.9780723678145
504,504,[-2.18538319e+03  3.39377241e+02 -2.83919606e-03 -1.31641694e+07],213,788.0740356755576
505,505,[-1.99919733e+03  3.42380543e+02 -2.27888227e-03 -1.31641694e+07],21,789.0024855817975
506,506,[-3.26773652e+03  3.29366108e+02 -6.96357993e-03 -1.31641694e+07],158,789.3949742645868
507,507,[-1.98066257e+03  3.41379871e+02 -2.39319261e-03 -1.31641694e+07],105,787.8318034781194
508,508,[-2.00428190e+03  3.41379710e+02 -2.50139059e-03 -1.31641694e+07],733,786.0751986614957
509,509,[-2.03320040e+03  3.40378322e+02 -2.48244869e-03 -1.31641694e+07],735,783.5655169878523
510,510,[-3.48282321e+03  3.29365991e+02 -7.24477237e-03 -1.31641694e+07],582,785.4060278742623
511,511,[-2.60375871e+03  3.34371611e+02 -3.99710365e-03 -1.31641694e+07],654,786.9332487248274
512,512,[-1.80900211e+03  3.44383428e+02 -2.17801973e-03 -1.31641694e+07],788,787.1970659323276
513,513,[-2.04836311e+03  3.39377145e+02 -2.67818801e-03 -1.31641694e+07],114,789.290345062781
514,514,[-3.59866625e+03  3.28364885e+02 -7.49869934e-03 -1.31641694e+07],665,789.2420872656969
515,515,[-1.77080602e+03  3.44383853e+02 -2.19555585e-03 -1.31641694e+07],463,789.3926672865643
516,516,[-2.36398132e+03  3.36373934e+02 -3.30114710e-03 -1.31641694e+07],46,789.8872755833501
517,517,[-3.63256909e+03  3.28365117e+02 -8.39606837e-03 -1.31641694e+07],356,789.5068297775223
518,518,[-1.84680787e+03  3.43381655e+02 -2.22030393e-03 -1.31641694e+07],499,788.6170303508195
519,519,[-1.95960542e+03  3.42380795e+02 -2.23761896e-03 -1.31641694e+07],460,787.638357231192
520,520,[-1.77201740e+03  3.43382028e+02 -2.06773938e-03 -1.31641694e+07],459,786.7338460489834
521,521,[-3.57521370e+03  3.28364939e+02 -7.57404821e-03 -1.31641694e+07],232,786.9930134493659
522,522,[-1.86247498e+03  3.43383249e+02 -2.20874001e-03 -1.31641694e+07],467,787.0512882626176
523,523,[-1.89904482e+03  3.43381590e+02 -2.07815577e-03 -1.31641694e+07],702,786.1235122613119
524,524,[-2.82869014e+03  3.32369597e+02 -4.55412744e-03 -1.31641694e+07],576,786.4977880083422
525,525,[-2.94905712e+03  3.31368483e+02 -5.38090533e-03 -1.31641694e+07],172,788.4889818181688
526,526,[-1.92034728e+03  3.42380667e+02 -2.43990187e-03 -1.31641694e+07],346,785.8832463379072
527,527,[-2.27784644e+03  3.37375168e+02 -3.14093238e-03 -1.31641694e+07],227,779.1619147748665
528,528,[-3.20251549e+03  3.30367151e+02 -6.23067541e-03 -1.31641694e+07],314,771.0087741386249
529,529,[-3.88542154e+03  3.27363793e+02 -8.58740131e-03 -1.31641694e+07],41,766.8709690130809
530,530,[-2.00771687e+03  3.41379574e+02 -2.21962340e-03 -1.31641694e+07],12,765.9589222010212
531,531,[-2.22855242e+03  3.38376365e+02 -2.70227292e-03 -1.31641694e+07],42,765.3144657742429
532,532,[-3.74204386e+03  3.27363804e+02 -7.00779055e-03 -1.31641694e+07],607,767.4579685170232
533,533,[-3.46152385e+03  3.28364866e+02 -6.95302679e-03 -1.31641694e+07],510,781.2171213540123
534,534,[-1.81031076e+03  3.44382745e+02 -2.22956610e-03 -1.31641694e+07],349,785.9263785585837
535,535,[-3.59416253e+03  3.28364886e+02 -7.74724961e-03 -1.31641694e+07],280,787.6003572968514
536,536,[-2.04071584e+03  3.39377105e+02 -2.76095289e-03 -1.31641694e+07],731,786.5154345442711
537,537,[-1.75480029e+03  3.44384584e+02 -2.25712892e-03 -1.31641694e+07],659,785.9030406307479
538,538,[-3.20959131e+03  3.30367171e+02 -6.02399108e-03 -1.31641694e+07],3,785.9486158755265
539,539,[-3.04354146e+03  3.32369470e+02 -5.27457003e-03 -1.31641694e+07],241,783.6906706704442
540,540,[-2.26959690e+03  3.38376337e+02 -3.28737981e-03 -1.31641694e+07],710,781.0724648372955
541,541,[-1.79211702e+03  3.44382649e+02 -2.20456184e-03 -1.31641694e+07],299,782.8925473764116
542,542,[-3.34687048e+03  3.29366207e+02 -6.96585295e-03 -1.31641694e+07],366,784.1176713245289
543,543,[-2.64595289e+03  3.33370765e+02 -4.21921007e-03 -1.31641694e+07],458,787.1622829143338
544,544,[-3.22073271e+03  3.29366046e+02 -6.83746919e-03 -1.31641694e+07],220,787.7708016364061
545,545,[-2.07504080e+03  3.40378428e+02 -2.60547083e-03 -1.31641694e+07],214,788.3524903266313
546,546,[-3.85527313e+03  3.27363913e+02 -8.92103770e-03 -1.31641694e+07],238,788.004725212003
547,547,[-3.38923371e+03  3.28364873e+02 -7.61230527e-03 -1.31641694e+07],348,787.8108268863343
548,548,[-2.37497444e+03  3.36373957e+02 -3.46206990e-03 -1.31641694e+07],683,789.4280930120975
549,549,[-2.98808914e+03  3.31368699e+02 -5.86153106e-03 -1.31641694e+07],215,788.3525415363706
550,550,[-2.59108049e+03  3.34371644e+02 -4.14478458e-03 -1.31641694e+07],323,787.9972940013122
551,551,[-2.00265481e+03  3.41380764e+02 -2.55239823e-03 -1.31641694e+07],225,786.120331846978
552,552,[-1.97650738e+03  3.39377315e+02 -2.64528403e-03 -1.31641694e+07],419,786.128541947327
553,553,[-3.83847388e+03  3.27364106e+02 -9.10107640e-03 -1.31641694e+07],619,789.5725224314525
554,554,[-2.20223432e+03  3.38376975e+02 -2.87785965e-03 -1.31641694e+07],205,789.5123447381129
555,555,[-2.18682673e+03  3.38376266e+02 -2.87567662e-03 -1.31641694e+07],790,788.9477489403664
556,556,[-3.36352897e+03  3.29366205e+02 -7.17032347e-03 -1.31641694e+07],93,789.4871126668565
557,557,[-2.39426678e+03  3.36373896e+02 -3.46851993e-03 -1.31641694e+07],36,789.2814724290082
558,558,[-1.83070880e+03  3.44383193e+02 -2.18417715e-03 -1.31641694e+07],283,787.3156455860129
559,559,[-3.41248430e+03  3.29366045e+02 -7.01079717e-03 -1.31641694e+07],584,787.7135199593048
560,560,[-3.59836143e+03  3.28364892e+02 -7.78328581e-03 -1.31641694e+07],201,789.109771355382
561,561,[-1.89584475e+03  3.43381536e+02 -2.10620557e-03 -1.31641694e+07],203,788.2869351962754
562,562,[-1.79486542e+03  3.44383076e+02 -2.18395189e-03 -1.31641694e+07],24,788.25308213437
563,563,[-3.35808175e+03  3.29366253e+02 -6.47726644e-03 -1.31641694e+07],315,789.4388853724505
564,564,[-2.96945828e+03  3.30367096e+02 -5.66973392e-03 -1.31641694e+07],240,787.3510830305856
565,565,[-2.01310964e+03  3.39377730e+02 -3.26207111e-03 -1.31641694e+07],206,696.1631733285463
566,566,[-3.80315548e+03  3.28364869e+02 -9.37989834e-03 -1.31641694e+07],208,779.7492909868457
567,567,[-2.07942922e+03  3.41379412e+02 -2.32940967e-03 -1.31641694e+07],498,774.7002030038818
568,568,[-2.31905588e+03  3.39377156e+02 -2.56779282e-03 -1.31641694e+07],410,769.873626738418
569,569,[-3.61284245e+03  3.29366048e+02 -6.75672064e-03 -1.31641694e+07],243,766.8897302832526
570,570,[-3.37424161e+03  3.30367213e+02 -5.53100708e-03 -1.31641694e+07],40,753.2914090690783
571,571,[-3.75210367e+03  3.28364880e+02 -7.75968062e-03 -1.31641694e+07],207,750.58347379617
572,572,[-2.08414223e+03  3.41380308e+02 -2.32321882e-03 -1.31641694e+07],204,766.1938906537439
573,573,[-2.33925559e+03  3.38376500e+02 -2.95551707e-03 -1.31641694e+07],732,765.7909689862148
574,574,[-3.96104729e+03  3.27363778e+02 -8.59536906e-03 -1.31641694e+07],9,768.6648100842328
575,575,[-3.66033900e+03  3.29366090e+02 -6.82501338e-03 -1.31641694e+07],239,784.0607220031025
576,576,[-2.50353802e+03  3.36373993e+02 -3.46515290e-03 -1.31641694e+07],49,785.5026382223855
577,577,[-3.62696525e+03  3.28364951e+02 -8.04243978e-03 -1.31641694e+07],455,786.9304771108079
578,578,[-3.17170223e+03  3.30367103e+02 -5.91378455e-03 -1.31641694e+07],320,789.1061094876851
579,579,[-3.70398863e+03  3.28364982e+02 -8.01987409e-03 -1.31641694e+07],221,787.9954903679006
580,580,[-1.93845889e+03  3.42380744e+02 -2.46740038e-03 -1.31641694e+07],52,784.5342980139955
581,581,[-2.06756578e+03  3.41379407e+02 -2.54588165e-03 -1.31641694e+07],229,783.9862136784333
582,582,[-3.81830983e+03  3.28364859e+02 -8.79007702e-03 -1.31641694e+07],717,785.6668427541435
583,583,[-3.64628960e+03  3.28365066e+02 -8.49660348e-03 -1.31641694e+07],730,786.1164885131797
584,584,[-3.55977968e+03  3.29366090e+02 -7.89759187e-03 -1.31641694e+07],728,785.1222746470736
585,585,[-1.84061984e+03  3.43381821e+02 -2.26778265e-03 -1.31641694e+07],586,784.3101302051432
586,586,[-1.80832520e+03  3.44382791e+02 -2.18923548e-03 -1.31641694e+07],663,784.7135224750768
587,587,[-2.98058335e+03  3.31368254e+02 -5.18494496e-03 -1.31641694e+07],429,787.6996774295046
588,588,[-2.53151791e+03  3.34371638e+02 -4.04726073e-03 -1.31641694e+07],358,789.7471025060122
589,589,[-3.29752913e+03  3.29366335e+02 -6.94315069e-03 -1.31641694e+07],420,789.6655377248434
590,590,[-1.84209106e+03  3.43381718e+02 -2.28124467e-03 -1.31641694e+07],233,787.8317963706318
591,591,[-1.99282296e+03  3.41380008e+02 -2.55247193e-03 -1.31641694e+07],193,787.452233523079
592,592,[-3.47074381e+03  3.28365029e+02 -8.13642076e-03 -1.31641694e+07],365,788.2738939765665
593,593,[-3.27858729e+03  3.29366026e+02 -6.97922994e-03 -1.31641694e+07],23,790.276402610042
594,594,[-1.78558307e+03  3.43382719e+02 -2.20112595e-03 -1.31641694e+07],319,788.4631319747793
595,595,[-2.01889263e+03  3.41379394e+02 -2.52511469e-03 -1.31641694e+07],615,785.8519173710089
596,596,[-2.62808620e+03  3.33370566e+02 -4.36552588e-03 -1.31641694e+07],11,787.1597715181117
597,597,[-3.53772390e+03  3.28365102e+02 -7.30753404e-03 -1.31641694e+07],580,788.5399692887421
598,598,[-2.92238983e+03  3.32369328e+02 -5.02489929e-03 -1.31641694e+07],606,789.8855978120058
599,599,[-2.17551169e+03  3.39377380e+02 -2.93513285e-03 -1.31641694e+07],482,788.8782915654133
600,600,[-2.07039335e+03  3.39377326e+02 -2.62601740e-03 -1.31641694e+07],318,790.1504184703795
601,601,[-3.82919831e+03  3.27364023e+02 -8.68743049e-03 -1.31641694e+07],155,788.4196861539082
602,602,[-1.79038745e+03  3.44382837e+02 -2.24619010e-03 -1.31641694e+07],359,788.9969648152507
603,603,[-1.79341098e+03  3.44382874e+02 -2.24983966e-03 -1.31641694e+07],112,787.6643617464268
604,604,[-3.41269216e+03  3.29366154e+02 -7.11712981e-03 -1.31641694e+07],250,787.9569174018399
605,605,[-3.42411863e+03  3.29365962e+02 -7.29202926e-03 -1.31641694e+07],175,786.1683401453921
606,606,[-2.22372866e+03  3.38376860e+02 -2.98026229e-03 -1.31641694e+07],585,784.5225564066113
607,607,[-2.56000141e+03  3.35373011e+02 -3.88082428e-03 -1.31641694e+07],354,785.4077639800665
608,608,[-2.80591768e+03  3.32369436e+02 -4.73201279e-03 -1.31641694e+07],254,788.1070466566333
609,609,[-1.95074351e+03  3.42380560e+02 -2.29144699e-03 -1.31641694e+07],51,789.5826107324602
610,610,[-1.78183625e+03  3.44382797e+02 -2.15995947e-03 -1.31641694e+07],200,787.0695919255237
611,611,[-3.19914074e+03  3.30367161e+02 -6.47804926e-03 -1.31641694e+07],729,789.4751473629955
612,612,[-3.36830250e+03  3.29366015e+02 -7.15287934e-03 -1.31641694e+07],286,789.6923167840471
613,613,[-1.80274277e+03  3.44383475e+02 -2.25354318e-03 -1.31641694e+07],282,787.2613864047964
614,614,[-2.14115304e+03  3.40378346e+02 -2.50694894e-03 -1.31641694e+07],311,786.9975449908193
615,615,[-3.24413883e+03  3.30367100e+02 -5.97852817e-03 -1.31641694e+07],355,784.5562519664314
616,616,[-3.55860364e+03  3.28364917e+02 -7.93318992e-03 -1.31641694e+07],719,782.2654802985998
617,617,[-1.85348959e+03  3.44382675e+02 -1.91061443e-03 -1.31641694e+07],248,780.2898939393798
618,618,[-3.76664770e+03  3.28364882e+02 -7.47160987e-03 -1.31641694e+07],542,781.4084069209802
619,619,[-3.65079938e+03  3.29366134e+02 -7.63654074e-03 -1.31641694e+07],251,785.1386490221862
620,620,[-2.58824159e+03  3.34371621e+02 -3.92504762e-03 -1.31641694e+07],748,786.5464357408429
621,621,[-1.94642856e+03  3.42380457e+02 -2.25594542e-03 -1.31641694e+07],10,780.8694691628989
622,622,[-2.33827627e+03  3.38376244e+02 -2.96817767e-03 -1.31641694e+07],575,777.5453018907733
623,623,[-3.57664191e+03  3.29366218e+02 -6.75500441e-03 -1.31641694e+07],703,775.2410103896983
624,624,[-3.08872664e+03  3.32369454e+02 -5.18700760e-03 -1.31641694e+07],655,774.4072193876665
625,625,[-3.51096991e+03  3.28364961e+02 -7.06562433e-03 -1.31641694e+07],14,771.7081743280309
626,626,[-4.09359920e+03  3.28364965e+02 -8.26228179e-03 -1.31641694e+07],581,770.3190317729703
627,627,[-3.33043160e+03  3.31368212e+02 -5.30465321e-03 -1.31641694e+07],249,769.4311736004336
628,628,[-2.02379356e+03  3.42381357e+02 -2.24335715e-03 -1.31641694e+07],461,767.1730414091317
629,629,[-3.96204895e+03  3.28364928e+02 -8.72137383e-03 -1.31641694e+07],211,765.3131723852042
630,630,[-2.80183684e+03  3.33370567e+02 -4.18121800e-03 -1.31641694e+07],179,769.0537073176394
631,631,[-2.25174036e+03  3.38376300e+02 -2.88388322e-03 -1.31641694e+07],539,774.4226593519714
632,632,[-2.14731913e+03  3.40378296e+02 -2.44386347e-03 -1.31641694e+07],246,770.0591282045444
633,633,[-2.33175924e+03  3.37374867e+02 -2.91771231e-03 -1.31641694e+07],13,768.421569692442
634,634,[-3.76550410e+03  3.28365027e+02 -7.38416748e-03 -1.31641694e+07],509,771.6180144203876
635,635,[-1.80958626e+03  3.44382947e+02 -1.89275208e-03 -1.31641694e+07],231,773.6720870006545
636,636,[-2.36607882e+03  3.37375223e+02 -3.07855047e-03 -1.31641694e+07],177,773.1971294228701
637,637,[-3.73507137e+03  3.28364857e+02 -7.35475427e-03 -1.31641694e+07],688,775.781723987085
638,638,[-1.90441913e+03  3.43381755e+02 -2.10375854e-03 -1.31641694e+07],470,774.8648333662395
639,639,[-2.28026953e+03  3.39377110e+02 -2.81398444e-03 -1.31641694e+07],337,774.3835535143422
640,640,[-3.79480881e+03  3.28364873e+02 -7.89439124e-03 -1.31641694e+07],121,776.5050163988064
641,641,[-3.67701264e+03  3.28364981e+02 -7.65887044e-03 -1.31641694e+07],252,776.9672737206237
642,642,[-2.47944662e+03  3.37374949e+02 -3.12324353e-03 -1.31641694e+07],316,773.7220221202434
643,643,[-3.60683670e+03  3.28364977e+02 -7.05262493e-03 -1.31641694e+07],297,768.8398457854826
644,644,[-3.83685566e+03  3.28364962e+02 -7.50040539e-03 -1.31641694e+07],651,760.4164132951762
645,645,[-3.20762975e+03  3.31368310e+02 -5.31015471e-03 -1.31641694e+07],660,764.2911993770452
646,646,[-2.21404247e+03  3.38376651e+02 -2.80198463e-03 -1.31641694e+07],483,766.9367809154971
647,647,[-2.13928663e+03  3.39377662e+02 -2.60277561e-03 -1.31641694e+07],192,766.7212203582488
648,648,[-3.79715758e+03  3.28364902e+02 -7.66935581e-03 -1.31641694e+07],197,773.7709577847335
649,649,[-3.68703381e+03  3.28365018e+02 -7.48811481e-03 -1.31641694e+07],285,781.0384493116792
650,650,[-2.21188836e+03  3.38376011e+02 -2.79675031e-03 -1.31641694e+07],25,780.5590252172842
651,651,[-2.16983282e+03  3.39377137e+02 -2.78805342e-03 -1.31641694e+07],44,783.3124746177989
652,652,[-3.83722073e+03  3.28365016e+02 -8.28679854e-03 -1.31641694e+07],253,785.8122409166592
653,653,[-3.61145627e+03  3.28364943e+02 -7.59298568e-03 -1.31641694e+07],281,785.9337696402584
654,654,[-2.34095940e+03  3.37375107e+02 -3.14571324e-03 -1.31641694e+07],541,785.6659814424677
655,655,[-1.93386395e+03  3.42381172e+02 -2.30038777e-03 -1.31641694e+07],347,784.0116904095072
656,656,[-3.65422607e+03  3.28364898e+02 -7.90231802e-03 -1.31641694e+07],474,786.1993378441919
657,657,[-3.25567095e+03  3.30367215e+02 -5.98155081e-03 -1.31641694e+07],794,787.2422559033412
658,658,[-3.08765030e+03  3.30367221e+02 -6.26148335e-03 -1.31641694e+07],2,786.1018722102983
659,659,[-2.16442298e+03  3.39377388e+02 -2.89869636e-03 -1.31641694e+07],188,785.3277095702246
660,660,[-3.38664383e+03  3.28364905e+02 -6.94087363e-03 -1.31641694e+07],791,783.2699390140191
661,661,[-3.57681370e+03  3.28364902e+02 -7.44112414e-03 -1.31641694e+07],0,787.4800358794603
662,662,[-3.00002960e+03  3.28364902e+02 -9.18676470e-03 -1.31641694e+07],122,778.8325890403001
663,663,[-2.16528713e+03  3.39377207e+02 -2.79889958e-03 -1.31641694e+07],272,784.6991255246221
664,664,[-2.16943913e+03  3.40379469e+02 -2.50400343e-03 -1.31641694e+07],210,781.9473507087974
665,665,[-3.74250313e+03  3.28364979e+02 -8.38957879e-03 -1.31641694e+07],700,785.5857146877452
666,666,[-3.13471005e+03  3.30367463e+02 -6.05486785e-03 -1.31641694e+07],284,788.1672817303586
667,667,[-1.95058117e+03  3.41379313e+02 -2.47244984e-03 -1.31641694e+07],43,788.7333571819009
668,668,[-2.16254302e+03  3.39377588e+02 -2.83782857e-03 -1.31641694e+07],195,788.4088067146378
669,669,[-3.75351156e+03  3.28364914e+02 -8.56294820e-03 -1.31641694e+07],308,789.2869886573884
670,670,[-3.56251994e+03  3.28365041e+02 -7.41496687e-03 -1.31641694e+07],616,788.4992186800223
671,671,[-2.23878295e+03  3.37375358e+02 -3.14753534e-03 -1.31641694e+07],123,786.6632996061987
672,672,[-1.91558874e+03  3.42381168e+02 -2.41327890e-03 -1.31641694e+07],217,786.0915525937224
673,673,[-3.26618675e+03  3.30367269e+02 -6.52094736e-03 -1.31641694e+07],758,785.9848262521647
674,674,[-3.53481698e+03  3.29366099e+02 -7.32998196e-03 -1.31641694e+07],404,787.5579643266469
675,675,[-2.41788335e+03  3.35372820e+02 -3.71769593e-03 -1.31641694e+07],664,787.2970004335397
676,676,[-1.91936465e+03  3.42380448e+02 -2.31707710e-03 -1.31641694e+07],371,787.8709771977707
677,677,[-3.20003312e+03  3.30367322e+02 -6.20991759e-03 -1.31641694e+07],300,789.0326061071985
678,678,[-3.66186164e+03  3.29366004e+02 -7.73000634e-03 -1.31641694e+07],181,788.1066832972033
679,679,[-2.33314244e+03  3.37375094e+02 -3.26200890e-03 -1.31641694e+07],296,787.1272251221399
680,680,[-2.32699113e+03  3.38376284e+02 -2.95574759e-03 -1.31641694e+07],178,786.796451932618
681,681,[-2.15020982e+03  3.38377305e+02 -2.93887944e-03 -1.31641694e+07],290,786.3959811719125
682,682,[-3.51367623e+03  3.29365969e+02 -7.36252005e-03 -1.31641694e+07],421,786.3753244713848
683,683,[-2.37888492e+03  3.36373911e+02 -3.32070155e-03 -1.31641694e+07],704,785.1735430409898
684,684,[-2.20392725e+03  3.39377118e+02 -2.80750876e-03 -1.31641694e+07],495,786.6930580010761
685,685,[-3.60126803e+03  3.29366282e+02 -7.29404037e-03 -1.31641694e+07],1,786.4480018750239
686,686,[-3.48500020e+03  3.29366228e+02 -7.09669482e-03 -1.31641694e+07],422,788.5978813621201
687,687,[-1.91207154e+03  3.42381723e+02 -2.24528785e-03 -1.31641694e+07],242,787.3114983500955
688,688,[-2.28679955e+03  3.38376095e+02 -2.97230661e-03 -1.31641694e+07],473,783.5292819876502
689,689,[-2.04362862e+03  3.40378336e+02 -2.54267019e-03 -1.31641694e+07],618,779.3500366077226
690,690,[-3.14350286e+03  3.31368261e+02 -4.90344220e-03 -1.31641694e+07],180,773.4150888551417
691,691,[-2.43880454e+03  3.37374970e+02 -3.05105933e-03 -1.31641694e+07],533,771.19759497831
692,692,[-3.55347915e+03  3.29366013e+02 -7.21466497e-03 -1.31641694e+07],540,770.9801773505952
693,693,[-3.11233703e+03  3.31368255e+02 -5.09314251e-03 -1.31641694e+07],649,771.5407769633225
694,694,[-2.02325663e+03  3.41379321e+02 -2.25156630e-03 -1.31641694e+07],621,767.5475697534125
695,695,[-3.56898240e+03  3.29366023e+02 -6.43151918e-03 -1.31641694e+07],720,767.0797285830452
696,696,[-3.93624050e+03  3.28365047e+02 -7.84128974e-03 -1.31641694e+07],350,763.79242401003
697,697,[-3.80237211e+03  3.28364906e+02 -7.28324155e-03 -1.31641694e+07],650,763.5251612231641
698,698,[-2.38088147e+03  3.36373772e+02 -3.10947460e-03 -1.31641694e+07],705,768.2750549225124
699,699,[-2.22384374e+03  3.38376341e+02 -2.81445588e-03 -1.31641694e+07],617,773.7780263847452
700,700,[-3.89103504e+03  3.27363801e+02 -8.77085027e-03 -1.31641694e+07],298,782.4987201879061
701,701,[-3.61246300e+03  3.28364925e+02 -7.36043741e-03 -1.31641694e+07],566,786.6892228860382
702,702,[-1.96473525e+03  3.41379656e+02 -2.43533075e-03 -1.31641694e+07],409,785.5197502847813
703,703,[-2.24535126e+03  3.39377201e+02 -2.80000065e-03 -1.31641694e+07],689,784.0179864467203
704,704,[-3.05996774e+03  3.31368246e+02 -5.12571437e-03 -1.31641694e+07],196,781.6262969464851
705,705,[-3.34410769e+03  3.30367186e+02 -6.77624138e-03 -1.31641694e+07],527,780.5240341080663
706,706,[-1.83434796e+03  3.44383624e+02 -1.98933854e-03 -1.31641694e+07],662,777.6468677058929
707,707,[-2.14186137e+03  3.40378502e+02 -2.58076261e-03 -1.31641694e+07],423,776.1248212364748
708,708,[-2.54741440e+03  3.35372712e+02 -3.53897692e-03 -1.31641694e+07],709,774.2957502155028
709,709,[-3.73279001e+03  3.28364880e+02 -7.63444038e-03 -1.31641694e+07],471,778.484442632902
710,710,[-3.05611528e+03  3.31368289e+02 -5.08168510e-03 -1.31641694e+07],706,785.2762760231822
711,711,[-2.19010797e+03  3.39377175e+02 -2.76342926e-03 -1.31641694e+07],622,787.0357308057952
712,712,[-3.47604285e+03  3.29366144e+02 -7.12242560e-03 -1.31641694e+07],408,788.0153764712664
713,713,[-1.97724905e+03  3.40378520e+02 -2.43455773e-03 -1.31641694e+07],291,787.7493458910938
714,714,[-3.42627383e+03  3.29366462e+02 -7.45166886e-03 -1.31641694e+07],721,788.8624198472918
715,715,[-2.20489140e+03  3.39377316e+02 -2.74725894e-03 -1.31641694e+07],295,788.8205403959662
716,716,[-3.39154861e+03  3.29366068e+02 -6.85798582e-03 -1.31641694e+07],641,789.1731588555932
717,717,[-3.94975600e+03  3.29366011e+02 -8.54973490e-03 -1.31641694e+07],424,784.7727839584902
718,718,[-2.03717181e+03  3.41380002e+02 -2.42811452e-03 -1.31641694e+07],472,787.1435314708548
719,719,[-2.06332356e+03  3.41379479e+02 -2.54696331e-03 -1.31641694e+07],301,784.1262147061088
720,720,[-2.27372782e+03  3.37374898e+02 -3.07473539e-03 -1.31641694e+07],307,780.6954661866106
721,721,[-3.15063133e+03  3.30367100e+02 -6.17846959e-03 -1.31641694e+07],640,777.0499411098828
722,722,[-2.97736787e+03  3.32369311e+02 -4.68016518e-03 -1.31641694e+07],305,769.997419490827
723,723,[-1.82794302e+03  3.44382762e+02 -2.06616685e-03 -1.31641694e+07],727,767.8089615870311
724,724,[-2.32507744e+03  3.40378859e+02 -2.34909237e-03 -1.31641694e+07],182,759.8419609791395
725,725,[-1.91358888e+03  3.42380698e+02 -2.10398147e-03 -1.31641694e+07],707,754.5807178132761
726,726,[-3.86958171e+03  3.28365145e+02 -8.35433361e-03 -1.31641694e+07],407,765.6142783285522
727,727,[-3.89721718e+03  3.26363000e+02 -8.54870726e-03 -1.31641694e+07],405,776.4384695010405
728,728,[-2.05479028e+03  3.40378412e+02 -2.66862080e-03 -1.31641694e+07],637,784.720949172296
729,729,[-1.70609084e+03  3.45384754e+02 -1.97670564e-03 -1.31641694e+07],623,784.176128282245
730,730,[-2.05026126e+03  3.38376008e+02 -3.47589569e-03 -1.31641694e+07],183,784.7612203997827
731,731,[-3.36274752e+03  3.28365155e+02 -8.58482897e-03 -1.31641694e+07],406,785.34316048512
732,732,[-3.42707477e+03  3.28365012e+02 -9.14456251e-03 -1.31641694e+07],638,784.9312150236088
733,733,[-3.13500112e+03  3.29366004e+02 -7.06781994e-03 -1.31641694e+07],187,785.7200597604174
734,734,[-1.72751472e+03  3.43381749e+02 -2.38930357e-03 -1.31641694e+07],567,786.9664664263134
735,735,[-2.18971108e+03  3.37375800e+02 -3.41884558e-03 -1.31641694e+07],294,785.7017732646956
736,736,[-3.70989722e+03  3.27363780e+02 -1.14033962e-02 -1.31641694e+07],428,785.9092263355766
737,737,[-3.55293074e+03  3.27363879e+02 -1.03111252e-02 -1.31641694e+07],302,786.1700340209875
738,738,[-1.81882556e+03  3.42380673e+02 -2.33259207e-03 -1.31641694e+07],631,786.972505573726
739,739,[-1.94024040e+03  3.40379155e+02 -3.21357249e-03 -1.31641694e+07],624,786.4036372608367
740,740,[-3.38766928e+03  3.28365134e+02 -8.03282428e-03 -1.31641694e+07],639,786.7479086675664
741,741,[-3.34407886e+03  3.28365235e+02 -7.83528028e-03 -1.31641694e+07],708,786.8640157905825
742,742,[-3.44478587e+03  3.28364851e+02 -8.28640347e-03 -1.31641694e+07],293,786.9667683390306
743,743,[-3.11160648e+03  3.30367078e+02 -6.55929242e-03 -1.31641694e+07],306,787.7754818157194
744,744,[-2.14943714e+03  3.39377213e+02 -2.70872814e-03 -1.31641694e+07],699,786.9895975610436
745,745,[-3.46926860e+03  3.29366043e+02 -6.81134586e-03 -1.31641694e+07],648,787.2202431317049
746,746,[-3.64498460e+03  3.28364892e+02 -8.23305790e-03 -1.31641694e+07],642,788.4712640488374
747,747,[-2.41855430e+03  3.36374399e+02 -3.22285156e-03 -1.31641694e+07],635,787.7959547865304
748,748,[-1.68623552e+03  3.45384173e+02 -2.21533698e-03 -1.31641694e+07],690,784.077118158013
749,749,[-1.84523632e+03  3.43381862e+02 -2.09821488e-03 -1.31641694e+07],636,785.9043439831728
750,750,[-1.98207920e+03  3.40378274e+02 -2.46466258e-03 -1.31641694e+07],304,786.7114595351376
751,751,[-2.10253590e+03  3.39377570e+02 -2.67610577e-03 -1.31641694e+07],625,789.8901206293385
752,752,[-3.89694825e+03  3.28364870e+02 -8.94718155e-03 -1.31641694e+07],634,789.1028037544963
753,753,[-2.24669577e+03  3.38376701e+02 -2.88775815e-03 -1.31641694e+07],693,787.3328969226287
754,754,[-3.32298502e+03  3.30367127e+02 -6.50100594e-03 -1.31641694e+07],691,789.7393871200716
755,755,[-2.79160522e+03  3.32369350e+02 -4.83662948e-03 -1.31641694e+07],292,789.7857038415693
756,756,[-1.81289045e+03  3.43382315e+02 -2.18013180e-03 -1.31641694e+07],528,788.6139712933266
757,757,[-2.18926511e+03  3.39377627e+02 -2.75585044e-03 -1.31641694e+07],692,786.655465876766
758,758,[-3.91609787e+03  3.29366064e+02 -8.67186932e-03 -1.31641694e+07],184,782.1440638184177
759,759,[-2.53382985e+03  3.35372765e+02 -3.71088922e-03 -1.31641694e+07],425,786.3382674952164
760,760,[-1.98934932e+03  3.41379472e+02 -2.45935367e-03 -1.31641694e+07],626,786.6142283308286
761,761,[-2.15631761e+03  3.39377121e+02 -2.74612507e-03 -1.31641694e+07],303,789.066947698966
762,762,[-3.45952302e+03  3.29366079e+02 -6.68415362e-03 -1.31641694e+07],427,789.6668615246168
763,763,[-3.51357393e+03  3.29366040e+02 -7.86184450e-03 -1.31641694e+07],632,788.5027714677666
764,764,[-2.03844162e+03  3.41379368e+02 -2.51809310e-03 -1.31641694e+07],722,786.9320244055887
765,765,[-2.59660041e+03  3.35372814e+02 -3.87249479e-03 -1.31641694e+07],568,786.0452626160429
766,766,[-3.81038555e+03  3.28364882e+02 -7.86418126e-03 -1.31641694e+07],627,786.9352993983491
767,767,[-2.30880495e+03  3.37375162e+02 -3.09166569e-03 -1.31641694e+07],630,787.2413569272823
768,768,[-2.35271915e+03  3.38376372e+02 -2.94193108e-03 -1.31641694e+07],186,787.4076671038104
769,769,[-3.31845547e+03  3.30367203e+02 -5.92982789e-03 -1.31641694e+07],426,789.8440036654422
770,770,[-3.61795598e+03  3.29365963e+02 -7.15438835e-03 -1.31641694e+07],643,789.0740217763126
771,771,[-2.43100618e+03  3.37375086e+02 -3.35701238e-03 -1.31641694e+07],574,786.7165812310798
772,772,[-2.01516564e+03  3.42380660e+02 -2.25493454e-03 -1.31641694e+07],633,787.6860100778104
773,773,[-2.72947200e+03  3.33370775e+02 -4.33647815e-03 -1.31641694e+07],698,788.9019327478438
774,774,[-2.30362473e+03  3.37375974e+02 -3.25946225e-03 -1.31641694e+07],723,786.7303595688211
775,775,[-2.16242519e+03  3.40378369e+02 -2.58441568e-03 -1.31641694e+07],694,786.8000837240172
776,776,[-3.62636207e+03  3.29366130e+02 -6.76671734e-03 -1.31641694e+07],532,786.2188050816723
777,777,[-4.03681833e+03  3.27363842e+02 -9.44148875e-03 -1.31641694e+07],628,787.4769617504406
778,778,[-2.51245274e+03  3.35372883e+02 -3.79538461e-03 -1.31641694e+07],695,787.3507145711023
779,779,[-2.08520143e+03  3.41380537e+02 -2.57110180e-03 -1.31641694e+07],646,786.0947417380286
780,780,[-2.46709177e+03  3.35373115e+02 -3.66266885e-03 -1.31641694e+07],569,786.976610262614
781,781,[-3.30329974e+03  3.30367259e+02 -5.67344805e-03 -1.31641694e+07],529,789.533126747314
782,782,[-2.28672539e+03  3.38376048e+02 -2.85410193e-03 -1.31641694e+07],647,789.0917705416374
783,783,[-2.20078876e+03  3.39377185e+02 -2.77905338e-03 -1.31641694e+07],185,787.8232465970622
784,784,[-3.46704837e+03  3.29365995e+02 -6.98020452e-03 -1.31641694e+07],572,787.4834906045097
785,785,[-3.64142355e+03  3.28365070e+02 -7.46758986e-03 -1.31641694e+07],530,787.8093595621145
786,786,[-2.60759287e+03  3.35372873e+02 -3.69249361e-03 -1.31641694e+07],573,786.9611657706841
787,787,[-2.31947292e+03  3.39377345e+02 -2.67697460e-03 -1.31641694e+07],726,786.7121723458158
788,788,[-2.97726262e+03  3.31368190e+02 -4.90001729e-03 -1.31641694e+07],531,785.6006392503695
789,789,[-2.90734173e+03  3.32369337e+02 -4.69415327e-03 -1.31641694e+07],629,786.6587663560713
790,790,[-1.90825609e+03  3.42380971e+02 -2.26907482e-03 -1.31641694e+07],645,785.1277553032276
791,791,[-2.22105551e+03  3.38376077e+02 -2.81065448e-03 -1.31641694e+07],696,782.6661196802919
792,792,[-3.75409685e+03  3.28364874e+02 -8.14669026e-03 -1.31641694e+07],697,787.2724929092387
793,793,[-2.04326901e+03  3.40378324e+02 -2.50651564e-03 -1.31641694e+07],644,789.1855319067724
794,794,[-2.01865213e+03  3.41379937e+02 -2.65553278e-03 -1.31641694e+07],724,782.814865014447
795,795,[-3.31607992e+03  3.29366037e+02 -6.54263189e-03 -1.31641694e+07],725,789.0516977864963
796,796,[-2.13654085e+03  3.38376300e+02 -2.79261578e-03 -1.31641694e+07],570,789.3643021546932
797,797,[-2.04006965e+03  3.40378485e+02 -2.51827464e-03 -1.31641694e+07],571,786.9309196719483
798,798,[-2.36201320e+03  3.37375038e+02 -3.13411496e-03 -1.31641694e+07],565,787.3304166480392
799,799,[-3.49870155e+03  3.28364958e+02 -7.29665252e-03 -1.31641694e+07],799,688.0925344413951
