,0,1,2,3
0,0,"[-1.01513188e+03  3.76610018e+01 -1.22760358e-03  9.66735774e-02
 -3.06984392e+05  1.22479256e+02 -1.63628411e-03  4.74587821e-04
  2.91397737e+05  1.16957730e+02 -1.46485047e-03  2.33097052e-02
  1.62909761e+04  3.44686656e+01 -1.10739136e-02 -3.34190078e+00
 -1.59233346e+04  3.43848486e+01 -1.11873659e-02 -4.10625283e+00]",261,1026.5416638517033
1,1,[-3.89750999e+03  3.14309801e+02 -3.78436138e-03  8.23837633e-01],202,1028.3474436235767
2,2,[-2.91231933e+03  3.14732319e+02 -1.45395479e-03  1.05520237e+00],260,1024.4617327238186
3,3,[-2.47608711e+03  3.14873422e+02 -8.55794694e-04  1.20384793e+00],214,996.183989011328
4,4,[-3.50211306e+03  3.14771003e+02 -1.76284335e-03  8.90057426e-01],190,1003.9689253425133
5,5,[-3.26721281e+03  3.14503298e+02 -1.85843251e-03  9.13442884e-01],51,1018.8652150399986
6,6,[-3.39084756e+03  3.14472171e+02 -1.79338360e-03  9.26162822e-01],185,1032.624072091925
7,7,[-3.68228548e+03  3.14976053e+02 -3.60471833e-03  7.92341139e-01],600,1032.697090482484
8,8,[-2.82716554e+03  3.15247234e+02 -1.79855426e-03  1.05720282e+00],264,1035.6584398094897
9,9,[-3.82255369e+03  3.14446959e+02 -3.82971163e-03  7.60643082e-01],331,1037.9030166471834
10,10,[-3.42589680e+03  3.15557821e+02 -4.35772719e-03  7.35883464e-01],192,1033.1745311418492
11,11,[-3.86285302e+03  3.15412298e+02 -3.67075600e-03  7.21812897e-01],128,1032.8085667253663
12,12,[-3.58556721e+03  3.14908526e+02 -3.05314539e-03  8.04102679e-01],306,1008.568858443704
13,13,[-3.86818194e+03  3.14659853e+02 -2.63543036e-03  7.64836827e-01],137,1027.2597867944912
14,14,[-3.31619791e+03  3.13962360e+02 -1.91206117e-03  8.87385608e-01],199,1035.615251380361
15,15,[-2.92280556e+03  3.15082265e+02 -2.83662047e-03  1.09808915e+00],193,1033.6201910670595
16,16,[-3.42242005e+03  3.14837239e+02 -2.69258077e-03  9.33749977e-01],643,1038.7086716763845
17,17,[-3.79365583e+03  3.14603973e+02 -3.68082178e-03  7.63088403e-01],376,1038.3733608007233
18,18,[-3.16177792e+03  3.14357680e+02 -2.59756939e-03  1.02938879e+00],221,1037.0863363910155
19,19,[-4.04619467e+03  3.14025619e+02 -4.40574839e-03  7.08213035e-01],382,1032.0569386749066
20,20,[-3.42696188e+03  3.15734407e+02 -3.22516575e-03  9.53819083e-01],33,1036.2810158589161
21,21,[-3.45534334e+03  3.15163360e+02 -3.20621680e-03  8.31123458e-01],126,1038.485944690745
22,22,[-3.64203789e+03  3.14551702e+02 -3.03771631e-03  8.14606960e-01],319,1036.7967791202516
23,23,[-3.29442518e+03  3.14892337e+02 -3.05383743e-03  8.89327054e-01],148,1040.301619460764
24,24,[-3.42642167e+03  3.15280192e+02 -2.37614849e-03  8.37943876e-01],160,1030.8110264467625
25,25,[-3.50661003e+03  3.14202523e+02 -3.78447289e-03  8.09415157e-01],200,1027.9069332092643
26,26,[-3.31457599e+03  3.15269184e+02 -3.02805833e-03  9.92073201e-01],40,1039.3484819838438
27,27,[-3.41854303e+03  3.15386833e+02 -2.39302523e-03  8.82691929e-01],718,1039.9119198334897
28,28,[-3.98767629e+03  3.14723206e+02 -4.31941597e-03  7.61667747e-01],215,1039.81736364595
29,29,[-3.01070250e+03  3.14643249e+02 -2.45464894e-03  1.16023237e+00],88,1036.1833885206836
30,30,[-3.64455994e+03  3.14682383e+02 -2.48788267e-03  8.35990956e-01],163,1038.3375719350643
31,31,[-3.78237517e+03  3.15008464e+02 -4.23560195e-03  7.83503963e-01],393,1036.2256363574188
32,32,[-3.26982439e+03  3.15619863e+02 -3.36083686e-03  8.87298804e-01],686,1038.600160036301
33,33,[-3.32452350e+03  3.14788848e+02 -3.23691870e-03  8.49274393e-01],159,1041.0475875885513
34,34,[-3.49617841e+03  3.14757973e+02 -3.76827805e-03  8.48152780e-01],89,1035.6048191974467
35,35,[-3.10528611e+03  3.15442375e+02 -3.42346451e-03  8.65372726e-01],145,1033.6004748777268
36,36,[-3.45108288e+03  3.14908397e+02 -3.24785626e-03  8.33732534e-01],129,1037.3157041352363
37,37,[-3.65978735e+03  3.14862081e+02 -4.51659981e-03  7.82464673e-01],204,1038.1468048318588
38,38,[-3.51111947e+03  3.15682711e+02 -3.21745503e-03  8.79891467e-01],338,1036.5978154027555
39,39,[-3.52279328e+03  3.14583894e+02 -3.44022326e-03  8.66528778e-01],117,1039.4454008127432
40,40,[-3.57554040e+03  3.15062419e+02 -4.20597660e-03  7.50285617e-01],305,1040.9240084434123
41,41,[-3.22621048e+03  3.15039308e+02 -3.37697227e-03  9.02921669e-01],279,1040.3830021171793
42,42,[-3.64234841e+03  3.15243093e+02 -5.20264838e-03  7.48020412e-01],407,1036.8958150657445
43,43,[-3.12120390e+03  3.15010772e+02 -2.38200898e-03  9.10465138e-01],243,1037.3544843811294
44,44,[-3.73295018e+03  3.15212597e+02 -3.16933362e-03  7.98249448e-01],265,1031.0470793565673
45,45,[-3.28192875e+03  3.15241936e+02 -3.75516050e-03  8.68198386e-01],278,1037.4911952364482
46,46,[-3.35062586e+03  3.15292354e+02 -2.32359187e-03  8.38871650e-01],492,1035.5154403612316
47,47,[-3.58779941e+03  3.14163982e+02 -2.36374536e-03  8.44105052e-01],235,1034.7345576222908
48,48,[-3.26669504e+03  3.14952846e+02 -2.92248665e-03  9.17527499e-01],150,1038.762091131917
49,49,[-3.57852365e+03  3.14718110e+02 -2.98032113e-03  8.18886143e-01],342,1037.543673251907
50,50,[-3.69808978e+03  3.15224472e+02 -4.50082855e-03  7.24486577e-01],158,1036.9654408645613
51,51,[-3.01090265e+03  3.14978193e+02 -3.12785289e-03  9.58773062e-01],186,1041.4921218020263
52,52,[-3.48516781e+03  3.14877485e+02 -3.94775185e-03  8.60313210e-01],120,1036.3343770057184
53,53,[-2.63364408e+03  3.15499856e+02 -1.82661216e-03  1.00590607e+00],216,1037.5681099685376
54,54,[-3.73063079e+03  3.14661247e+02 -3.79133644e-03  7.68118204e-01],209,1037.079804672686
55,55,[-3.43675707e+03  3.14798856e+02 -4.08001496e-03  8.70800111e-01],325,1034.5522898514573
56,56,[-2.66639208e+03  3.15084946e+02 -1.45320598e-03  1.07074978e+00],41,1039.765709007226
57,57,[-3.30202054e+03  3.13986183e+02 -2.26550685e-03  9.70708870e-01],368,1031.32043089717
58,58,[-2.28617032e+03  3.14212734e+02 -7.43459386e-04  1.42309633e+00],211,1036.840249738886
59,59,[-3.35667694e+03  3.14658212e+02 -1.94621308e-03  9.72694613e-01],146,1032.7746518494955
60,60,[-3.38505405e+03  3.15114179e+02 -3.78787829e-03  9.03790531e-01],316,1037.3655655763512
61,61,[-3.12394539e+03  3.15194434e+02 -2.34559546e-03  9.04640348e-01],429,1037.1230880188373
62,62,[-3.54304403e+03  3.14366754e+02 -3.96929022e-03  8.43759633e-01],23,1036.5995544886698
63,63,[-3.00728286e+03  3.15325340e+02 -2.77404757e-03  1.01179767e+00],390,1039.1478555124786
64,64,[-3.50578762e+03  3.14987754e+02 -3.44865875e-03  8.96502939e-01],241,1035.462715281103
65,65,[-3.03863560e+03  3.15173310e+02 -2.73091956e-03  1.01068479e+00],225,1037.512958075002
66,66,[-3.11950705e+03  3.15005694e+02 -2.04439363e-03  9.24430490e-01],169,1035.4564738562162
67,67,[-3.22044974e+03  3.14500147e+02 -2.10499487e-03  9.35769610e-01],702,1037.154753623981
68,68,[-3.04581324e+03  3.14679322e+02 -2.21188454e-03  9.19628458e-01],121,1039.3934189276827
69,69,[-3.65930476e+03  3.14367281e+02 -3.44168788e-03  8.04115631e-01],266,1034.863801681175
70,70,[-3.05923539e+03  3.14989133e+02 -2.88041557e-03  9.33851264e-01],326,1039.639519287186
71,71,[-3.61348160e+03  3.14916300e+02 -3.03658336e-03  8.43541871e-01],322,1037.9698491145941
72,72,[-3.30649674e+03  3.14969227e+02 -1.89662492e-03  9.41699595e-01],579,1032.5642142803647
73,73,[-3.14320083e+03  3.15287146e+02 -2.88137327e-03  9.33995101e-01],528,1038.7014056075748
74,74,[-3.71750940e+03  3.15322510e+02 -3.53427674e-03  8.19327729e-01],336,1031.451214908402
75,75,[-3.42329617e+03  3.15498985e+02 -3.56919078e-03  8.81741500e-01],1036,1037.6546461289126
76,76,[-3.42824738e+03  3.15308620e+02 -3.19009910e-03  8.52951220e-01],660,1039.7308580528284
77,77,[-3.59093811e+03  3.16386524e+02 -3.23302981e-03  8.50365695e-01],109,1020.7537761531463
78,78,[-3.09001382e+03  3.15031799e+02 -2.55121352e-03  9.60448776e-01],317,1039.0798304802722
79,79,[-3.66115072e+03  3.15235247e+02 -3.70841148e-03  7.70928013e-01],372,1016.5053054288092
80,80,[-2.89273530e+03  3.14220460e+02 -1.14706220e-03  1.05178853e+00],410,1002.9945609692588
81,81,[-3.29153960e+03  3.15623744e+02 -2.44149200e-03  9.38072150e-01],431,1005.8518879877249
82,82,[-3.49088985e+03  3.15510049e+02 -2.17909551e-03  8.18467393e-01],1004,1030.2506456154088
83,83,[-3.69201714e+03  3.15068079e+02 -2.68808245e-03  7.93223075e-01],416,1032.4128016008185
84,84,[-3.31989297e+03  3.15512492e+02 -2.52704723e-03  8.74026982e-01],184,1036.0752880593689
85,85,[-3.70248270e+03  3.14612378e+02 -3.13330419e-03  7.69074051e-01],379,1039.919718846219
86,86,[-3.64638741e+03  3.14118301e+02 -3.06439338e-03  8.60244907e-01],149,1035.7724644544053
87,87,[-2.91197575e+03  3.14896721e+02 -2.38070181e-03  1.07202170e+00],692,1036.026244084816
88,88,[-3.54007940e+03  3.14730445e+02 -2.96520089e-03  8.43992403e-01],883,1040.758377462197
89,89,[-3.17326653e+03  3.14557620e+02 -2.92553720e-03  8.88303998e-01],582,1040.63956124611
90,90,[-2.73818075e+03  3.15351913e+02 -1.96961765e-03  1.03611378e+00],282,1030.8504247101537
91,91,[-3.18100748e+03  3.14917674e+02 -2.58771195e-03  8.72844070e-01],300,1038.1856957755072
92,92,[-3.48824686e+03  3.15188263e+02 -3.05253158e-03  8.81533777e-01],85,1036.3094744574328
93,93,[-3.23303122e+03  3.14711349e+02 -2.91726562e-03  9.36407660e-01],27,1037.4723865643145
94,94,[-3.42807342e+03  3.14442018e+02 -2.29320186e-03  8.48434697e-01],594,1039.1156876471778
95,95,[-3.78497937e+03  3.14607394e+02 -4.50870497e-03  7.57993047e-01],143,1035.9731576708277
96,96,[-2.85716443e+03  3.14387346e+02 -6.94828162e-04  1.04497670e+00],804,1019.07283802729
97,97,[-3.96411041e+03  3.14781723e+02 -3.69079181e-03  6.95160834e-01],418,1029.5588612570164
98,98,[-3.40498891e+03  3.15378744e+02 -3.27734178e-03  8.46326162e-01],280,1034.4913123320814
99,99,[-3.15048560e+03  3.14762672e+02 -3.45130933e-03  9.41868091e-01],236,1034.5932410361454
100,100,[-2.95387438e+03  3.15153251e+02 -2.07171218e-03  9.17009063e-01],310,1022.0359728704111
101,101,[-3.62557851e+03  3.14312538e+02 -3.73786777e-03  7.60965477e-01],365,1011.6971599561521
102,102,[-3.36806150e+03  3.14632840e+02 -3.01919855e-03  8.39588265e-01],122,1025.293432231206
103,103,[-2.91411102e+03  3.14839057e+02 -3.32413175e-03  9.10243978e-01],28,995.4547219767652
104,104,[-3.55835277e+03  3.18255111e+02 -3.07653277e-03  7.75789345e-01],800,950.3956057403321
105,105,[-3.63758391e+03  3.15930435e+02 -3.03681799e-03  7.39440718e-01],922,1015.41680045291
106,106,[-2.72275003e+03  3.14493277e+02 -1.62888886e-03  9.53807113e-01],293,1019.858311701682
107,107,[-3.24160195e+03  3.14338016e+02 -2.58864665e-03  8.64523431e-01],56,1007.1768608706158
108,108,[-3.64225066e+03  3.16578194e+02 -4.64634218e-03  6.99363968e-01],694,1017.9941817151602
109,109,[-3.25627752e+03  3.14987774e+02 -3.35654501e-03  8.47690583e-01],474,1040.1605006712387
110,110,[-3.24785209e+03  3.15280173e+02 -2.64124794e-03  8.87055250e-01],157,1034.7961140721077
111,111,[-3.37024568e+03  3.14411878e+02 -3.02724843e-03  8.55289149e-01],76,1035.5878148278086
112,112,[-3.09099120e+03  3.14915697e+02 -3.09246394e-03  9.14039715e-01],206,1030.0087319342442
113,113,[-3.02945630e+03  3.14648146e+02 -1.59819238e-03  9.14752968e-01],687,1035.886050682082
114,114,[-3.17432386e+03  3.15440107e+02 -2.11947200e-03  9.14901516e-01],779,1031.8979481293516
115,115,[-3.06989362e+03  3.14487158e+02 -2.54014037e-03  9.55032103e-01],573,1035.650714807464
116,116,[-3.86593023e+03  3.15280655e+02 -3.65736853e-03  7.63615046e-01],624,1038.1910119685156
117,117,[-3.51698122e+03  3.14994429e+02 -4.31454882e-03  7.43914834e-01],187,1040.570637343616
118,118,[-3.08194886e+03  3.15260549e+02 -3.09469581e-03  9.73651212e-01],252,1038.4586405660064
119,119,[-3.54799905e+03  3.15495579e+02 -3.47419828e-03  7.58989257e-01],124,1038.3443646764529
120,120,[-3.50092825e+03  3.15159824e+02 -3.67251470e-03  8.54075779e-01],167,1040.4170009558652
121,121,[-3.00412336e+03  3.15403279e+02 -2.59502543e-03  9.50586733e-01],680,1040.2330933600795
122,122,[-3.85354503e+03  3.15129718e+02 -5.24575074e-03  6.77130405e-01],451,1039.824646083741
123,123,[-3.15531918e+03  3.15399184e+02 -3.33321340e-03  1.00111379e+00],454,1038.4290710452783
124,124,[-3.46145948e+03  3.14884128e+02 -3.81047649e-03  8.71882919e-01],156,1039.6832867629485
125,125,[-3.72088654e+03  3.15723388e+02 -4.75349611e-03  7.88343050e-01],70,1037.0870605484288
126,126,[-3.38549461e+03  3.15420109e+02 -3.46873895e-03  8.46365774e-01],531,1041.0355472399533
127,127,[-3.66256256e+03  3.14662158e+02 -4.05794381e-03  6.95585364e-01],299,1039.2084441846148
128,128,[-3.54914607e+03  3.15192686e+02 -4.55423896e-03  7.96717401e-01],332,1041.265228257885
129,129,[-2.87396487e+03  3.15557486e+02 -2.48907275e-03  9.58612028e-01],597,1040.6306877361337
130,130,[-3.80675887e+03  3.15066464e+02 -4.11528596e-03  7.49612193e-01],341,1038.780517926269
131,131,[-3.31778516e+03  3.14708314e+02 -3.09254365e-03  8.60315096e-01],734,1036.732131460759
132,132,[-3.17584362e+03  3.15214429e+02 -3.16739596e-03  8.16350814e-01],170,1036.046785234933
133,133,[-3.36968012e+03  3.15545053e+02 -2.95563005e-03  8.79063583e-01],941,1030.3547712557572
134,134,[-3.23053450e+03  3.15568014e+02 -3.44380865e-03  8.91886276e-01],769,1036.7403978888858
135,135,[-3.11226801e+03  3.14222520e+02 -1.65400149e-03  9.25425649e-01],208,1036.264732475558
136,136,[-3.69872676e+03  3.15237906e+02 -4.31610056e-03  7.44524137e-01],350,1039.5269186579387
137,137,[-3.22036056e+03  3.14882058e+02 -3.11564877e-03  9.56640862e-01],154,1041.1913829618356
138,138,[-3.51680960e+03  3.14798145e+02 -2.61050574e-03  7.95057899e-01],863,1039.4374646509643
139,139,[-3.35405212e+03  3.14783512e+02 -3.24850291e-03  8.85295618e-01],136,1038.098236661835
140,140,[-3.27681466e+03  3.15717495e+02 -3.88192209e-03  9.43428649e-01],348,1037.2089740536683
141,141,[-3.66426779e+03  3.15091980e+02 -4.22329200e-03  8.51443023e-01],198,1038.016342444954
142,142,[-2.91359221e+03  3.14856931e+02 -3.08606353e-03  9.51209034e-01],242,1038.2167086317515
143,143,[-3.55579825e+03  3.14980654e+02 -3.69623795e-03  8.02686965e-01],424,1039.8928312725934
144,144,[-3.78261799e+03  3.15202247e+02 -4.80060192e-03  7.46332849e-01],383,1038.2185482282605
145,145,[-3.24337729e+03  3.15372968e+02 -3.45874014e-03  8.97620616e-01],603,1040.6342333064617
146,146,[-3.47920045e+03  3.14546556e+02 -2.66977054e-03  7.69957518e-01],39,1040.356583731393
147,147,[-4.03759171e+03  3.15500480e+02 -5.79551913e-03  6.67503898e-01],172,1038.441209573511
148,148,[-3.06767257e+03  3.15427472e+02 -2.62498754e-03  9.85735997e-01],742,1040.9762735198947
149,149,[-3.73726676e+03  3.14836189e+02 -3.60097011e-03  7.40014347e-01],649,1040.0025501826399
150,150,[-3.20873362e+03  3.14828033e+02 -3.08675273e-03  9.38219480e-01],138,1040.4420881628103
151,151,[-3.27865655e+03  3.14837995e+02 -3.55940916e-03  7.71669168e-01],673,1036.914987146456
152,152,[-3.52179423e+03  3.14607700e+02 -4.13603669e-03  8.91843190e-01],205,1038.7190136480485
153,153,[-3.16317268e+03  3.15577774e+02 -2.93022248e-03  9.26335713e-01],285,1038.818928232591
154,154,[-3.33178817e+03  3.15323382e+02 -2.46799182e-03  8.78221598e-01],426,1039.5373463341862
155,155,[-3.70834808e+03  3.13776987e+02 -3.91152547e-03  7.65426579e-01],417,1035.9698990009674
156,156,[-3.21201390e+03  3.15122538e+02 -2.79527873e-03  9.40075205e-01],292,1039.647899565417
157,157,[-3.39022686e+03  3.14492183e+02 -2.79677437e-03  8.69221286e-01],511,1039.7542712873294
158,158,[-3.34462943e+03  3.14343938e+02 -2.86211057e-03  8.75030236e-01],766,1040.435891426237
159,159,[-3.25290439e+03  3.15094940e+02 -3.21472369e-03  7.74002791e-01],68,1040.6796089004517
160,160,[-4.01609246e+03  3.14972261e+02 -4.37178455e-03  7.18725041e-01],816,1040.9744808926894
161,161,[-3.04077678e+03  3.14546641e+02 -2.18767053e-03  9.89297166e-01],423,1039.2284289971017
162,162,[-3.41299489e+03  3.14714472e+02 -3.34203828e-03  7.93955079e-01],203,1038.067877769363
163,163,[-3.37435313e+03  3.15094616e+02 -3.70561804e-03  8.43517376e-01],294,1040.73958019773
164,164,[-2.88341985e+03  3.15579486e+02 -2.46396867e-03  1.00610247e+00],220,1038.0142775201593
165,165,[-3.60488909e+03  3.14733840e+02 -2.82537038e-03  7.93786787e-01],547,1036.0909190522284
166,166,[-3.64332077e+03  3.15529593e+02 -5.14953764e-03  7.11312175e-01],708,1037.7635411205895
167,167,[-3.00058833e+03  3.14798073e+02 -2.45702311e-03  9.08844744e-01],26,1039.6730432523864
168,168,[-3.78716899e+03  3.14695714e+02 -3.99367661e-03  7.69328697e-01],194,1037.6091519437073
169,169,[-3.75412150e+03  3.14863407e+02 -4.22484432e-03  7.62391954e-01],534,1040.2621244388465
170,170,[-3.13420821e+03  3.15613080e+02 -3.25821993e-03  9.27739182e-01],819,1039.5592613145864
171,171,[-3.54053039e+03  3.14003631e+02 -3.84406240e-03  8.36443475e-01],522,1037.3328851539848
172,172,[-3.30455051e+03  3.15525262e+02 -3.63660225e-03  8.62557326e-01],580,1039.442926290174
173,173,[-2.92511167e+03  3.14964349e+02 -1.96903974e-03  1.05896588e+00],233,1036.346395573465
174,174,[-3.36993337e+03  3.15083929e+02 -3.31472858e-03  7.72978905e-01],809,1000.2754520821082
175,175,[-3.37351581e+03  3.15383942e+02 -2.67065427e-03  8.84608134e-01],435,992.0178373161341
176,176,[-3.02269082e+03  3.15312899e+02 -1.71111497e-03  9.90126444e-01],408,1024.8853286729668
177,177,[-3.32346319e+03  3.14618933e+02 -1.72251505e-03  8.55010575e-01],695,1033.0487991959087
178,178,[-4.02704945e+03  3.14028249e+02 -4.85984219e-03  6.77445593e-01],263,1026.2549874037861
179,179,[-3.48246661e+03  3.14752311e+02 -3.00293042e-03  8.86573333e-01],191,1036.8862368990972
180,180,[-3.82646880e+03  3.14554500e+02 -3.78606437e-03  7.32072766e-01],420,1035.6601662382943
181,181,[-3.47525414e+03  3.14629769e+02 -3.84916361e-03  7.86822646e-01],161,1036.955123117553
182,182,[-3.41574703e+03  3.14993038e+02 -4.03022508e-03  7.74829487e-01],886,1034.1394883048363
183,183,[-3.69256193e+03  3.15274522e+02 -3.51283628e-03  7.73431352e-01],717,1038.2138668700234
184,184,[-3.06421562e+03  3.15529101e+02 -2.86603107e-03  9.19054091e-01],127,1040.0626581777822
185,185,[-3.48590190e+03  3.15313250e+02 -3.40923609e-03  7.82852866e-01],277,1041.452963598443
186,186,[-3.84136616e+03  3.14938650e+02 -4.99125622e-03  7.03839118e-01],583,1040.4337233566737
187,187,[-3.02330486e+03  3.15447893e+02 -3.65507233e-03  9.14233351e-01],455,1039.6918945148527
188,188,[-3.67113125e+03  3.15525437e+02 -4.95504172e-03  7.77482106e-01],213,1038.1858127763549
189,189,[-3.58529060e+03  3.14349093e+02 -3.82666329e-03  8.12737562e-01],957,1037.2194547121792
190,190,[-2.72669875e+03  3.15237412e+02 -1.99038406e-03  9.82236747e-01],406,1041.578094694722
191,191,[-3.80133202e+03  3.14687643e+02 -3.59992875e-03  7.62980129e-01],63,1039.239047662056
192,192,[-3.16997702e+03  3.15377447e+02 -2.47306904e-03  9.12990044e-01],746,1041.2682571387961
193,193,[-3.81470694e+03  3.15378050e+02 -4.78574896e-03  7.16478298e-01],210,1041.1786638254548
194,194,[-3.68516957e+03  3.15320760e+02 -5.87512558e-03  6.69405622e-01],339,1039.3069102986694
195,195,[-3.09008831e+03  3.15879387e+02 -3.02776058e-03  9.16191952e-01],94,1038.4227426255293
196,196,[-3.52034920e+03  3.14172167e+02 -2.86927892e-03  8.10907077e-01],543,1036.057071155639
197,197,[-3.84736628e+03  3.14663148e+02 -5.81739642e-03  7.35872469e-01],78,1038.8549641670763
198,198,[-3.25350676e+03  3.15213683e+02 -3.97907090e-03  8.67693473e-01],758,1039.518585926202
199,199,[-3.62765273e+03  3.14725633e+02 -3.97241026e-03  7.74914022e-01],707,1041.1812086648583
200,200,[-3.59374533e+03  3.14908928e+02 -4.04005888e-03  8.24313589e-01],733,1040.9562151930731
201,201,[-3.03108272e+03  3.14790355e+02 -3.42382535e-03  8.39018709e-01],346,1038.4015838694909
202,202,[-3.38544729e+03  3.15023644e+02 -2.81950983e-03  8.19119223e-01],413,1041.9327806057215
203,203,[-3.47153737e+03  3.14425675e+02 -3.85029472e-03  8.77308008e-01],827,1039.3731208687234
204,204,[-3.10302374e+03  3.15411331e+02 -2.92091030e-03  9.40789895e-01],824,1040.6242841781007
205,205,[-3.42249881e+03  3.14456079e+02 -2.84139571e-03  8.69616728e-01],754,1039.425604814877
206,206,[-3.56778013e+03  3.14676505e+02 -4.62887485e-03  8.43134915e-01],894,1039.726491017529
207,207,[-3.23137997e+03  3.15592983e+02 -3.06757200e-03  8.61815396e-01],441,1037.606793068799
208,208,[-3.56407938e+03  3.14958943e+02 -3.76625140e-03  8.06298596e-01],532,1039.5451729730066
209,209,[-3.92959570e+03  3.14939077e+02 -5.20277135e-03  7.18273946e-01],598,1040.395898785109
210,210,[-3.25386581e+03  3.14509401e+02 -2.08663248e-03  8.24888023e-01],218,1039.1389189925558
211,211,[-3.59766406e+03  3.14692875e+02 -3.17606241e-03  7.91563789e-01],677,1040.3591691061606
212,212,[-3.68593506e+03  3.14739176e+02 -5.31521550e-03  7.49280910e-01],402,1038.4355760726871
213,213,[-2.93776051e+03  3.15219982e+02 -2.69870347e-03  1.00293447e+00],298,1039.1835046248364
214,214,[-3.42332640e+03  3.15521559e+02 -3.51721445e-03  7.40327421e-01],757,1041.6889677035567
215,215,[-3.58404536e+03  3.15074734e+02 -4.72944218e-03  7.59106595e-01],726,1040.8531426218244
216,216,[-3.18444749e+03  3.15570351e+02 -2.86077675e-03  9.02412421e-01],828,1040.3984953534766
217,217,[-3.58979256e+03  3.14728825e+02 -3.07828191e-03  7.70460024e-01],585,1035.6306548646178
218,218,[-3.51671879e+03  3.14652289e+02 -3.77028279e-03  8.76827763e-01],240,1038.9628381534183
219,219,[-3.21327456e+03  3.14965842e+02 -2.94165071e-03  8.55106636e-01],222,1036.257972957968
220,220,[-3.46873088e+03  3.14359333e+02 -2.89652435e-03  8.37952738e-01],716,1039.364506206474
221,221,[-3.11460112e+03  3.15321199e+02 -2.72193703e-03  8.81536582e-01],719,1041.149373113609
222,222,[-3.15876096e+03  3.14842257e+02 -2.23599858e-03  8.48542136e-01],763,1038.9047661173931
223,223,[-3.67828747e+03  3.15636444e+02 -3.45491270e-03  7.66775469e-01],400,1031.9986864405814
224,224,[-2.91118306e+03  3.15275327e+02 -2.27723743e-03  1.04668453e+00],197,1038.7829463115152
225,225,[-3.19825597e+03  3.14576463e+02 -2.41895970e-03  8.66868941e-01],397,1040.2752529247582
226,226,[-3.75282820e+03  3.15167825e+02 -4.51572005e-03  7.22820666e-01],153,1037.7143438131297
227,227,[-3.15736051e+03  3.15046759e+02 -3.20416067e-03  8.49134095e-01],333,1037.1169548543432
228,228,[-3.47163649e+03  3.14352592e+02 -2.55069312e-03  8.65119670e-01],540,1037.0638150512837
229,229,[-3.36898432e+03  3.15738737e+02 -2.89906791e-03  8.98312195e-01],224,1032.4726179246138
230,230,[-3.61685051e+03  3.15952362e+02 -4.49119750e-03  7.48919079e-01],130,1035.7809796224767
231,231,[-3.69230042e+03  3.14363580e+02 -3.23866887e-03  8.46680791e-01],630,1036.7060796523233
232,232,[-3.40130024e+03  3.15154936e+02 -3.77966541e-03  8.22192029e-01],409,1038.5614640752528
233,233,[-3.35496332e+03  3.14842746e+02 -3.11445444e-03  7.79713578e-01],267,1039.2743720413825
234,234,[-3.52032892e+03  3.15164192e+02 -4.44455693e-03  8.35255046e-01],48,1037.6563340339235
235,235,[-3.34181342e+03  3.15584829e+02 -3.52944979e-03  9.29760767e-01],443,1040.4723987647928
236,236,[-3.81618030e+03  3.15437267e+02 -4.06396893e-03  6.94075580e-01],434,1039.8614922007996
237,237,[-3.61388131e+03  3.14515321e+02 -4.46680636e-03  8.13682714e-01],276,1036.4968622529548
238,238,[-3.20795794e+03  3.15342371e+02 -2.96660402e-03  8.16849063e-01],427,1038.1744655979633
239,239,[-3.64078423e+03  3.14596470e+02 -3.92030683e-03  7.90685708e-01],152,1036.0772640746309
240,240,[-3.13586942e+03  3.14767166e+02 -2.78377368e-03  9.53679798e-01],16,1038.916896430666
241,241,[-3.52542251e+03  3.15375015e+02 -3.61608951e-03  8.14807628e-01],556,1040.2815175077187
242,242,[-3.70676507e+03  3.14925381e+02 -5.00996713e-03  7.45186823e-01],73,1039.5160451165427
243,243,[-3.33767024e+03  3.15049236e+02 -3.89265900e-03  8.73883605e-01],249,1040.5506955434264
244,244,[-3.79897577e+03  3.14601454e+02 -3.32530332e-03  7.81940638e-01],275,1038.535417633061
245,245,[-3.21578565e+03  3.15537042e+02 -3.27918856e-03  8.70564887e-01],377,1035.9337488578074
246,246,[-3.43891676e+03  3.15219139e+02 -3.31499313e-03  8.30683546e-01],588,1020.7698743244891
247,247,[-3.68002489e+03  3.15224277e+02 -2.70283066e-03  6.92910140e-01],691,1003.8317251046071
248,248,[-3.55891772e+03  3.15293246e+02 -2.09160193e-03  7.65190370e-01],396,1030.8005464209257
249,249,[-3.94231460e+03  3.14911092e+02 -4.56097988e-03  6.58446531e-01],899,1038.6959991394833
250,250,[-3.26101071e+03  3.15378530e+02 -2.60243171e-03  8.76717161e-01],313,1035.3067217323903
251,251,[-3.50212620e+03  3.14612783e+02 -2.37936039e-03  8.02014346e-01],337,1035.868882077973
252,252,[-3.27602274e+03  3.14904598e+02 -2.34599072e-03  9.14786977e-01],297,1039.684617522322
253,253,[-2.91512942e+03  3.14561237e+02 -1.96191253e-03  9.67586613e-01],318,1038.1407210931704
254,254,[-3.42710204e+03  3.15401769e+02 -3.05357940e-03  7.96647989e-01],836,1035.486655250752
255,255,[-2.90828797e+03  3.14552580e+02 -2.14466283e-03  9.26733635e-01],929,1024.707235458285
256,256,[-3.21916869e+03  3.15022601e+02 -1.89768678e-03  8.21198117e-01],689,1037.5593434653379
257,257,[-3.45166653e+03  3.14895415e+02 -2.89134280e-03  8.14333492e-01],448,1038.0964625749536
258,258,[-3.28960049e+03  3.14824403e+02 -3.27280064e-03  8.85300984e-01],32,1036.447628465479
259,259,[-3.42330598e+03  3.14367136e+02 -2.28635467e-03  8.48407547e-01],425,1037.5585576708017
260,260,[-3.14998122e+03  3.14674345e+02 -1.95422273e-03  9.09673641e-01],822,1041.7386249574315
261,261,[-3.42119976e+03  3.14899809e+02 -3.15925429e-03  8.40556272e-01],371,1041.9980860591486
262,262,[-3.58832686e+03  3.13956154e+02 -3.12023890e-03  8.46691227e-01],645,1036.8831569396893
263,263,[-3.06679176e+03  3.15434907e+02 -2.58191012e-03  9.11894394e-01],685,1039.2407647775606
264,264,[-3.07433121e+03  3.14660210e+02 -1.90661170e-03  9.46672585e-01],232,1041.385669143563
265,265,[-3.23658503e+03  3.14736557e+02 -2.60830285e-03  9.28136227e-01],736,1040.5197230141548
266,266,[-3.11099391e+03  3.14986564e+02 -2.62955360e-03  8.37891658e-01],378,1040.2273730613022
267,267,[-3.27694393e+03  3.14861212e+02 -2.37626441e-03  8.83224340e-01],340,1038.7672108923316
268,268,[-2.92203592e+03  3.14840172e+02 -2.82111501e-03  1.06247589e+00],244,1036.443185890965
269,269,[-7.35793784e+03  3.17066052e+02 -1.52339507e-02  2.85750256e-01],343,1028.7633185566738
270,270,[-3.75186019e+03  3.14186544e+02 -3.96706971e-03  7.67931856e-01],553,1036.8130398368855
271,271,[-3.14979651e+03  3.15094009e+02 -2.70878960e-03  9.06841493e-01],21,1035.442044176895
272,272,[-3.52489946e+03  3.15432527e+02 -2.77403705e-03  8.09191589e-01],794,1035.7175966535726
273,273,[-3.78870761e+03  3.15222246e+02 -3.67001815e-03  7.82260639e-01],535,1037.956410498313
274,274,[-3.04229021e+03  3.14824335e+02 -2.27349728e-03  9.73386230e-01],761,1037.4704695363241
275,275,[-3.37455518e+03  3.14339332e+02 -2.34306999e-03  8.63442180e-01],442,1038.6886591651173
276,276,[-3.54553331e+03  3.15506770e+02 -3.85221216e-03  8.25356155e-01],315,1038.7439029800971
277,277,[-3.38754116e+03  3.14550526e+02 -2.81049102e-03  7.50014671e-01],884,1039.200541289542
278,278,[-3.29037218e+03  3.14379609e+02 -2.86846051e-03  9.82585190e-01],977,1040.4961909465799
279,279,[-3.10138670e+03  3.15323911e+02 -2.80578938e-03  9.54044153e-01],118,1040.5612696341352
280,280,[-3.30393499e+03  3.15118698e+02 -2.07276224e-03  8.89770079e-01],401,1039.862949437621
281,281,[-3.06794162e+03  3.15104040e+02 -2.23056649e-03  9.34161419e-01],755,1038.2011997443508
282,282,[-2.90661780e+03  3.15352810e+02 -2.20543020e-03  9.75186196e-01],698,1039.936435705753
283,283,[-3.41813633e+03  3.14861560e+02 -2.32455065e-03  8.57283346e-01],538,1037.4914195195106
284,284,[-3.53134615e+03  3.14185563e+02 -2.89437029e-03  8.56609934e-01],147,1037.4344206706758
285,285,[-3.26534309e+03  3.15610426e+02 -3.10075983e-03  7.78886013e-01],212,1039.4241260618344
286,286,[-3.39653724e+03  3.14479664e+02 -2.90851701e-03  8.90269421e-01],679,1036.6440459808366
287,287,[-2.95257017e+03  3.15499123e+02 -2.22978481e-03  1.01597913e+00],625,1032.1860557398988
288,288,[-3.37664705e+03  3.14965798e+02 -2.17499340e-03  8.02940276e-01],123,1035.8006177822513
289,289,[-3.42204670e+03  3.15452932e+02 -4.05374893e-03  8.54023858e-01],195,1037.9205247134116
290,290,[-2.71427518e+03  3.15153377e+02 -1.29275861e-03  1.08624732e+00],681,1022.6864451194142
291,291,[-2.79349653e+03  3.14405765e+02 -1.09242386e-03  1.11571564e+00],517,1037.859488323794
292,292,[-3.10422905e+03  3.14341121e+02 -2.75861199e-03  9.80705745e-01],201,1039.406789317596
293,293,[-3.13572139e+03  3.15096391e+02 -2.87715780e-03  8.97182653e-01],385,1039.774270789984
294,294,[-3.31789038e+03  3.14244806e+02 -2.08571107e-03  8.99254128e-01],391,1039.3677960124448
295,295,[-3.57299131e+03  3.14562684e+02 -3.44773763e-03  8.24737376e-01],908,1038.0144176298954
296,296,[-3.09674114e+03  3.14752526e+02 -2.27358054e-03  8.25795691e-01],17,1038.2952171047014
297,297,[-3.29520922e+03  3.15105842e+02 -2.51317944e-03  9.19961092e-01],527,1038.6410683206382
298,298,[-3.03121412e+03  3.15274690e+02 -2.78642485e-03  9.12173655e-01],633,1038.9510344386176
299,299,[-3.29429440e+03  3.14505085e+02 -2.73134789e-03  8.95849802e-01],422,1039.6220638828875
300,300,[-3.15163917e+03  3.14476360e+02 -2.29257595e-03  9.96276184e-01],473,1039.932871533867
301,301,[-3.30030682e+03  3.15504173e+02 -3.64157334e-03  8.49574455e-01],1052,1036.8962947038067
302,302,[-3.49024694e+03  3.14451548e+02 -2.79725035e-03  8.12643755e-01],119,1037.7736937377394
303,303,[-3.86565705e+03  3.14485823e+02 -4.78700884e-03  7.97920962e-01],791,1037.6698473672586
304,304,[-2.83787433e+03  3.15122048e+02 -1.55853519e-03  9.67649353e-01],30,1034.7906308994295
305,305,[-3.50418676e+03  3.14818333e+02 -2.59339528e-03  8.01489124e-01],593,1040.5614734132535
306,306,[-3.44640304e+03  3.15002541e+02 -4.20335252e-03  8.59784492e-01],1037,1041.206374379836
307,307,[-3.38271776e+03  3.15029872e+02 -3.90952351e-03  8.29923754e-01],549,1037.3051633369816
308,308,[-3.70805773e+03  3.15076141e+02 -2.89642137e-03  7.68491192e-01],296,1038.286106975013
309,309,[-3.55316606e+03  3.14127910e+02 -3.46559527e-03  8.38087351e-01],561,1035.291611889948
310,310,[-3.28163693e+03  3.14825915e+02 -2.84063484e-03  7.65739260e-01],308,1039.8612868517507
311,311,[-3.52338831e+03  3.14372382e+02 -3.46683063e-03  8.12781786e-01],314,1037.2959644903606
312,312,[-3.10454895e+03  3.15863638e+02 -2.78227695e-03  9.14033479e-01],634,1036.7362096073657
313,313,[-3.25075036e+03  3.14721707e+02 -2.62096877e-03  8.42073548e-01],646,1038.659979530184
314,314,[-3.39215742e+03  3.14983531e+02 -3.70513072e-03  9.43085163e-01],825,1038.2835840344374
315,315,[-3.00809586e+03  3.15048770e+02 -2.77312560e-03  1.01699864e+00],523,1038.4609169590378
316,316,[-3.20846541e+03  3.15038790e+02 -2.43167718e-03  8.31940234e-01],642,1040.3072620620733
317,317,[-3.49451108e+03  3.14407961e+02 -3.91901548e-03  7.88174094e-01],934,1040.1445265991513
318,318,[-3.15058917e+03  3.15055295e+02 -3.06914714e-03  9.58027009e-01],404,1038.6405939536983
319,319,[-3.51141814e+03  3.14738283e+02 -3.04595102e-03  8.53175922e-01],910,1040.999048293786
320,320,[-2.93175669e+03  3.14814333e+02 -2.03620247e-03  1.02186738e+00],710,1038.1721971663196
321,321,[-2.94654706e+03  3.15736480e+02 -2.77696010e-03  9.90365267e-01],558,1034.3168556423398
322,322,[-3.17746383e+03  3.15282271e+02 -2.50703757e-03  7.87716864e-01],144,1040.214326936396
323,323,[-3.35288689e+03  3.15599465e+02 -2.72235044e-03  9.28312631e-01],142,1033.0858384725304
324,324,[-3.05441871e+03  3.15581228e+02 -2.97422698e-03  9.91261745e-01],183,1038.1118915802372
325,325,[-3.02753074e+03  3.14437207e+02 -1.76613784e-03  9.83640972e-01],807,1040.3837937126152
326,326,[-3.59216389e+03  3.14603275e+02 -4.15078088e-03  8.54390395e-01],723,1040.218004188391
327,327,[-2.78811343e+03  3.15694794e+02 -2.05695988e-03  1.05785363e+00],281,1035.3801071941207
328,328,[-3.25525593e+03  3.14023033e+02 -2.11195686e-03  8.83213425e-01],449,1037.3045276318005
329,329,[-3.22171056e+03  3.14085224e+02 -3.40131383e-03  9.57712664e-01],116,1037.734573752297
330,330,[-3.06061268e+03  3.15068448e+02 -2.62243010e-03  9.92210151e-01],440,1037.2181435240234
331,331,[-2.97313111e+03  3.14623254e+02 -1.50855714e-03  9.41519214e-01],360,1041.3754940126823
332,332,[-3.50840553e+03  3.15119089e+02 -3.18869499e-03  8.39863286e-01],405,1039.6202086335247
333,333,[-3.17775626e+03  3.14748827e+02 -2.52904958e-03  9.55591552e-01],188,1038.814234634519
334,334,[-3.53196430e+03  3.15160695e+02 -2.39175993e-03  8.54653746e-01],91,1035.9622437603136
335,335,[-3.36972283e+03  3.15318917e+02 -3.24650455e-03  8.51453592e-01],238,1037.0875567680607
336,336,[-2.94377678e+03  3.14748814e+02 -1.80476604e-03  1.04467835e+00],320,1040.1922818770686
337,337,[-3.84701014e+03  3.14777017e+02 -4.74397981e-03  7.55654051e-01],771,1038.6541383480555
338,338,[-3.06165950e+03  3.15479737e+02 -2.49420161e-03  1.01777162e+00],37,1040.6145202068872
339,339,[-3.91063551e+03  3.15389031e+02 -3.90558945e-03  7.14275944e-01],253,1039.1307298865327
340,340,[-3.49783617e+03  3.14982083e+02 -4.36372263e-03  8.38820670e-01],697,1038.5376981925133
341,341,[-2.89998282e+03  3.15276816e+02 -2.47300257e-03  1.00541274e+00],720,1039.6078016332162
342,342,[-3.43044055e+03  3.14581520e+02 -3.11082759e-03  8.65422881e-01],398,1040.4395261936659
343,343,[-3.79003495e+03  3.15515472e+02 -5.09296353e-03  7.49352952e-01],712,1038.5267724579055
344,344,[-3.06699327e+03  3.15232243e+02 -2.63181794e-03  9.45540804e-01],324,1037.0973027800412
345,345,[-3.45640017e+03  3.15083097e+02 -2.68441980e-03  8.40270394e-01],1034,1034.1948800209068
346,346,[-3.61709451e+03  3.15496038e+02 -5.11722711e-03  8.15100299e-01],801,1039.043607231365
347,347,[-3.18476961e+03  3.15122044e+02 -3.49462250e-03  9.45247837e-01],139,1038.0132177230387
348,348,[-3.33170524e+03  3.14651630e+02 -2.74198807e-03  8.68561209e-01],257,1039.524356218196
349,349,[-2.96016770e+03  3.15711989e+02 -2.79125121e-03  9.66558844e-01],683,1037.8943538359129
350,350,[-3.32668819e+03  3.15003647e+02 -3.53169623e-03  7.77707819e-01],162,1039.5441531970903
351,351,[-3.49604306e+03  3.15896439e+02 -4.80826851e-03  7.19833415e-01],898,1031.0312237462788
352,352,[-3.09153175e+03  3.15489898e+02 -2.90630306e-03  9.54056085e-01],411,1034.5956474747386
353,353,[-3.34382627e+03  3.14670567e+02 -2.78417562e-03  8.69790912e-01],141,1036.6838298016758
354,354,[-3.30745803e+03  3.14068791e+02 -2.33425385e-03  8.63444033e-01],295,1032.7182141741218
355,355,[-2.98584306e+03  3.15677200e+02 -2.14527956e-03  9.72403313e-01],164,1023.3810425117443
356,356,[-2.47533665e+03  3.14214138e+02 -7.53205078e-04  1.34760873e+00],347,1012.3660058293241
357,357,[-2.91078029e+03  3.15026255e+02 -1.42024156e-03  1.01306146e+00],530,1033.4629246124791
358,358,[-3.73991215e+03  3.14533908e+02 -2.87578096e-03  8.03337052e-01],918,1034.1289872360785
359,359,[-3.29044873e+03  3.15292720e+02 -3.06375353e-03  9.81697288e-01],71,1034.7891031178603
360,360,[-3.60776197e+03  3.14686273e+02 -3.65373694e-03  8.29628926e-01],1051,1038.1890873558461
361,361,[-3.14305399e+03  3.14733004e+02 -2.83559482e-03  9.56975297e-01],273,1036.2134646890365
362,362,[-2.82187078e+03  3.15692339e+02 -1.75521930e-03  9.89687207e-01],882,1033.5720303447133
363,363,[-2.87915400e+03  3.14114695e+02 -1.37455371e-03  1.16293475e+00],289,1036.377755167222
364,364,[-2.99391040e+03  3.14750780e+02 -2.30606876e-03  1.02721533e+00],621,1032.6206721726255
365,365,[-3.07725881e+03  3.15210558e+02 -2.00913542e-03  9.66151522e-01],9,1039.857059830577
366,366,[-1.82560347e+03  3.14300774e+02 -2.50689012e-04  2.21269721e+00],452,1031.2478238631506
367,367,[-3.02400087e+03  3.14748489e+02 -3.48608694e-03  1.01000825e+00],349,1032.3813878535823
368,368,[-3.66066872e+03  3.14631031e+02 -3.05019424e-03  7.65793124e-01],1046,1040.3662382090104
369,369,[-3.74816194e+03  3.14410264e+02 -5.26469564e-03  7.19189293e-01],743,1036.0316845666314
370,370,[-3.23694749e+03  3.15863028e+02 -3.62951956e-03  8.52349114e-01],291,1036.6577327690954
371,371,[-3.61464400e+03  3.14899227e+02 -4.00796232e-03  8.12762213e-01],676,1038.5924678207773
372,372,[-3.39910043e+03  3.15275228e+02 -3.16245399e-03  9.30308062e-01],826,1040.1341568144805
373,373,[-3.52712075e+03  3.14952390e+02 -4.20378735e-03  7.56134615e-01],445,1036.3142058512237
374,374,[-3.90532543e+03  3.15399462e+02 -4.75404887e-03  7.61140795e-01],830,1036.8834975643297
375,375,[-3.11199600e+03  3.15968480e+02 -3.75338636e-03  8.97950998e-01],895,1034.8566959402465
376,376,[-3.25681655e+03  3.14894290e+02 -2.85305648e-03  8.79023356e-01],519,1041.1547700659112
377,377,[-3.28735263e+03  3.15528986e+02 -4.16554158e-03  8.45562020e-01],889,1038.6873954630223
378,378,[-2.77321063e+03  3.15384689e+02 -2.27065137e-03  9.65860335e-01],690,1038.5411070832135
379,379,[-3.60352916e+03  3.15495746e+02 -4.25146267e-03  7.43681509e-01],302,1040.0146139331941
380,380,[-3.05854329e+03  3.14158218e+02 -2.88246763e-03  1.01893492e+00],166,1037.2825637425883
381,381,[-3.27823413e+03  3.15865470e+02 -4.15787254e-03  8.31615044e-01],916,1037.4340877924546
382,382,[-3.43117931e+03  3.15207675e+02 -3.62519618e-03  8.29292779e-01],609,1041.141508063785
383,383,[-3.20137940e+03  3.14377284e+02 -2.98327694e-03  8.80367333e-01],931,1039.4797449965488
384,384,[-2.98651339e+03  3.15880195e+02 -3.79783457e-03  9.20377182e-01],329,1033.4683599116397
385,385,[-3.76819271e+03  3.15273291e+02 -4.58777832e-03  7.45181868e-01],920,1038.3975950406898
386,386,[-3.18465963e+03  3.15560778e+02 -4.12095901e-03  7.53119484e-01],226,1035.5365111568365
387,387,[-3.36518747e+03  3.15143355e+02 -4.21338322e-03  8.63244795e-01],911,1035.898932235092
388,388,[-3.02855148e+03  3.15198998e+02 -2.67969875e-03  9.74405236e-01],674,1037.1521636196107
389,389,[-2.78571993e+03  3.15277856e+02 -2.87794747e-03  1.03057403e+00],1033,1036.9513028382412
390,390,[-3.57157129e+03  3.15193034e+02 -3.06680499e-03  7.99784009e-01],438,1040.294398252086
391,391,[-3.93478153e+03  3.15108215e+02 -4.86020330e-03  7.26879789e-01],437,1038.3938142696504
392,392,[-3.57011540e+03  3.15445920e+02 -3.57974389e-03  7.73216252e-01],834,1035.166047185062
393,393,[-3.85707997e+03  3.15162560e+02 -4.79726050e-03  7.45276366e-01],640,1040.7078752443579
394,394,[-3.77306352e+03  3.15363919e+02 -4.00049182e-03  7.78041869e-01],526,1036.5514812560918
395,395,[-2.89903172e+03  3.15056441e+02 -2.49731953e-03  9.05533606e-01],648,1037.3295233600923
396,396,[-3.56134511e+03  3.15502523e+02 -3.32814236e-03  9.16256885e-01],731,1038.674397969786
397,397,[-3.56297059e+03  3.15289543e+02 -4.02163461e-03  7.65640202e-01],303,1038.8494104940587
398,398,[-3.10263452e+03  3.15629240e+02 -3.13963034e-03  7.97157728e-01],860,1038.1261771953266
399,399,[-3.81073439e+03  3.15255548e+02 -4.31115201e-03  7.44126599e-01],815,1037.1827137208563
400,400,[-3.14305257e+03  3.15293977e+02 -4.05861503e-03  9.00229836e-01],507,1038.8552244280074
401,401,[-3.52857868e+03  3.15482450e+02 -4.47578475e-03  7.14884438e-01],234,1038.4517384010453
402,402,[-3.60605167e+03  3.14526522e+02 -4.31578899e-03  8.27698537e-01],75,1038.9513950786334
403,403,[-2.94371068e+03  3.15315771e+02 -2.78479784e-03  1.00070513e+00],951,1032.4577366480976
404,404,[-3.33540727e+03  3.15139707e+02 -3.00596387e-03  8.30014439e-01],168,1038.2248222298792
405,405,[-3.44931963e+03  3.14224445e+02 -3.43273258e-03  8.81239200e-01],207,1038.1877569512596
406,406,[-3.15382384e+03  3.15207378e+02 -2.99465692e-03  8.93729532e-01],905,1039.152414155901
407,407,[-3.47875571e+03  3.15234163e+02 -3.86903419e-03  8.31900027e-01],955,1040.55583182799
408,408,[-3.21287984e+03  3.15302578e+02 -2.70793615e-03  8.49820394e-01],1016,1039.2537031629558
409,409,[-3.02483791e+03  3.14521368e+02 -2.84846623e-03  9.80872064e-01],919,1038.770528840969
410,410,[-3.57221090e+03  3.14750504e+02 -4.74551005e-03  8.36052966e-01],618,1040.1301456842405
411,411,[-2.94089044e+03  3.14935691e+02 -3.04178386e-03  1.03800384e+00],53,1038.0385705807173
412,412,[-3.44870924e+03  3.14277638e+02 -3.18740924e-03  7.72621407e-01],544,1037.252854270883
413,413,[-3.70917496e+03  3.15131624e+02 -4.35816353e-03  8.22837902e-01],256,1039.041053593962
414,414,[-2.87923534e+03  3.15477454e+02 -2.53346246e-03  9.67990783e-01],259,1036.5299465639766
415,415,[-3.67791862e+03  3.15205757e+02 -3.67681715e-03  7.85567588e-01],862,1037.2266045226838
416,416,[-2.80727278e+03  3.15046339e+02 -2.12108287e-03  1.12721313e+00],49,1040.0714075153626
417,417,[-3.05552071e+03  3.15240860e+02 -2.58190507e-03  8.64104567e-01],601,1039.4171718159891
418,418,[-3.59917622e+03  3.15257489e+02 -4.67358136e-03  7.70182806e-01],577,1039.8640859049935
419,419,[-2.72081171e+03  3.14905003e+02 -2.50323755e-03  1.05545866e+00],65,1036.3103383017187
420,420,[-3.35292639e+03  3.14673122e+02 -3.50189954e-03  8.03121823e-01],589,1039.2370036230695
421,421,[-3.47118307e+03  3.15716597e+02 -4.25756477e-03  8.47176355e-01],430,1037.451313201247
422,422,[-2.86261692e+03  3.15277448e+02 -2.67098651e-03  1.07472592e+00],518,1038.3553360616725
423,423,[-3.59862939e+03  3.14625388e+02 -4.20592841e-03  7.69562300e-01],564,1039.3757892386245
424,424,[-3.16377911e+03  3.15270402e+02 -3.18669845e-03  9.00545118e-01],283,1039.514753588575
425,425,[-2.84030938e+03  3.15346478e+02 -2.46337321e-03  8.82215296e-01],45,1038.5946878301286
426,426,[-3.26376836e+03  3.14386760e+02 -2.44280509e-03  9.12556480e-01],637,1039.4223779206916
427,427,[-3.59174789e+03  3.14509194e+02 -3.78471021e-03  8.29542130e-01],699,1038.7399604342477
428,428,[-2.93467147e+03  3.15270698e+02 -3.35477241e-03  9.80254549e-01],770,1036.9248596584746
429,429,[-3.58745068e+03  3.14950180e+02 -3.88858318e-03  8.38574082e-01],1018,1040.3045549398316
430,430,[-3.27669648e+03  3.15216863e+02 -3.09610492e-03  8.46456208e-01],1049,1037.5069532402101
431,431,[-3.31021396e+03  3.15146144e+02 -3.13679285e-03  7.78915429e-01],93,1040.105456153076
432,432,[-3.07394710e+03  3.14818309e+02 -2.79641106e-03  9.60643386e-01],837,1037.342235280539
433,433,[-2.75008612e+03  3.15535266e+02 -1.82988059e-03  1.08945204e+00],274,1035.5853494384448
434,434,[-3.05632454e+03  3.14759043e+02 -1.69473848e-03  9.33296911e-01],421,1038.7443025886887
435,435,[-3.11063535e+03  3.14427682e+02 -2.46707602e-03  9.82830930e-01],546,1039.2586571411268
436,436,[-2.94491462e+03  3.14995664e+02 -2.17817702e-03  9.16176333e-01],284,1035.3148611285937
437,437,[-3.65763399e+03  3.14882258e+02 -3.48254648e-03  7.31488275e-01],381,1037.6938539195428
438,438,[-3.23305033e+03  3.14446567e+02 -2.38955102e-03  8.76411190e-01],521,1037.694305943572
439,439,[-2.99061822e+03  3.15204928e+02 -2.28087220e-03  9.37775531e-01],881,1035.5621676947464
440,440,[-3.82663909e+03  3.15382628e+02 -3.13981922e-03  7.49466868e-01],773,1038.1891523583922
441,441,[-2.63583531e+03  3.14474047e+02 -1.26587128e-03  1.14974296e+00],1024,1039.0103305023679
442,442,[-2.96665711e+03  3.14849577e+02 -2.26062645e-03  9.00266916e-01],550,1038.4762334573213
443,443,[-2.57552539e+03  3.14445509e+02 -9.27914891e-04  1.24223082e+00],471,1038.7551353361566
444,444,[-2.94438426e+03  3.14800621e+02 -1.93430896e-03  9.40496116e-01],688,1033.806223659535
445,445,[-3.55913436e+03  3.15723118e+02 -3.97551345e-03  7.46516892e-01],508,1037.8075538768992
446,446,[-3.57500078e+03  3.15281147e+02 -2.95209137e-03  8.50139138e-01],60,1035.807366411337
447,447,[-2.96777112e+03  3.15136383e+02 -2.35857592e-03  1.07448310e+00],574,1020.9351003354834
448,448,[-3.38915890e+03  3.14941255e+02 -2.95134826e-03  7.26900169e-01],498,1038.610155285657
449,449,[-3.33681580e+03  3.14993806e+02 -2.59080998e-03  9.83700684e-01],43,1038.1925924105237
450,450,[-3.26658330e+03  3.14950838e+02 -3.07699749e-03  8.37526807e-01],1029,1035.833790558269
451,451,[-2.77290332e+03  3.14978560e+02 -1.62270849e-03  9.91692041e-01],432,1039.6594425678095
452,452,[-2.52106454e+03  3.14420426e+02 -9.59565629e-04  1.21811474e+00],693,1037.9008361114336
453,453,[-3.10313462e+03  3.14551247e+02 -2.91087094e-03  9.92578024e-01],171,1034.4285323301474
454,454,[-3.60888402e+03  3.15408163e+02 -3.40259371e-03  7.15560471e-01],395,1039.6565392623006
455,455,[-2.81064761e+03  3.14726632e+02 -1.44527910e-03  1.14589492e+00],36,1039.186625609402
456,456,[-3.17949304e+03  3.15782520e+02 -3.55189962e-03  1.02538343e+00],307,1024.401598707314
457,457,[-3.02722347e+03  3.15035220e+02 -3.76317151e-03  9.36123267e-01],328,1019.9553880737739
458,458,[-3.50844132e+03  3.15093721e+02 -6.03943177e-03  8.01039647e-01],810,1018.9937969967382
459,459,[-3.26728898e+03  3.15702132e+02 -3.99531221e-03  9.23814117e-01],525,1029.3651240003105
460,460,[-3.36599389e+03  3.15796707e+02 -4.85321963e-03  7.87533676e-01],311,1033.757957288403
461,461,[-3.30344261e+03  3.14733734e+02 -2.31785219e-03  8.75625012e-01],795,1024.8630600824097
462,462,[-3.18519719e+03  3.15552008e+02 -2.17911458e-03  7.69316430e-01],380,1029.0545703697092
463,463,[-4.03003928e+03  3.14971677e+02 -4.23272543e-03  6.85089363e-01],501,1031.5178689386576
464,464,[-3.75538029e+03  3.15652094e+02 -3.92374637e-03  8.22215957e-01],1042,1035.2568469196142
465,465,[-3.56805462e+03  3.14762460e+02 -2.44114518e-03  6.80594500e-01],555,1024.5087071376645
466,466,[-3.84953680e+03  3.15300855e+02 -3.40143933e-03  7.98375958e-01],803,1014.4869271068388
467,467,[-2.53347395e+03  3.13839726e+02 -6.45162977e-04  1.25752548e+00],979,1005.9200369620303
468,468,[-2.70563699e+03  3.14510544e+02 -6.92041832e-04  1.18651619e+00],760,1006.5400689423426
469,469,[-3.02215000e+03  3.15285334e+02 -2.17101395e-03  9.19082832e-01],504,1017.1582712605848
470,470,[-3.69333068e+03  3.14583599e+02 -2.96786075e-03  7.03636517e-01],412,1037.0518003942836
471,471,[-3.56433911e+03  3.14600756e+02 -3.97543733e-03  7.41908269e-01],509,1037.3769399841622
472,472,[-3.12469820e+03  3.14911783e+02 -2.56562321e-03  8.98266294e-01],995,1030.2034258356455
473,473,[-3.26372989e+03  3.14693101e+02 -2.13268369e-03  9.79833590e-01],415,1038.3539186198175
474,474,[-3.43784570e+03  3.15126156e+02 -3.26545139e-03  8.78474288e-01],893,1039.7573597034461
475,475,[-2.90587086e+03  3.14849048e+02 -2.11571651e-03  9.16545954e-01],615,1001.3797400237178
476,476,[-3.19681348e+03  3.14993888e+02 -2.49730542e-03  8.39536276e-01],1031,1023.4264103347929
477,477,[-2.64076658e+03  3.13520275e+02 -9.27173578e-04  1.16762691e+00],189,1034.7652247963238
478,478,[-3.13798091e+03  3.14846701e+02 -2.59758639e-03  8.32749646e-01],330,1013.5656956747027
479,479,[-2.82340408e+03  3.14957864e+02 -1.49600271e-03  9.77170235e-01],140,1033.81038122878
480,480,[-3.10437189e+03  3.14389495e+02 -2.59768898e-03  9.53724810e-01],606,1035.8896763221264
481,481,[-3.17799366e+03  3.14751917e+02 -2.90359974e-03  9.40218809e-01],399,1033.8822712886317
482,482,[-2.85321845e+03  3.14804092e+02 -2.09030451e-03  9.68895730e-01],818,1031.2560579483786
483,483,[-3.21545049e+03  3.15097769e+02 -4.11101007e-03  8.77729291e-01],586,1034.9382350710894
484,484,[-3.84837036e+03  3.14842351e+02 -4.99902958e-03  7.10352647e-01],537,1009.0097088839616
485,485,[-3.34082595e+03  3.14624955e+02 -2.66318086e-03  8.02547742e-01],554,994.7993621609703
486,486,[-3.75128821e+03  3.14732306e+02 -2.49000148e-03  7.33138615e-01],67,1010.6630726398901
487,487,[-3.62190667e+03  3.15500234e+02 -2.99374260e-03  8.31979768e-01],388,1028.8806234932308
488,488,[-3.39989434e+03  3.15212222e+02 -2.67131714e-03  7.50724471e-01],1019,1018.4697586521828
489,489,[-3.33243229e+03  3.15097940e+02 -2.52300892e-03  8.50409843e-01],842,1034.1526176384277
490,490,[-4.14411730e+03  3.14785138e+02 -5.49993514e-03  7.07169378e-01],61,1034.6106328801677
491,491,[-2.91432665e+03  3.14875787e+02 -2.56433772e-03  8.56244804e-01],227,1026.0625371134133
492,492,[-3.78070842e+03  3.15024163e+02 -3.64934497e-03  7.21508420e-01],344,1040.4843106724643
493,493,[-3.04117158e+03  3.13861220e+02 -2.93428186e-03  1.03958160e+00],335,1035.7027781978152
494,494,[-2.95825695e+03  3.15139173e+02 -1.76032161e-03  9.75513028e-01],125,1006.501639295167
495,495,[-3.64774034e+03  3.15204664e+02 -2.82520188e-03  7.79515663e-01],18,1010.8648965808201
496,496,[-3.73016724e+03  3.15930164e+02 -3.90808719e-03  7.31559805e-01],874,1030.6933611096447
497,497,[-3.25474433e+03  3.15742917e+02 -4.11085650e-03  9.51404483e-01],54,1035.2806319033232
498,498,[-3.37736923e+03  3.15476019e+02 -3.07278729e-03  8.03072686e-01],228,1037.3562576982865
499,499,[-3.86147553e+03  3.14940667e+02 -3.82058978e-03  7.68612594e-01],896,1033.1510107024505
500,500,[-2.87924242e+03  3.15163350e+02 -2.18327242e-03  1.08702143e+00],470,1031.9990875797082
501,501,[-3.76746840e+03  3.14631165e+02 -4.03409330e-03  7.54426718e-01],1022,1037.2816336505662
502,502,[-3.35391273e+03  3.14760019e+02 -3.26526259e-03  8.79861748e-01],682,1036.1505606105634
503,503,[-3.23288146e+03  3.15417763e+02 -2.62597433e-03  8.99260364e-01],701,1034.13120798402
504,504,[-3.32300023e+03  3.15035229e+02 -2.34816759e-03  8.82115998e-01],672,1037.266600406069
505,505,[-3.61566695e+03  3.14617192e+02 -3.08567682e-03  8.07631301e-01],659,1036.664283600007
506,506,[-3.43632138e+03  3.14640250e+02 -4.33543295e-03  9.17094881e-01],751,1031.1884620509718
507,507,[-3.51520737e+03  3.14640738e+02 -3.39317451e-03  8.10004703e-01],551,1037.657220301588
508,508,[-3.67512505e+03  3.14425933e+02 -4.46925252e-03  8.27745786e-01],652,1037.3719084497425
509,509,[-3.22748133e+03  3.15318516e+02 -3.40160298e-03  8.69816108e-01],50,1037.2333901521467
510,510,[-3.54229256e+03  3.15428710e+02 -3.54383570e-03  8.26450023e-01],570,1032.8457818142276
511,511,[-3.40796587e+03  3.14708140e+02 -2.52369248e-03  8.68780349e-01],181,1039.396658148675
512,512,[-3.32010669e+03  3.14796586e+02 -2.12992987e-03  9.17651124e-01],389,1031.5542399950807
513,513,[-2.76793011e+03  3.14204726e+02 -1.82290530e-03  1.10468224e+00],524,1028.495459949724
514,514,[-3.41324742e+03  3.14638912e+02 -3.11240161e-03  8.28375946e-01],1039,1036.3557508719882
515,515,[-3.47528041e+03  3.14063993e+02 -3.58125019e-03  8.44441481e-01],1000,1036.8524307807181
516,516,[-3.15863242e+03  3.15522436e+02 -3.20445753e-03  8.23069561e-01],913,1036.5887485599565
517,517,[-3.44634594e+03  3.14938542e+02 -3.71752523e-03  8.06986866e-01],428,1038.405852357298
518,518,[-3.44454206e+03  3.14922864e+02 -3.71739503e-03  8.46095698e-01],935,1037.503573974403
519,519,[-3.09033887e+03  3.15237925e+02 -2.60990305e-03  8.81758852e-01],942,1037.7884449068688
520,520,[-3.73478982e+03  3.15867405e+02 -4.92178408e-03  7.42309195e-01],151,1035.9273592799063
521,521,[-3.40276123e+03  3.14811960e+02 -3.61211180e-03  9.10917010e-01],845,1037.4300411521206
522,522,[-3.18166380e+03  3.14729813e+02 -3.42482062e-03  8.25685885e-01],622,1039.2882469060228
523,523,[-3.45279456e+03  3.15080924e+02 -3.63610162e-03  7.63836716e-01],932,1038.2394159272656
524,524,[-3.63751350e+03  3.14779048e+02 -4.79406924e-03  6.91963579e-01],301,1036.9428965734705
525,525,[-3.08757431e+03  3.15594756e+02 -2.96623169e-03  8.74922749e-01],42,1037.2979073668537
526,526,[-3.27567175e+03  3.14744956e+02 -3.47369345e-03  8.28498350e-01],628,1037.6758029485752
527,527,[-3.20112044e+03  3.15312012e+02 -3.40601071e-03  9.15490753e-01],179,1038.3664883159336
528,528,[-3.20130562e+03  3.15418221e+02 -3.74104409e-03  8.21256224e-01],374,1040.1973705874893
529,529,[-3.00903457e+03  3.14948828e+02 -2.41436507e-03  9.62029120e-01],262,1036.5318888196239
530,530,[-3.09281231e+03  3.15206823e+02 -3.41935926e-03  9.33891542e-01],861,1038.0116051758268
531,531,[-3.14579967e+03  3.15255115e+02 -2.57557158e-03  9.07459111e-01],670,1039.6391491767733
532,532,[-3.13176147e+03  3.14890437e+02 -2.86107800e-03  8.78453916e-01],515,1038.9867329979966
533,533,[-3.29856045e+03  3.15980512e+02 -3.38651698e-03  6.70237616e-01],639,1034.7708573321386
534,534,[-3.19813266e+03  3.14960179e+02 -2.67622291e-03  8.16498355e-01],58,1039.3006763630963
535,535,[-3.45578374e+03  3.15393218e+02 -4.26587022e-03  9.87987756e-01],722,1038.480332350859
536,536,[-3.01701894e+03  3.15407242e+02 -2.79220076e-03  8.86586613e-01],270,1035.5117054877849
537,537,[-3.68740531e+03  3.14498667e+02 -4.28672502e-03  8.13220059e-01],1043,1037.1708347961828
538,538,[-3.31748758e+03  3.14844858e+02 -3.45782958e-03  8.43311423e-01],22,1038.4425426965718
539,539,[-3.06684064e+03  3.15564478e+02 -3.07130388e-03  8.84679554e-01],739,1033.9214516392367
540,540,[-3.17857175e+03  3.15229138e+02 -2.43524607e-03  9.31285628e-01],772,1038.8131945772175
541,541,[-3.34549407e+03  3.15066811e+02 -3.60075393e-03  8.44911258e-01],595,1036.4490739736918
542,542,[-3.13123908e+03  3.14868643e+02 -2.89367212e-03  8.73297186e-01],838,1033.0421040988986
543,543,[-3.73741298e+03  3.15033476e+02 -3.46156216e-03  7.96120572e-01],1009,1039.1010924512743
544,544,[-2.87368459e+03  3.15162661e+02 -2.99854033e-03  1.05854834e+00],631,1037.5628274920991
545,545,[-3.06444873e+03  3.15024635e+02 -3.47379488e-03  8.03339134e-01],134,1033.792669604239
546,546,[-3.21991762e+03  3.15507982e+02 -2.92133512e-03  8.22145086e-01],312,1037.4496730664143
547,547,[-3.23654764e+03  3.14929572e+02 -2.90261286e-03  8.78534646e-01],131,1039.3521150626393
548,548,[-2.87834265e+03  3.15701107e+02 -2.95825908e-03  9.08836237e-01],1005,1032.5858031430546
549,549,[-3.10548643e+03  3.14879174e+02 -2.70799805e-03  8.02389800e-01],231,1038.3111318446236
550,550,[-3.48554515e+03  3.14644256e+02 -3.72706228e-03  8.28485362e-01],353,1037.3879519804223
551,551,[-3.01742991e+03  3.15023926e+02 -3.71342939e-03  8.58532039e-01],684,1036.9835688503856
552,552,[-3.22398655e+03  3.14766659e+02 -4.24832904e-03  8.72575936e-01],505,1034.6648752853516
553,553,[-3.25998733e+03  3.14982832e+02 -3.10143409e-03  8.73954686e-01],370,1038.5153385618232
554,554,[-3.05177632e+03  3.14574112e+02 -2.90510070e-03  1.00080674e+00],994,1037.1564221139015
555,555,[-3.45396910e+03  3.15429426e+02 -5.08200397e-03  7.33024842e-01],286,1037.280501172382
556,556,[-3.49505447e+03  3.15185015e+02 -5.35893587e-03  8.09641301e-01],912,1038.7053474945303
557,557,[-3.05418129e+03  3.15182082e+02 -3.39272292e-03  8.67630199e-01],871,1034.3477312902107
558,558,[-3.66655717e+03  3.15262006e+02 -5.04695672e-03  7.49404150e-01],940,1038.2195084731893
559,559,[-3.56503553e+03  3.14405650e+02 -5.14700030e-03  7.71887383e-01],1025,1036.4195909379614
560,560,[-2.88354890e+03  3.15805404e+02 -2.61280308e-03  9.57401230e-01],745,1034.4399379056838
561,561,[-3.35467415e+03  3.15232811e+02 -3.51888511e-03  8.54537645e-01],62,1038.288572030649
562,562,[-3.20301955e+03  3.15641780e+02 -2.38159554e-03  8.71034099e-01],38,1031.6995043834022
563,563,[-2.97860406e+03  3.15484208e+02 -2.44121985e-03  1.08144794e+00],516,1026.450499118419
564,564,[-4.03692907e+03  3.15119687e+02 -4.54569201e-03  7.19703639e-01],1003,1037.5034417300026
565,565,[-3.27755845e+03  3.14613961e+02 -2.83917902e-03  9.54456970e-01],797,1031.509530578209
566,566,[-3.01129123e+03  3.15201973e+02 -2.47888646e-03  9.08152067e-01],394,1035.3856183776797
567,567,[-2.04477419e+03  3.14318392e+02 -2.86747935e-04  1.46319885e+00],529,1032.3704476567011
568,568,[-3.24715126e+03  3.15311995e+02 -3.41380854e-03  8.57128592e-01],414,1034.629838137997
569,569,[-3.02474313e+03  3.14965517e+02 -3.30212370e-03  9.68039050e-01],831,1035.2641414782845
570,570,[-3.06591193e+03  3.14433252e+02 -1.57083461e-03  9.13634060e-01],237,1036.958690880929
571,571,[-3.08124580e+03  3.14113930e+02 -2.35742765e-03  8.55357123e-01],571,1036.462337317295
572,572,[-3.19300952e+03  3.15789771e+02 -3.80499667e-03  7.97829790e-01],541,1033.5925093668675
573,573,[-3.32146345e+03  3.15086932e+02 -2.92591729e-03  8.27327428e-01],258,1039.7024100599344
574,574,[-3.01583073e+03  3.15479407e+02 -3.04342794e-03  8.72741934e-01],268,1037.3645643962677
575,575,[-3.07161122e+03  3.16005561e+02 -3.00305039e-03  8.77721594e-01],868,1017.7506348112859
576,576,[-3.33920851e+03  3.14678909e+02 -2.86974031e-03  8.50652742e-01],752,1035.1772390841147
577,577,[-3.07557973e+03  3.15042895e+02 -2.45800245e-03  9.80473273e-01],559,1037.532241781013
578,578,[-3.12565252e+03  3.15355080e+02 -3.66926405e-03  8.24080673e-01],715,1034.5568928826513
579,579,[-3.22401092e+03  3.15462022e+02 -3.29383952e-03  8.49830885e-01],612,1040.2024824334924
580,580,[-2.50737092e+03  3.14313745e+02 -1.11014058e-03  1.17070412e+00],989,1039.2789082237143
581,581,[-3.19407837e+03  3.14950065e+02 -2.81510751e-03  8.72836227e-01],909,1034.8721935441813
582,582,[-3.16598356e+03  3.15241850e+02 -2.47227842e-03  8.43848193e-01],1021,1039.941237772067
583,583,[-3.18971741e+03  3.14659666e+02 -2.41046339e-03  9.52231034e-01],892,1039.1912788663062
584,584,[-2.89794089e+03  3.15466778e+02 -3.04327803e-03  8.84848487e-01],729,1034.8155819889587
585,585,[-3.13945108e+03  3.14323443e+02 -2.59440708e-03  8.77459338e-01],363,1038.9347706810995
586,586,[-3.63781252e+03  3.15356760e+02 -5.59500831e-03  7.82797094e-01],728,1037.1789448804948
587,587,[-3.32477781e+03  3.14763512e+02 -3.11269392e-03  8.60426153e-01],514,1034.6465806482145
588,588,[-2.27717933e+03  3.14612583e+02 -7.00563953e-04  1.32639190e+00],173,1038.675454855297
589,589,[-3.69605206e+03  3.14488201e+02 -4.24157963e-03  7.82713092e-01],869,1037.5122695884293
590,590,[-3.01582091e+03  3.15172708e+02 -3.80229741e-03  9.14712799e-01],52,1029.8118194439833
591,591,[-3.33705549e+03  3.14941038e+02 -3.17495511e-03  8.17579374e-01],917,1029.3300395051526
592,592,[-3.57623151e+03  3.14208780e+02 -3.40733915e-03  7.88549554e-01],866,1030.227961109066
593,593,[-3.32535167e+03  3.15370940e+02 -2.96428966e-03  9.03612124e-01],373,1038.331035838058
594,594,[-2.93244759e+03  3.15188530e+02 -2.13750064e-03  9.72798632e-01],419,1039.9045003138456
595,595,[-3.49581793e+03  3.14439571e+02 -2.72889511e-03  9.03136281e-01],92,1036.773568933121
596,596,[-3.01742041e+03  3.15226399e+02 -2.52806258e-03  9.72322238e-01],20,1033.9992604133297
597,597,[-3.09378581e+03  3.14435645e+02 -2.61764044e-03  8.62363053e-01],897,1039.614346426179
598,598,[-3.52635811e+03  3.14297430e+02 -3.32168193e-03  7.92830419e-01],978,1038.9764205220652
599,599,[-2.84761797e+03  3.15403389e+02 -2.84467950e-03  9.75209152e-01],135,1035.0942454054252
600,600,[-2.99264778e+03  3.14820486e+02 -1.71773807e-03  9.31633754e-01],219,1041.4145575601387
601,601,[-3.21185226e+03  3.14797727e+02 -2.07887212e-03  9.00747403e-01],748,1037.5324865749647
602,602,[-2.50391533e+03  3.14993204e+02 -1.59131648e-03  1.25346449e+00],31,1035.1163872025984
603,603,[-3.16242418e+03  3.15055753e+02 -2.71964097e-03  7.93351383e-01],361,1039.461047604451
604,604,[-3.56914807e+03  3.14410419e+02 -4.11888796e-03  7.92992983e-01],839,1034.3692106758167
605,605,[-2.66809170e+03  3.15773489e+02 -1.72934425e-03  1.02928234e+00],938,1028.2665615669655
606,606,[-4.16991384e+03  3.15065810e+02 -4.77233061e-03  6.35206445e-01],29,1037.194286682313
607,607,[-3.10506353e+03  3.14254319e+02 -3.02259612e-03  9.71535053e-01],939,1032.099177260103
608,608,[-2.84323414e+03  3.15539415e+02 -2.65116123e-03  1.00191796e+00],502,1020.711336887886
609,609,[-3.19156999e+03  3.14489898e+02 -1.76089405e-03  8.77113850e-01],993,1037.7578030175355
610,610,[-3.32683769e+03  3.14443093e+02 -3.41291174e-03  9.21970586e-01],1047,1034.6942196728594
611,611,[-2.29196085e+03  3.15144351e+02 -1.10734376e-03  1.20123959e+00],762,1031.2356146258824
612,612,[-3.29988335e+03  3.14547564e+02 -2.93931616e-03  7.89220626e-01],914,1036.3988172408863
613,613,[-3.73548386e+03  3.15204487e+02 -4.92761017e-03  7.91788376e-01],780,1034.7243417142356
614,614,[-3.02233470e+03  3.15364939e+02 -3.02641416e-03  8.83780215e-01],165,1031.3328079057876
615,615,[-3.31775168e+03  3.14711262e+02 -2.74122151e-03  8.48701561e-01],239,1037.2241868374178
616,616,[-3.51577541e+03  3.15038814e+02 -4.45291657e-03  8.95253989e-01],84,1035.9831170503278
617,617,[-2.33135004e+03  3.14644255e+02 -1.15756232e-03  1.17830689e+00],872,1025.7864175522488
618,618,[-3.03861565e+03  3.15080562e+02 -1.82012430e-03  9.34531936e-01],196,1037.5772789806178
619,619,[-1.97854738e+03  3.14491397e+02 -5.06173700e-04  1.78847837e+00],132,1035.1422056916517
620,620,[-3.07218492e+03  3.15276419e+02 -2.66700632e-03  9.15659088e-01],767,1029.8680073105386
621,621,[-3.30297519e+03  3.14830525e+02 -2.38385218e-03  8.75215253e-01],369,1037.9176419455769
622,622,[-3.59941419e+03  3.15173862e+02 -3.72942715e-03  7.69801600e-01],87,1036.9087723240489
623,623,[-3.40667514e+03  3.15391234e+02 -5.57084124e-03  7.82748551e-01],996,1031.2787667327623
624,624,[-2.94344729e+03  3.14270432e+02 -1.57057547e-03  1.05171250e+00],812,1039.6939936890133
625,625,[-3.77652698e+03  3.15195589e+02 -5.94562076e-03  6.74282797e-01],616,1038.429348032022
626,626,[-2.64382386e+03  3.15154905e+02 -1.52126285e-03  1.05906867e+00],95,1014.031994950454
627,627,[-2.96222120e+03  3.14487854e+02 -2.14231028e-03  8.24310005e-01],155,1035.6812003345003
628,628,[-3.80898932e+03  3.14611833e+02 -4.70943835e-03  7.28220512e-01],334,1036.8899250448949
629,629,[-3.01618929e+03  3.15597560e+02 -2.53067951e-03  9.31986598e-01],245,1030.729247887768
630,630,[-3.30897599e+03  3.15663806e+02 -2.89712485e-03  8.19015841e-01],520,1038.7775281376096
631,631,[-2.52567788e+03  3.14477032e+02 -1.46665182e-03  1.17755055e+00],821,1036.7431270964069
632,632,[-2.82535921e+03  3.14665808e+02 -2.30785999e-03  1.11047455e+00],705,1029.7910323687229
633,633,[-2.94990654e+03  3.14992082e+02 -2.66659415e-03  9.19218115e-01],1040,1038.3622536696707
634,634,[-3.25172227e+03  3.14939627e+02 -2.94246663e-03  9.36903779e-01],387,1038.2725149823607
635,635,[-2.76934421e+03  3.15712132e+02 -2.88496588e-03  1.04110713e+00],480,1011.5895788224215
636,636,[-3.02381328e+03  3.15340713e+02 -2.22435890e-03  8.80699291e-01],113,1031.901226018452
637,637,[-2.37513617e+03  3.14386722e+02 -9.50174088e-04  1.29678727e+00],833,1037.4862317440718
638,638,[-3.26178559e+03  3.15015218e+02 -3.43357571e-03  8.50951077e-01],251,1032.147468221892
639,639,[-3.15636962e+03  3.14175550e+02 -2.42867940e-03  9.03042765e-01],737,1036.842437848767
640,640,[-3.32477066e+03  3.14491843e+02 -3.29393645e-03  9.13326420e-01],450,1037.6779602806496
641,641,[-3.56051997e+03  3.15162693e+02 -4.35743337e-03  8.62753688e-01],976,1030.180883056399
642,642,[-3.52737129e+03  3.14767940e+02 -3.96641507e-03  7.43208088e-01],446,1038.2373234219679
643,643,[-3.11976043e+03  3.14389949e+02 -3.09467790e-03  9.20370550e-01],288,1041.1552781372136
644,644,[-2.94996450e+03  3.14815145e+02 -2.41559982e-03  9.52648050e-01],865,1033.7591866885725
645,645,[-3.12151142e+03  3.15414053e+02 -2.78943208e-03  8.79921608e-01],230,1038.5773034303427
646,646,[-3.70570788e+03  3.14444319e+02 -4.10295403e-03  8.01715269e-01],878,1038.2631133235734
647,647,[-2.92403048e+03  3.15334397e+02 -2.84261610e-03  8.87768081e-01],86,1032.565420260996
648,648,[-3.25885553e+03  3.15049161e+02 -3.26643643e-03  8.99582999e-01],749,1037.6736793756452
649,649,[-2.89617502e+03  3.14663027e+02 -1.88268399e-03  1.03588902e+00],740,1039.4379850571793
650,650,[-3.04063442e+03  3.15231036e+02 -2.83625977e-03  9.42082743e-01],849,1031.7321579616491
651,651,[-2.89989192e+03  3.14391564e+02 -2.29041580e-03  8.78138455e-01],954,1034.06498633399
652,652,[-2.87998945e+03  3.13783718e+02 -1.71160997e-03  1.04898074e+00],958,1036.971775571602
653,653,[-3.04986356e+03  3.14467797e+02 -2.54528386e-03  9.40127006e-01],854,1033.8234740168093
654,654,[-3.37502008e+03  3.14441440e+02 -2.69440607e-03  7.73105759e-01],272,1035.575346337772
655,655,[-3.34035179e+03  3.15383656e+02 -2.55481678e-03  8.52809927e-01],1010,1034.5683168166258
656,656,[-2.77639124e+03  3.15175860e+02 -1.73152914e-03  1.03540536e+00],493,1028.351981403083
657,657,[-3.25851192e+03  3.14632128e+02 -2.52893255e-03  7.88524848e-01],627,1025.1674757372405
658,658,[-2.94659415e+03  3.15786091e+02 -2.53119235e-03  8.28011204e-01],891,1029.430410741897
659,659,[-2.98078760e+03  3.15362267e+02 -3.02674974e-03  8.81182660e-01],997,1036.9936823775186
660,660,[-3.13556103e+03  3.15283984e+02 -2.45263302e-03  8.23696409e-01],671,1040.1710736104242
661,661,[-3.10422623e+03  3.15774767e+02 -2.02702085e-03  1.04114865e+00],180,1029.2584672826897
662,662,[-2.80556995e+03  3.14471575e+02 -2.03067579e-03  1.03708027e+00],8,1009.3430607729681
663,663,[-2.91951057e+03  3.14154796e+02 -1.89464749e-03  8.92478944e-01],115,989.3672508444894
664,664,[-3.40792125e+03  3.14724806e+02 -2.13121115e-03  7.44412965e-01],217,995.2893259000803
665,665,[-3.38503197e+03  3.15234371e+02 -1.87055054e-03  8.44526399e-01],704,996.2034901822334
666,666,[-3.55823493e+03  3.14786314e+02 -2.46850258e-03  7.87857595e-01],14,993.6476390679244
667,667,[-3.69359750e+03  3.14645001e+02 -2.51453369e-03  7.80450858e-01],34,1029.9048258906182
668,668,[-4.15353111e+03  3.15210818e+02 -3.56199583e-03  6.44203596e-01],111,1033.1517256724007
669,669,[-3.42935568e+03  3.15543674e+02 -2.87851427e-03  8.27796809e-01],433,1031.6745821695336
670,670,[-3.58925811e+03  3.14528181e+02 -3.42182182e-03  7.67873375e-01],1008,1036.8607118750326
671,671,[-3.49623732e+03  3.14153807e+02 -3.52350275e-03  7.40816843e-01],654,1035.6632310352472
672,672,[-3.38904372e+03  3.14896879e+02 -3.03822527e-03  7.83744159e-01],439,1036.9966190641173
673,673,[-3.77876132e+03  3.15389200e+02 -4.26812277e-03  7.63879109e-01],386,1039.4259628555942
674,674,[-3.63723353e+03  3.14796799e+02 -4.30211311e-03  8.10812853e-01],46,1037.7098936791992
675,675,[-2.96650227e+03  3.15395531e+02 -2.31471031e-03  9.54835234e-01],536,1032.5996118869682
676,676,[-3.52778079e+03  3.14372184e+02 -3.13598470e-03  8.03238727e-01],254,1037.8477016446516
677,677,[-2.75863247e+03  3.14238430e+02 -1.65730676e-03  1.18191509e+00],983,1038.9523417465412
678,678,[-2.92364221e+03  3.15295529e+02 -2.31048570e-03  9.83820009e-01],64,1030.8288552666857
679,679,[-3.06833960e+03  3.15141116e+02 -2.87005180e-03  8.73452701e-01],66,1038.4347081793514
680,680,[-3.18784200e+03  3.14805606e+02 -2.77518241e-03  9.29407670e-01],271,1039.6705433012135
681,681,[-3.02365014e+03  3.15360923e+02 -2.72611348e-03  9.67609474e-01],870,1038.40829800943
682,682,[-3.21854803e+03  3.14631159e+02 -2.22918216e-03  9.19093657e-01],1045,1037.0264424526351
683,683,[-3.43253095e+03  3.14123113e+02 -2.75661139e-03  8.72671268e-01],566,1038.0712995519195
684,684,[-3.19293961e+03  3.15368264e+02 -3.26925528e-03  8.68578188e-01],848,1036.6768653168417
685,685,[-3.04946540e+03  3.15576087e+02 -2.37663859e-03  9.04888768e-01],327,1038.5701972948743
686,686,[-3.48810575e+03  3.14874732e+02 -3.22302607e-03  7.80468518e-01],1050,1040.6993452744023
687,687,[-3.33012691e+03  3.15022415e+02 -4.08980882e-03  8.30185438e-01],999,1039.7197703200206
688,688,[-2.93407750e+03  3.14600087e+02 -2.60536526e-03  9.68237593e-01],904,1037.37263795207
689,689,[-3.35386330e+03  3.14777482e+02 -3.57504541e-03  8.06617652e-01],436,1038.6138992503063
690,690,[-2.88938390e+03  3.15037955e+02 -1.79309544e-03  9.94815466e-01],250,1037.7794859041178
691,691,[-2.87928461e+03  3.15239699e+02 -2.21672967e-03  9.07859555e-01],309,1038.674859340937
692,692,[-3.29312030e+03  3.15127655e+02 -2.54951645e-03  8.93311235e-01],887,1039.995136669284
693,693,[-3.23027667e+03  3.14927866e+02 -2.74591263e-03  8.77468538e-01],497,1037.3410221046781
694,694,[-3.28683775e+03  3.14808935e+02 -3.36372195e-03  8.57245291e-01],569,1039.7638051395888
695,695,[-3.55915229e+03  3.14374665e+02 -3.89204009e-03  8.27284634e-01],464,1039.2530577228763
696,696,[-3.20717023e+03  3.15231365e+02 -2.84116870e-03  8.41464862e-01],1001,1031.0285910107316
697,697,[-3.03123419e+03  3.14797384e+02 -2.41127521e-03  8.50385287e-01],725,1038.1376885920556
698,698,[-3.63610185e+03  3.15440968e+02 -3.41158215e-03  7.98397759e-01],982,1038.4448641383754
699,699,[-2.97408073e+03  3.15005578e+02 -2.71729419e-03  9.84559189e-01],1007,1037.4840479581378
700,700,[-3.05620420e+03  3.15659437e+02 -2.93894134e-03  7.69329887e-01],706,1017.3901433293419
701,701,[-3.40021944e+03  3.14628778e+02 -3.09303390e-03  8.48423334e-01],986,1037.002374230392
702,702,[-3.10687936e+03  3.15101618e+02 -2.44515938e-03  8.57884837e-01],576,1040.2480799624614
703,703,[-3.43890461e+03  3.14834300e+02 -3.08716966e-03  7.30754852e-01],392,1029.1428613057858
704,704,[-3.24219323e+03  3.14899937e+02 -1.87467459e-03  9.06151780e-01],1028,1035.6213904235838
705,705,[-3.55343894e+03  3.14302866e+02 -4.00332268e-03  8.16967765e-01],619,1035.9172286231717
706,706,[-3.24318886e+03  3.15685783e+02 -3.89657021e-03  7.97429563e-01],817,1035.199244777415
707,707,[-3.58836403e+03  3.14551259e+02 -3.45268985e-03  7.96519554e-01],602,1039.0710931712485
708,708,[-3.79333861e+03  3.15382669e+02 -6.38011921e-03  6.75389647e-01],599,1039.3499064707964
709,709,[-2.85748963e+03  3.15289831e+02 -3.74522927e-03  9.07905677e-01],1013,1034.575807485127
710,710,[-3.04676227e+03  3.14602113e+02 -3.18266590e-03  7.85348109e-01],744,1038.2221722496015
711,711,[-3.81958829e+03  3.15961335e+02 -4.58589071e-03  7.49143294e-01],1041,1033.9499631204915
712,712,[-3.14756872e+03  3.15402055e+02 -2.96168211e-03  8.76314686e-01],1035,1038.1231345412298
713,713,[-2.94914349e+03  3.14965141e+02 -2.72987350e-03  8.00018986e-01],1030,1032.661293486198
714,714,[-4.45001500e+03  3.16079583e+02 -6.99292802e-03  5.90883811e-01],880,1032.4643515551402
715,715,[-3.16688844e+03  3.14857902e+02 -4.05896693e-03  8.12580563e-01],864,1036.4134489213118
716,716,[-3.32990216e+03  3.15199170e+02 -3.80165386e-03  8.06864527e-01],968,1038.8937178859092
717,717,[-3.91215988e+03  3.15113162e+02 -4.41409292e-03  7.11532714e-01],483,1039.2101274638794
718,718,[-3.47854317e+03  3.15295770e+02 -3.34072557e-03  7.94626532e-01],730,1040.9088442956117
719,719,[-3.26203393e+03  3.14929447e+02 -3.77713286e-03  7.96482410e-01],823,1038.8622356471662
720,720,[-4.06678054e+03  3.14707602e+02 -6.03981671e-03  7.65732172e-01],820,1038.1281328125856
721,721,[-2.76073871e+03  3.15332164e+02 -3.44408091e-03  8.65709081e-01],581,1034.413207945255
722,722,[-3.41792875e+03  3.14716736e+02 -3.18781162e-03  7.84316829e-01],69,1036.824786747836
723,723,[-3.45275256e+03  3.14838487e+02 -3.38340716e-03  8.32570954e-01],375,1038.2076924539779
724,724,[-2.51595096e+03  3.15625702e+02 -2.25747291e-03  1.14809983e+00],1038,1029.713162315378
725,725,[-3.68546435e+03  3.15520122e+02 -3.29792930e-03  7.94556748e-01],998,1035.23659289206
726,726,[-3.76210384e+03  3.14891550e+02 -4.37814998e-03  8.18111234e-01],799,1038.9417696758521
727,727,[-3.50432316e+03  3.15555664e+02 -5.23493727e-03  7.28517090e-01],584,1033.482118906457
728,728,[-4.10551102e+03  3.14576306e+02 -5.48885454e-03  7.10830315e-01],110,1036.3740130580475
729,729,[-3.41458804e+03  3.15115370e+02 -4.25331688e-03  8.15520796e-01],1002,1036.3827097468493
730,730,[-2.91812540e+03  3.14890207e+02 -3.12069665e-03  9.20612267e-01],304,1034.9222446948777
731,731,[-3.32116337e+03  3.15000306e+02 -3.75021266e-03  7.74322475e-01],359,1037.6729439578303
732,732,[-2.85885598e+03  3.15813226e+02 -2.63264604e-03  9.97954239e-01],533,1030.3623560703554
733,733,[-3.49711671e+03  3.15332105e+02 -4.85039418e-03  7.55511362e-01],477,1039.0468489889254
734,734,[-3.58890265e+03  3.15211926e+02 -5.03346740e-03  8.11003842e-01],980,1039.5612330900337
735,735,[-3.03871594e+03  3.15542214e+02 -3.78487414e-03  9.36704258e-01],47,1033.129850580534
736,736,[-3.71964219e+03  3.15154797e+02 -3.39302833e-03  7.60494149e-01],1048,1038.556070593314
737,737,[-3.36395401e+03  3.14443507e+02 -4.49732515e-03  8.21675906e-01],613,1035.8494198009282
738,738,[-2.99855144e+03  3.15434109e+02 -2.99829448e-03  8.98050429e-01],610,1034.0022471941268
739,739,[-3.56727554e+03  3.15635826e+02 -3.78850357e-03  7.79621357e-01],846,1036.7915192515527
740,740,[-3.95247797e+03  3.14675882e+02 -4.71344520e-03  7.11737017e-01],552,1035.763857809145
741,741,[-2.87346653e+03  3.15635946e+02 -2.57946974e-03  9.31748050e-01],587,1033.0041921894067
742,742,[-3.60244419e+03  3.15197671e+02 -3.73700814e-03  8.01693069e-01],568,1039.438515186542
743,743,[-3.37100744e+03  3.14635846e+02 -3.63677520e-03  8.59710509e-01],956,1037.8791019749456
744,744,[-3.12777357e+03  3.15656613e+02 -3.58125600e-03  8.21702383e-01],806,1035.057601053939
745,745,[-3.68840694e+03  3.15180499e+02 -5.20081700e-03  7.43788571e-01],490,1036.6136497996101
746,746,[-3.64587424e+03  3.14943532e+02 -4.52652764e-03  8.01209653e-01],352,1039.1430106558173
747,747,[-3.06868065e+03  3.15186824e+02 -3.06133361e-03  8.77472198e-01],99,1030.9562552691968
748,748,[-3.33999474e+03  3.14771300e+02 -3.68599481e-03  8.43162652e-01],764,1036.247837980221
749,749,[-3.33264437e+03  3.14894533e+02 -3.26779344e-03  8.43428406e-01],992,1035.7672829956327
750,750,[-2.92317640e+03  3.15464655e+02 -2.58225253e-03  8.94583455e-01],709,1032.5976678075197
751,751,[-3.53979672e+03  3.15204940e+02 -5.13100536e-03  7.05204077e-01],1015,1036.986641885168
752,752,[-3.34794984e+03  3.14817273e+02 -3.18173208e-03  8.88918791e-01],655,1036.4225777327745
753,753,[-3.21624908e+03  3.15362846e+02 -3.94964658e-03  7.66540000e-01],578,1031.5681376223397
754,754,[-3.25468068e+03  3.15130741e+02 -3.47797957e-03  8.04088864e-01],55,1039.0150946657868
755,755,[-3.37755692e+03  3.14473386e+02 -3.42719658e-03  7.49707902e-01],967,1038.4450902809979
756,756,[-2.97187891e+03  3.15028551e+02 -2.66243937e-03  1.02111776e+00],796,1032.888606818965
757,757,[-3.68433777e+03  3.14811258e+02 -3.41166307e-03  7.39539967e-01],98,1038.9424209735155
758,758,[-3.32781050e+03  3.14533655e+02 -3.38511197e-03  9.00159904e-01],560,1039.0737879337305
759,759,[-2.98277366e+03  3.15248546e+02 -3.43569428e-03  8.81228592e-01],453,1033.4122136358417
760,760,[-3.40804976e+03  3.15700289e+02 -4.45560820e-03  7.36998474e-01],721,1037.270037535721
761,761,[-3.98342903e+03  3.15255245e+02 -6.10756651e-03  7.80691291e-01],604,1038.476993127232
762,762,[-2.89565782e+03  3.14913242e+02 -2.96862537e-03  8.78895953e-01],926,1036.1279383545066
763,763,[-3.58444275e+03  3.14996081e+02 -3.26416296e-03  7.49598252e-01],557,1038.859039831253
764,764,[-3.02354399e+03  3.14238848e+02 -2.51727196e-03  9.71021232e-01],321,1034.5887954488426
765,765,[-3.43426522e+03  3.15072464e+02 -4.35644482e-03  8.56776278e-01],867,1030.5493406581434
766,766,[-3.09434331e+03  3.14864855e+02 -2.59543269e-03  8.48131808e-01],928,1039.39486143171
767,767,[-3.28051726e+03  3.14121627e+02 -2.44777956e-03  9.53280392e-01],345,1036.0379584958741
768,768,[-2.95893641e+03  3.14713102e+02 -2.97576096e-03  9.18862766e-01],988,1031.3170670849815
769,769,[-3.14915302e+03  3.14768069e+02 -2.49912828e-03  8.62125484e-01],489,1039.5539170447491
770,770,[-3.78308428e+03  3.14813165e+02 -5.51994070e-03  7.74197637e-01],182,1037.478687798167
771,771,[-2.72736939e+03  3.15169588e+02 -2.85404192e-03  9.46208210e-01],503,1038.1701792309361
772,772,[-3.45004990e+03  3.15526447e+02 -4.23865655e-03  7.57781668e-01],358,1036.7778307307021
773,773,[-3.69296870e+03  3.15195011e+02 -5.66169733e-03  7.43392173e-01],952,1037.412178768631
774,774,[-2.89213719e+03  3.15756781e+02 -3.95454585e-03  9.43551154e-01],858,1028.6888147310428
775,775,[-3.37961959e+03  3.15275924e+02 -3.32493618e-03  8.18125961e-01],814,1022.1358656506753
776,776,[-3.34547906e+03  3.15348262e+02 -2.96461521e-03  7.44061611e-01],651,1026.868874429991
777,777,[-3.46506254e+03  3.15274167e+02 -2.20661685e-03  8.32939674e-01],843,1029.0816244915159
778,778,[-3.33171560e+03  3.15882507e+02 -3.97478701e-03  8.54712299e-01],1054,1032.6324653992453
779,779,[-3.52485901e+03  3.15719331e+02 -3.63298292e-03  7.79717610e-01],738,1039.7176224607435
780,780,[-3.85594972e+03  3.15242529e+02 -4.81504785e-03  7.22086894e-01],596,1036.111231860539
781,781,[-2.95291172e+03  3.14854703e+02 -3.03901723e-03  8.81835339e-01],1055,998.9654880353165
782,782,[-3.31978384e+03  3.14809222e+02 -2.39468533e-03  7.70434435e-01],711,1003.4511294502976
783,783,[-3.84406377e+03  3.15882875e+02 -2.77858311e-03  7.13899013e-01],539,994.3885061759805
784,784,[-3.14734795e+03  3.14838184e+02 -1.99421183e-03  8.92369897e-01],879,992.9446417642945
785,785,[-3.39103785e+03  3.15239595e+02 -2.53385560e-03  7.67867196e-01],984,1000.6667280386126
786,786,[-3.24929148e+03  3.14914690e+02 -3.24235841e-03  8.74699810e-01],481,1003.8080115419056
787,787,[-3.31452196e+03  3.15234702e+02 -2.98846288e-03  7.39617788e-01],923,1024.3872784763053
788,788,[-3.45039133e+03  3.16101576e+02 -3.06668679e-03  8.33301977e-01],653,1023.9745364669332
789,789,[-3.54429804e+03  3.15408078e+02 -3.94734677e-03  8.37484205e-01],1020,1028.0834406207462
790,790,[-2.82137384e+03  3.15043720e+02 -1.95507711e-03  9.94962890e-01],479,1031.8413900664787
791,791,[-3.53973748e+03  3.14320462e+02 -3.56804488e-03  8.01202977e-01],444,1038.3389805676334
792,792,[-2.42813691e+03  3.14175059e+02 -1.01220206e-03  1.27985339e+00],545,1030.207451776452
793,793,[-3.17281852e+03  3.15388557e+02 -2.95051010e-03  8.04515895e-01],1027,1014.2905900643412
794,794,[-3.52829968e+03  3.14664847e+02 -2.67206561e-03  8.51914599e-01],644,1038.4827786796322
795,795,[-2.41164117e+03  3.14913684e+02 -1.05455220e-03  1.19723912e+00],460,1037.29031138627
796,796,[-2.81614088e+03  3.14700479e+02 -1.80086837e-03  9.67222955e-01],851,1034.4918594413214
797,797,[-3.64244085e+03  3.14793592e+02 -3.78844468e-03  8.07984199e-01],1017,1036.5555922253486
798,798,[-3.40023329e+03  3.14736859e+02 -2.52607772e-03  9.49676413e-01],915,1032.243687635181
799,799,[-3.05774943e+03  3.15290885e+02 -2.72783585e-03  7.94970462e-01],15,1034.8336756867302
800,800,[-3.12088087e+03  3.14389771e+02 -1.86867833e-03  9.13576125e-01],35,1039.8152088814802
801,801,[-3.39567196e+03  3.15538379e+02 -3.17427204e-03  8.13094788e-01],572,1038.1091161943689
802,802,[-2.99553826e+03  3.15190440e+02 -2.68514116e-03  8.90981713e-01],362,1015.7452485093676
803,803,[-3.51884666e+03  3.15483243e+02 -3.06844899e-03  7.36697996e-01],890,1037.2785603914867
804,804,[-3.19599012e+03  3.14580932e+02 -3.11478864e-03  9.08505798e-01],985,1039.8924605662376
805,805,[-2.59815660e+03  3.14814707e+02 -2.72488651e-03  1.07747372e+00],727,1025.3784984757374
806,806,[-3.50955394e+03  3.14232197e+02 -2.96891660e-03  7.97083386e-01],384,1034.619420504693
807,807,[-3.46101325e+03  3.14792864e+02 -4.30220685e-03  7.77695928e-01],902,1038.2118075106607
808,808,[-2.86302329e+03  3.15230121e+02 -2.67298758e-03  9.34767539e-01],357,1031.3482674198774
809,809,[-3.21391823e+03  3.14805719e+02 -2.41224219e-03  8.29033736e-01],759,1039.2608952890791
810,810,[-3.26426499e+03  3.14694749e+02 -3.06908052e-03  9.24753118e-01],987,1037.3015042171426
811,811,[-2.55370437e+03  3.15717838e+02 -1.85407510e-03  1.03289460e+00],853,1028.5309888987174
812,812,[-3.16267170e+03  3.15063086e+02 -2.47527931e-03  8.39147924e-01],1006,1035.9964476617968
813,813,[-3.18568312e+03  3.15867076e+02 -2.63384185e-03  9.26853854e-01],1053,1030.3023311924762
814,814,[-3.40626423e+03  3.15328332e+02 -4.33584180e-03  8.23151808e-01],10,1034.0714274594666
815,815,[-3.14093674e+03  3.14836320e+02 -3.74722295e-03  7.40748122e-01],668,1037.6592171215107
816,816,[-3.34284669e+03  3.15008275e+02 -3.00998700e-03  8.61571842e-01],499,1039.3829903252083
817,817,[-2.79767354e+03  3.15140145e+02 -2.16001563e-03  1.00196482e+00],735,1035.1329264629953
818,818,[-2.86489954e+03  3.14555965e+02 -1.55099979e-03  8.98408471e-01],907,1037.1793364278603
819,819,[-3.18576668e+03  3.14784283e+02 -3.57628015e-03  8.35952052e-01],852,1039.2945564071667
820,820,[-2.74055490e+03  3.15269245e+02 -2.39732532e-03  1.02219562e+00],323,1034.8750610038933
821,821,[-3.13030371e+03  3.14656425e+02 -2.53438919e-03  8.01253861e-01],177,1035.9234027736613
822,822,[-2.86625170e+03  3.14158778e+02 -1.65573011e-03  1.00996469e+00],542,1038.5945406986323
823,823,[-3.21767294e+03  3.15310537e+02 -3.57869304e-03  8.65709522e-01],741,1034.8788040658355
824,824,[-3.41200712e+03  3.15229689e+02 -3.55170588e-03  7.61455993e-01],756,1039.0158298580538
825,825,[-2.97592542e+03  3.14613942e+02 -2.40700037e-03  9.56987415e-01],510,1038.244709412775
826,826,[-2.88776863e+03  3.15029512e+02 -2.49640131e-03  1.09370533e+00],11,1037.818465300689
827,827,[-3.08815636e+03  3.14627255e+02 -2.60662368e-03  8.43522708e-01],59,1039.018954704112
828,828,[-3.06643582e+03  3.14576807e+02 -2.46947924e-03  9.52156088e-01],354,1038.936370366466
829,829,[-3.55839452e+03  3.15234630e+02 -4.97826429e-03  8.31906246e-01],1014,1031.3209373274356
830,830,[-2.89587950e+03  3.14901403e+02 -2.25243942e-03  8.54824245e-01],7,1037.8066350063666
831,831,[-3.35987166e+03  3.14504841e+02 -3.27294114e-03  8.55780565e-01],855,1036.5224019689551
832,832,[-2.78643026e+03  3.14885683e+02 -2.41153738e-03  1.00618330e+00],713,1030.2690436795458
833,833,[-3.22894435e+03  3.15629108e+02 -3.46882984e-03  7.90770719e-01],778,1035.87403526843
834,834,[-2.38708886e+03  3.14327499e+02 -8.14755452e-04  1.30567274e+00],6,1037.6809222182258
835,835,[-2.67315386e+03  3.15185827e+02 -2.19215593e-03  1.08093815e+00],364,1023.6379225531134
836,836,[-3.17057642e+03  3.15641880e+02 -4.19747168e-03  8.14371863e-01],1057,1038.6284659496673
837,837,[-3.27775159e+03  3.15323723e+02 -3.23272757e-03  8.14904631e-01],675,1037.4720728595453
838,838,[-2.92856718e+03  3.14507757e+02 -2.40237286e-03  9.92527390e-01],750,1036.7669174293926
839,839,[-2.81752594e+03  3.14367540e+02 -1.53633515e-03  8.92411308e-01],548,1036.2107477897737
840,840,[-2.46469736e+03  3.13877699e+02 -7.30137102e-04  1.31390588e+00],647,1027.2129573051548
841,841,[-3.17814003e+03  3.15237365e+02 -2.91324497e-03  8.36237528e-01],72,1032.0480787651722
842,842,[-3.37878362e+03  3.14936839e+02 -2.51725030e-03  8.20830495e-01],981,1037.1413860917792
843,843,[-3.98886889e+03  3.14514167e+02 -4.05309554e-03  7.05431162e-01],229,1034.0624394740323
844,844,[-2.81042440e+03  3.14671706e+02 -2.17111371e-03  1.11945587e+00],714,1028.3730740589638
845,845,[-3.42634529e+03  3.14614672e+02 -2.62234163e-03  9.38986658e-01],403,1036.9134983354104
846,846,[-2.98733177e+03  3.14385450e+02 -1.67009520e-03  1.00407074e+00],83,1034.679356061595
847,847,[-2.00955560e+03  3.14712528e+02 -6.39054812e-04  1.29951004e+00],367,1030.7948153653003
848,848,[-3.52501804e+03  3.14307973e+02 -3.46750614e-03  7.74443184e-01],567,1035.3830291896334
849,849,[-3.51229863e+03  3.14629405e+02 -4.36806646e-03  7.99686426e-01],1032,1035.7571483014633
850,850,[-2.69958088e+03  3.14829085e+02 -1.89223873e-03  1.07263830e+00],950,1032.151860730022
851,851,[-3.04137189e+03  3.14078931e+02 -2.10305560e-03  8.81128679e-01],949,1033.7402537110913
852,852,[-2.95863255e+03  3.14585467e+02 -2.45074629e-03  1.06802949e+00],798,1033.0876500706136
853,853,[-2.73129648e+03  3.15427488e+02 -2.01945027e-03  1.01878623e+00],1026,1033.2995098168624
854,854,[-3.33332011e+03  3.14948206e+02 -2.90758805e-03  7.35903486e-01],287,1035.729946302781
855,855,[-2.71036331e+03  3.14336484e+02 -1.71660827e-03  1.11115272e+00],850,1032.667837847491
856,856,[-3.23649508e+03  3.15071187e+02 -5.32773012e-03  8.31496518e-01],638,1030.9962560554493
857,857,[-3.81880004e+03  3.14623169e+02 -4.73143889e-03  6.40517845e-01],607,1028.4423299015377
858,858,[-2.31454897e+03  3.14805616e+02 -1.70171964e-03  1.33607337e+00],19,1034.0734825497561
859,859,[-2.67834143e+03  3.15217063e+02 -1.94600017e-03  1.10662626e+00],841,1031.553202472729
860,860,[-3.39260436e+03  3.14565790e+02 -3.48643984e-03  8.44034669e-01],500,1037.6690429849584
861,861,[-2.73240822e+03  3.14916135e+02 -1.57312848e-03  1.08244593e+00],223,1036.8823671402365
862,862,[-3.12269959e+03  3.15545499e+02 -3.53798385e-03  8.25399510e-01],636,1037.5535342134467
863,863,[-3.17639873e+03  3.14797338e+02 -2.49109004e-03  9.33169715e-01],114,1039.5306095142457
864,864,[-3.35011048e+03  3.15612667e+02 -3.64156561e-03  8.46891786e-01],948,1034.9585597092398
865,865,[-3.30509373e+03  3.16012540e+02 -3.65353139e-03  7.89988419e-01],790,1035.797680719115
866,866,[-3.44035167e+03  3.15532211e+02 -5.07407044e-03  7.70222825e-01],650,1036.3338694433337
867,867,[-3.04847537e+03  3.16333017e+02 -4.91469464e-03  8.32193932e-01],562,1034.3010745324507
868,868,[-3.21817729e+03  3.15099428e+02 -4.00133160e-03  7.49037544e-01],669,1036.4324496517775
869,869,[-3.49700252e+03  3.14983239e+02 -6.19772384e-03  7.77944481e-01],753,1036.3449081498213
870,870,[-3.14510482e+03  3.15383732e+02 -4.54815614e-03  8.78873997e-01],512,1035.4278590476322
871,871,[-3.94490939e+03  3.15538447e+02 -6.20242499e-03  6.40944788e-01],859,1036.6376394865636
872,872,[-3.21765278e+03  3.14968675e+02 -2.86137040e-03  9.17098313e-01],463,1036.0749269864655
873,873,[-2.67815289e+03  3.15689026e+02 -3.40502075e-03  1.01697776e+00],565,1031.0543674512235
874,874,[-3.00899684e+03  3.15087863e+02 -3.01466332e-03  8.65354360e-01],74,1037.0819638674295
875,875,[-3.57657115e+03  3.15409324e+02 -5.01178564e-03  8.02023696e-01],808,1024.471654504446
876,876,[-2.08754523e+03  3.15344746e+02 -7.40322533e-04  1.33799572e+00],614,1008.4435146016837
877,877,[-3.65176820e+03  3.15371184e+02 -3.29453975e-03  6.99055824e-01],829,1015.6589346380335
878,878,[-3.09175890e+03  3.15254537e+02 -2.30576513e-03  8.90167738e-01],57,1035.7762493500284
879,879,[-2.07622352e+03  3.14791815e+02 -6.18767784e-04  1.57285659e+00],768,1033.9197733048104
880,880,[-3.14364518e+03  3.14884951e+02 -3.04240625e-03  8.91845434e-01],623,1035.003562974431
881,881,[-2.71178465e+03  3.14039798e+02 -1.44935281e-03  1.11184682e+00],482,1037.4161830288242
882,882,[-3.45605850e+03  3.15196550e+02 -3.93795775e-03  8.18578309e-01],366,1037.9386482778486
883,883,[-2.91987545e+03  3.15259417e+02 -2.09886193e-03  9.58651198e-01],611,1039.994740615271
884,884,[-3.23744794e+03  3.14833561e+02 -2.96403399e-03  9.44916055e-01],506,1038.4604995367995
885,885,[-2.64862516e+03  3.15049403e+02 -2.50741133e-03  1.07798383e+00],1023,1027.2577479959286
886,886,[-3.58708136e+03  3.14894743e+02 -3.83900524e-03  8.09261167e-01],873,1039.2241952325924
887,887,[-3.19910005e+03  3.15170635e+02 -2.49795622e-03  9.36091092e-01],44,1035.2884670251015
888,888,[-3.09799845e+03  3.15490576e+02 -3.25888772e-03  9.39935161e-01],351,1030.921294624574
889,889,[-2.74353368e+03  3.14822105e+02 -1.99044071e-03  1.07858075e+00],696,1037.7847478521564
890,890,[-2.44758673e+03  3.14500610e+02 -1.35676675e-03  1.21138654e+00],856,1033.5531497846598
891,891,[-2.74698830e+03  3.15343340e+02 -2.33260279e-03  1.00232594e+00],747,1035.677629101088
892,892,[-2.84762906e+03  3.14901843e+02 -2.54167694e-03  9.06367709e-01],888,1036.3835367662616
893,893,[-3.22477721e+03  3.14165884e+02 -3.28423965e-03  9.37181877e-01],945,1037.225906396554
894,894,[-2.91479150e+03  3.14714541e+02 -2.74682495e-03  9.53260791e-01],90,1039.0118006333507
895,895,[-2.92291490e+03  3.15329169e+02 -2.24301740e-03  9.13343399e-01],678,1037.7969484146915
896,896,[-2.72737116e+03  3.14048545e+02 -1.67966032e-03  1.00681759e+00],24,1037.0620682278843
897,897,[-3.14515157e+03  3.15572940e+02 -3.28870335e-03  9.11085966e-01],248,1036.2693853350631
898,898,[-2.86589701e+03  3.15366753e+02 -2.17250597e-03  9.68227372e-01],847,1038.067590917635
899,899,[-2.94159161e+03  3.14616382e+02 -3.04071229e-03  9.37796899e-01],629,1038.6659325902206
900,900,[-2.90397789e+03  3.15945857e+02 -2.49174188e-03  8.93260431e-01],496,1008.1080033446863
901,901,[-3.09707847e+03  3.15298104e+02 -2.71903095e-03  8.17564845e-01],765,1030.2124777227286
902,902,[-3.20793471e+03  3.15004054e+02 -2.84444969e-03  9.84810108e-01],966,1033.4663374370018
903,903,[-2.86776046e+03  3.15114346e+02 -3.10250782e-03  1.03792914e+00],1044,1029.7685779222447
904,904,[-3.11490383e+03  3.15189010e+02 -3.32003218e-03  8.91675967e-01],991,1035.316452881578
905,905,[-2.96967335e+03  3.14596543e+02 -2.02477910e-03  9.37943514e-01],1011,1037.6003575613095
906,906,[-2.49557591e+03  3.15334072e+02 -1.44943602e-03  1.10034507e+00],732,1029.4491470318537
907,907,[-2.91600361e+03  3.14626982e+02 -2.88503902e-03  8.70468235e-01],133,1033.0917489514943
908,908,[-3.09871192e+03  3.14701389e+02 -2.46911076e-03  9.77021948e-01],813,1038.3893953827258
909,909,[-2.53813782e+03  3.15152180e+02 -1.88441040e-03  1.04713947e+00],832,1036.3976114714997
910,910,[-3.00784499e+03  3.15474414e+02 -2.75485459e-03  9.09740601e-01],82,1038.222388382614
911,911,[-3.46488179e+03  3.15128310e+02 -4.13794776e-03  8.07744873e-01],592,1037.7104575462706
912,912,[-3.28053793e+03  3.14886951e+02 -3.83315511e-03  8.80768915e-01],901,1036.6395840122225
913,913,[-2.84266633e+03  3.14775375e+02 -2.62539750e-03  8.81588003e-01],792,1036.9293734056905
914,914,[-3.72875964e+03  3.15691596e+02 -4.18719667e-03  7.92442609e-01],472,1036.1123241820715
915,915,[-3.29301916e+03  3.15634731e+02 -4.28087174e-03  8.72713972e-01],641,1033.7197362907893
916,916,[-2.94342194e+03  3.14699132e+02 -2.24978849e-03  8.64650942e-01],947,1037.7579681949712
917,917,[-3.17910267e+03  3.14308468e+02 -3.00711373e-03  8.97829212e-01],112,1036.3341852195683
918,918,[-2.77215056e+03  3.15348747e+02 -2.63574249e-03  1.05117920e+00],667,1038.0113415096064
919,919,[-2.75632915e+03  3.15277225e+02 -1.59088022e-03  9.71681879e-01],620,1037.5776692362267
920,920,[-3.35130023e+03  3.15290512e+02 -4.46326545e-03  8.12118470e-01],590,1037.717383650105
921,921,[-3.22432679e+03  3.15419543e+02 -3.31009440e-03  9.00675267e-01],632,1027.548136156678
922,922,[-3.48267730e+03  3.14984975e+02 -3.53191299e-03  8.41839424e-01],903,1039.8107166874045
923,923,[-3.13394901e+03  3.14214177e+02 -3.33818082e-03  9.55201923e-01],724,1033.835274543168
924,924,[-2.84446968e+03  3.15140010e+02 -2.39489089e-03  9.47648434e-01],97,1005.7743844053093
925,925,[-3.39366781e+03  3.14551668e+02 -1.78971616e-03  8.17501323e-01],906,1013.4539125781903
926,926,[-3.44989575e+03  3.14759252e+02 -3.57743686e-03  8.79875241e-01],658,1034.3529548135728
927,927,[-2.82385192e+03  3.14788904e+02 -1.92640464e-03  1.03305906e+00],459,1010.5135916893482
928,928,[-3.64170861e+03  3.15018446e+02 -3.71609329e-03  7.16088968e-01],591,1034.255259485083
929,929,[-3.24319609e+03  3.15147256e+02 -4.49883577e-03  8.55273709e-01],661,1038.6229795862553
930,930,[-3.21295495e+03  3.15220710e+02 -3.75781105e-03  8.89192656e-01],703,1022.4260739247808
931,931,[-3.64631325e+03  3.15282780e+02 -3.83633927e-03  7.68434666e-01],777,1037.7486225453695
932,932,[-3.15601427e+03  3.14587893e+02 -3.01190733e-03  9.39097330e-01],933,1036.8963306253102
933,933,[-3.31448882e+03  3.14837994e+02 -3.36175234e-03  8.56121293e-01],462,1029.0773212070972
934,934,[-3.29197984e+03  3.15386240e+02 -3.22225389e-03  8.81780113e-01],487,1038.2324712619513
935,935,[-3.32037667e+03  3.14595264e+02 -2.69699002e-03  8.74018696e-01],269,1036.9229806227906
936,936,[-2.87179809e+03  3.15181665e+02 -2.42942399e-03  1.00203700e+00],774,1018.4919376968361
937,937,[-3.40188670e+03  3.14787391e+02 -3.40711488e-03  7.34905027e-01],811,1006.18006956219
938,938,[-3.14545715e+03  3.14370828e+02 -2.13156671e-03  8.34050747e-01],513,1036.1877376189004
939,939,[-3.38473121e+03  3.15263757e+02 -4.79386913e-03  8.70446372e-01],857,1036.165136567958
940,940,[-2.63063460e+03  3.14738934e+02 -1.73561757e-03  9.94743978e-01],844,1036.617397908597
941,941,[-3.49084380e+03  3.15081882e+02 -3.63367228e-03  7.68376045e-01],656,1039.5592311407636
942,942,[-2.88550724e+03  3.14994860e+02 -2.15417710e-03  9.87525667e-01],1,1036.916887060213
943,943,[-2.11457430e+03  3.15208520e+02 -7.96956185e-04  1.45483239e+00],605,1019.9090051907812
944,944,[-3.39705817e+03  3.14613551e+02 -3.06943246e-03  8.09300183e-01],789,1014.4541056803306
945,945,[-3.33165063e+03  3.14911277e+02 -3.08254380e-03  8.87815310e-01],969,1030.8661029394275
946,946,[-2.66915869e+03  3.15257218e+02 -2.01462033e-03  1.05262640e+00],25,1016.1082354115
947,947,[-2.69533965e+03  3.14339046e+02 -1.39846011e-03  9.28909245e-01],921,1030.0653679416123
948,948,[-3.18928634e+03  3.15273829e+02 -3.34372201e-03  9.56932050e-01],1056,1031.8646888718122
949,949,[-3.17798140e+03  3.14621209e+02 -3.50115861e-03  9.24081239e-01],964,1032.2929215490706
950,950,[-2.85065835e+03  3.15059395e+02 -1.84905605e-03  9.32813138e-01],13,1032.305771130197
951,951,[-3.48001901e+03  3.15397620e+02 -3.28009325e-03  8.65846597e-01],885,1037.6103899888267
952,952,[-2.44686675e+03  3.15113811e+02 -1.23603206e-03  1.18488186e+00],990,1034.0962303154263
953,953,[-3.08239044e+03  3.14951417e+02 -2.51842168e-03  8.57226670e-01],840,1024.8112609349225
954,954,[-3.86453837e+03  3.15454129e+02 -4.25213159e-03  6.66075805e-01],1012,1035.753965758788
955,955,[-3.14034822e+03  3.15161081e+02 -2.21076037e-03  9.26444723e-01],776,1037.590977675347
956,956,[-3.06982793e+03  3.15232647e+02 -2.51943095e-03  9.24486810e-01],975,1034.6258423826694
957,957,[-3.19356644e+03  3.15172681e+02 -2.17668447e-03  8.88411711e-01],0,1039.152711827888
958,958,[-2.65805093e+03  3.14486103e+02 -1.61676555e-03  1.16564479e+00],563,1035.7432810711496
959,959,[-2.76960808e+03  3.15487977e+02 -2.38090257e-03  9.47359679e-01],178,1011.2801477776902
960,960,[-3.29057029e+03  3.14990425e+02 -2.24722824e-03  8.84565702e-01],491,995.3053227595747
961,961,[-3.02224010e+03  3.14977313e+02 -1.77767208e-03  9.56347721e-01],617,994.5297325363015
962,962,[-3.27879895e+03  3.14909515e+02 -2.19322952e-03  8.49170534e-01],805,995.3641462939067
963,963,[-3.23675090e+03  3.15179955e+02 -1.98913585e-03  9.15861543e-01],102,1018.4243705401922
964,964,[-3.15011893e+03  3.14427714e+02 -3.05223632e-03  9.36607031e-01],965,1027.337037686663
965,965,[-3.17934598e+03  3.13858518e+02 -2.08673333e-03  8.91194299e-01],657,1025.2306203569126
966,966,[-3.80441015e+03  3.15105281e+02 -4.66526849e-03  7.95398857e-01],176,1030.5467700925674
967,967,[-3.29892366e+03  3.15135246e+02 -4.05622732e-03  8.11687396e-01],461,1034.5308987415217
968,968,[-3.03038648e+03  3.14848034e+02 -2.69086217e-03  9.72838959e-01],953,1034.9440122648616
969,969,[-3.14243345e+03  3.15525856e+02 -4.35449837e-03  8.34487696e-01],255,1028.029613164074
970,970,[-3.28234967e+03  3.15219022e+02 -2.52284296e-03  8.07304133e-01],465,1005.1011249230897
971,971,[-3.54626901e+03  3.15839768e+02 -2.92371142e-03  7.29491208e-01],875,1001.292324997215
972,972,[-1.86120756e+03  3.14942732e+02 -3.58379014e-04  1.52819329e+00],2,1011.2098111277289
973,973,[-3.56112989e+03  3.14921779e+02 -2.96945507e-03  7.11821918e-01],456,1012.2171351197557
974,974,[-2.22871567e+03  3.15280677e+02 -4.31369471e-04  1.37258896e+00],787,1019.9816331610671
975,975,[-3.53753290e+03  3.15026873e+02 -3.57278737e-03  8.63683590e-01],788,1026.7494128429062
976,976,[-4.02104900e+03  3.14819424e+02 -4.19064558e-03  7.00931631e-01],835,1035.8096075315013
977,977,[-3.35850089e+03  3.14747963e+02 -3.25460007e-03  8.27183490e-01],476,1038.4596375246203
978,978,[-2.92482277e+03  3.14991211e+02 -3.16080520e-03  9.90164606e-01],355,1036.2652579411674
979,979,[-3.07194848e+03  3.14377526e+02 -2.41288234e-03  9.24564590e-01],290,1037.2702000861075
980,980,[-2.92388354e+03  3.14635648e+02 -2.75872503e-03  9.78630230e-01],930,1034.7460386412133
981,981,[-2.56626032e+03  3.15067628e+02 -2.19810621e-03  1.14831122e+00],775,1032.5634497006026
982,982,[-3.61069853e+03  3.15722428e+02 -4.36055658e-03  7.25197773e-01],100,1035.2225960564108
983,983,[-3.25085045e+03  3.15037090e+02 -4.75429260e-03  9.06793844e-01],447,1035.4784977736224
984,984,[-2.77821766e+03  3.14996351e+02 -2.91888460e-03  9.80973900e-01],246,1033.9120584550676
985,985,[-3.33733325e+03  3.15014094e+02 -3.26887185e-03  8.20059828e-01],77,1033.5224950838624
986,986,[-2.90801334e+03  3.14861845e+02 -2.35252347e-03  1.01680946e+00],608,1035.1954976030856
987,987,[-3.36644236e+03  3.15858761e+02 -3.70930188e-03  8.32347292e-01],974,1033.350654566308
988,988,[-3.18766999e+03  3.15782161e+02 -4.71460936e-03  7.89143911e-01],457,1034.1756357564734
989,989,[-3.09991149e+03  3.14538692e+02 -3.33202365e-03  9.65686570e-01],943,1036.3987983889415
990,990,[-2.76793189e+03  3.15710922e+02 -4.30176275e-03  8.90510038e-01],106,1027.2181243938287
991,991,[-2.95394149e+03  3.15918486e+02 -4.06853206e-03  8.21838638e-01],96,1030.5040417183106
992,992,[-3.54075550e+03  3.14753193e+02 -4.92465339e-03  7.48033199e-01],458,1034.5862888262866
993,993,[-2.92893016e+03  3.14956690e+02 -3.52639612e-03  9.25458894e-01],5,1036.1493628382657
994,994,[-3.41459007e+03  3.15523021e+02 -2.96450724e-03  7.61523852e-01],936,1036.6503693634158
995,995,[-3.14316319e+03  3.14841252e+02 -3.42564281e-03  9.40911909e-01],488,1037.2302457236672
996,996,[-3.28895647e+03  3.15444924e+02 -4.84129880e-03  8.66481702e-01],963,1036.007065663901
997,997,[-3.92647289e+03  3.14968307e+02 -4.33658608e-03  6.49308147e-01],108,1035.6662617298357
998,998,[-2.88065578e+03  3.15652475e+02 -3.34592009e-03  9.60851069e-01],575,1034.846133928347
999,999,[-2.71121739e+03  3.15680762e+02 -3.40219734e-03  9.60852467e-01],700,1035.3256517574712
1000,1000,[-3.19018829e+03  3.15931895e+02 -4.26104176e-03  7.97816203e-01],469,1036.9341837770928
1001,1001,[-3.02070814e+03  3.15350133e+02 -3.30222364e-03  9.38292523e-01],79,1035.2467798115058
1002,1002,[-3.04925508e+03  3.15147371e+02 -3.54557720e-03  8.88848828e-01],946,1034.7906705765788
1003,1003,[-3.02091412e+03  3.14764129e+02 -2.90415446e-03  9.09981110e-01],802,1036.5853920234124
1004,1004,[-3.28775711e+03  3.15115374e+02 -4.30482462e-03  8.26940554e-01],877,1040.0857127197457
1005,1005,[-3.07607647e+03  3.15375467e+02 -3.48350019e-03  9.60733432e-01],105,1036.7178518277253
1006,1006,[-2.80056818e+03  3.14679044e+02 -2.44473318e-03  9.34226271e-01],466,1033.2869828475025
1007,1007,[-3.41201606e+03  3.15525900e+02 -6.08289227e-03  7.48347166e-01],944,1035.2069191726555
1008,1008,[-3.06372965e+03  3.15497898e+02 -3.96053442e-03  8.61953724e-01],793,1035.578213620141
1009,1009,[-3.07021704e+03  3.15512202e+02 -3.74309012e-03  7.89708914e-01],626,1036.7443111759985
1010,1010,[-3.08783007e+03  3.14399593e+02 -3.79870305e-03  9.35213847e-01],478,1035.7155812755814
1011,1011,[-3.01106411e+03  3.15749821e+02 -3.88298544e-03  8.81404663e-01],925,1030.4470420437328
1012,1012,[-2.77827105e+03  3.14866204e+02 -3.01087330e-03  9.43302630e-01],356,1026.888171409124
1013,1013,[-3.52896965e+03  3.15801002e+02 -4.96177673e-03  7.32883436e-01],973,1035.0851246857621
1014,1014,[-3.30849583e+03  3.15677324e+02 -4.23621649e-03  8.33835070e-01],101,1032.7062121737763
1015,1015,[-2.78457455e+03  3.15036917e+02 -2.24346281e-03  9.19875170e-01],635,1034.5733609131187
1016,1016,[-3.45814297e+03  3.15203237e+02 -4.73157022e-03  7.69373680e-01],959,1037.5802172900198
1017,1017,[-2.79936878e+03  3.14912146e+02 -3.22777938e-03  1.00936412e+00],972,1033.7317146348466
1018,1018,[-2.80650462e+03  3.14769205e+02 -1.89403973e-03  9.65226053e-01],495,1037.4758496487061
1019,1019,[-3.43215207e+03  3.14318184e+02 -3.58189590e-03  9.34076977e-01],486,1037.1418078701104
1020,1020,[-2.75061305e+03  3.15131850e+02 -2.88897513e-03  9.39624986e-01],927,1033.8142506201912
1021,1021,[-3.86128314e+03  3.15446965e+02 -6.33229038e-03  6.64711148e-01],662,1036.3930452735053
1022,1022,[-3.21503689e+03  3.14943138e+02 -3.81346413e-03  8.89200907e-01],484,1037.0452077816938
1023,1023,[-2.85180056e+03  3.15298698e+02 -4.23234937e-03  1.07390158e+00],12,1031.1756147360413
1024,1024,[-3.12410261e+03  3.15609308e+02 -3.54185622e-03  8.92712781e-01],876,1037.3887046247196
1025,1025,[-3.11485767e+03  3.14885544e+02 -4.03943157e-03  8.69014269e-01],900,1036.614918026996
1026,1026,[-2.69270929e+03  3.15508831e+02 -3.57446525e-03  9.83295351e-01],107,1032.2333158945744
1027,1027,[-3.11332215e+03  3.14888249e+02 -3.66621588e-03  8.53820116e-01],468,1033.7902269484707
1028,1028,[-3.27636878e+03  3.14628054e+02 -4.21233903e-03  8.11164546e-01],494,1035.1441906995603
1029,1029,[-2.89805910e+03  3.15748726e+02 -3.73995103e-03  1.04037611e+00],937,1037.35186100439
1030,1030,[-3.07856096e+03  3.14584481e+02 -3.39323485e-03  7.51735828e-01],467,1035.0298875836208
1031,1031,[-3.30725878e+03  3.14951660e+02 -3.83978195e-03  8.28968482e-01],81,1037.2216680076324
1032,1032,[-2.67245869e+03  3.15319881e+02 -3.28844486e-03  1.12862749e+00],924,1032.3421012303984
1033,1033,[-3.00409828e+03  3.14886781e+02 -3.12854543e-03  9.24831815e-01],970,1037.698782751021
1034,1034,[-3.30900338e+03  3.14674301e+02 -4.88851587e-03  8.83674578e-01],4,1038.110172376641
1035,1035,[-3.28945807e+03  3.15493824e+02 -5.49148974e-03  8.51252142e-01],247,1035.0329480458008
1036,1036,[-3.57515609e+03  3.15590034e+02 -4.66343718e-03  8.07776484e-01],786,1040.1892982454026
1037,1037,[-3.52626847e+03  3.15497085e+02 -5.34724403e-03  7.29457676e-01],782,1038.3264293259388
1038,1038,[-2.85010205e+03  3.15702993e+02 -3.49083730e-03  9.41977223e-01],80,1034.853210799249
1039,1039,[-3.08305076e+03  3.15055008e+02 -2.68909198e-03  8.99868971e-01],475,1036.9343694179033
1040,1040,[-2.64381175e+03  3.14945477e+02 -2.00898092e-03  1.13976480e+00],971,1035.8989443909368
1041,1041,[-2.73008113e+03  3.15395428e+02 -3.54182608e-03  1.05459682e+00],785,1035.0511604418805
1042,1042,[-3.05006527e+03  3.15334940e+02 -3.15478726e-03  8.16541679e-01],174,1037.2805191597056
1043,1043,[-2.44503941e+03  3.14396234e+02 -1.30641093e-03  1.33532730e+00],781,1036.7969515678228
1044,1044,[-3.13133399e+03  3.15190264e+02 -5.13215355e-03  8.69410947e-01],665,1030.5203734309505
1045,1045,[-2.76817271e+03  3.15790145e+02 -2.98503036e-03  8.88415348e-01],3,1035.3941825504303
1046,1046,[-3.47786727e+03  3.14970957e+02 -5.25267463e-03  7.15214144e-01],103,1037.8856375488967
1047,1047,[-2.81709093e+03  3.15103191e+02 -2.95036928e-03  9.90050994e-01],962,1036.1433370628051
1048,1048,[-3.40687577e+03  3.15034223e+02 -4.51783759e-03  7.69782186e-01],960,1034.7280532134098
1049,1049,[-3.46670180e+03  3.15269581e+02 -5.32497025e-03  7.99608138e-01],664,1037.4748913165695
1050,1050,[-3.44184943e+03  3.15500550e+02 -3.77084554e-03  8.43087662e-01],485,1035.3259094602988
1051,1051,[-2.82570076e+03  3.14808127e+02 -2.31516782e-03  9.49192114e-01],961,1037.9596821131875
1052,1052,[-3.28258165e+03  3.15248133e+02 -3.93586034e-03  9.28024638e-01],783,1038.3480228595713
1053,1053,[-3.07912652e+03  3.15626309e+02 -4.17249728e-03  8.81054220e-01],666,1033.2066593591496
1054,1054,[-3.77856762e+03  3.16085168e+02 -5.10049367e-03  6.83024457e-01],784,1034.0188395020068
1055,1055,[-2.65164727e+03  3.15165684e+02 -1.81005557e-03  1.11882104e+00],175,1033.977200485254
1056,1056,[-2.95129729e+03  3.15184181e+02 -3.95136440e-03  8.61666306e-01],663,1027.3426812123982
1057,1057,[-3.18199595e+03  3.15649527e+02 -3.62836721e-03  8.41328401e-01],104,1032.606242911768
