,0,1,2,3
0,0,[-1.44258018e+03  3.70410498e+02 -3.82685917e-04  2.28375738e+04],619,916.4100977126066
1,1,[-1.28599488e+03  3.67408181e+02 -4.14451290e-04  2.28349064e+04],512,910.072430590193
2,2,[-9.80650655e+02  3.66406750e+02 -5.02260053e-04  2.13715666e+04],500,905.7607468656695
3,3,[-1.03022114e+03  3.68409074e+02 -5.00746871e-04  2.13715666e+04],302,911.6258248410289
4,4,[-1.00289122e+03  3.67408160e+02 -4.63103567e-04  2.13715898e+04],505,916.1121081870774
5,5,[-1.01463667e+03  3.67407939e+02 -4.20486419e-04  2.13715666e+04],355,915.6501600974149
6,6,[-1.02293522e+03  3.67407949e+02 -4.22030050e-04  2.13715666e+04],779,919.1403674427554
7,7,[-1.06540028e+03  3.69410054e+02 -3.42580027e-04  2.13715666e+04],362,918.7418887886246
8,8,[-1.34493576e+03  3.68409280e+02 -3.82244905e-04  2.14485049e+04],709,917.5878920283363
9,9,[-9.99315454e+02  3.67407889e+02 -4.52146369e-04  2.13715795e+04],727,916.0408306735729
10,10,[-1.41551562e+03  3.65430009e+02 -3.37395582e-04  2.13715021e+04],792,917.3897699812043
11,11,[-9.89277358e+02  3.66406906e+02 -4.26014648e-04  2.13715794e+04],714,915.8720150322304
12,12,[-1.02800692e+03  3.68409126e+02 -4.02442914e-04  2.13715794e+04],367,918.1256031141654
13,13,[-1.02338922e+03  3.67408009e+02 -3.16452701e-04  2.13715794e+04],584,918.2568196680061
14,14,[-1.01623177e+03  3.67407992e+02 -3.72449639e-04  2.13715794e+04],307,918.9355569285851
15,15,[-1.58290424e+03  3.70411487e+02 -3.18403621e-04  2.13708160e+04],224,918.9204665866096
16,16,[-1.01331472e+03  3.67408072e+02 -3.35511553e-04  2.13715793e+04],520,919.5665405344525
17,17,[-1.54247859e+03  3.68409161e+02 -3.21059681e-04  2.33480868e+04],301,918.7427224936833
18,18,[-1.05256170e+03  3.69410249e+02 -4.32373325e-04  2.13719092e+04],188,917.0251162505289
19,19,[-1.08372562e+03  3.69410230e+02 -4.23286102e-04  2.13719092e+04],361,917.9651089662187
20,20,[-1.11114170e+03  3.71412423e+02 -3.58735012e-04  2.13719092e+04],521,918.3200823512759
21,21,[-1.55166612e+03  3.67408156e+02 -3.15422908e-04  2.40767741e+04],530,919.1423600963196
22,22,[-1.03753441e+03  3.68409100e+02 -3.45559742e-04  2.13723603e+04],776,917.9873065126567
23,23,[-1.50666112e+03  3.68408638e+02 -3.27791612e-04  2.04715315e+04],255,918.6022299898019
24,24,[-1.49097653e+03  3.69410386e+02 -3.36231394e-04  2.15357964e+04],774,918.418809358032
25,25,[-1.09883583e+03  3.71412340e+02 -3.83004009e-04  2.13722374e+04],155,918.2684771006418
26,26,[-1.57972109e+03  3.69410294e+02 -3.29665690e-04  2.21694947e+04],228,919.1873392841509
27,27,[-1.54812637e+03  3.69384799e+02 -3.06431905e-04  2.14263676e+04],713,919.1703467471333
28,28,[-1.03302367e+03  3.68409035e+02 -2.78942527e-04  2.13723792e+04],597,918.9341602438001
29,29,[-9.99831663e+02  3.67407873e+02 -3.90298730e-04  2.13723792e+04],294,919.0677871930695
30,30,[-1.03802160e+03  3.68409095e+02 -4.30633696e-04  2.13723792e+04],492,918.4665814602236
31,31,[-1.08634841e+03  3.70411270e+02 -3.46719775e-04  2.13723792e+04],921,919.4086009344081
32,32,[-1.10716737e+03  3.71412387e+02 -3.34551221e-04  2.13723792e+04],604,919.0457083410698
33,33,[-1.09953339e+03  3.70411268e+02 -2.78468556e-04  2.13723792e+04],233,919.4735115397431
34,34,[-1.04327567e+03  3.68409047e+02 -4.16275651e-04  2.13723792e+04],493,918.5520336620231
35,35,[-1.10774720e+03  3.72413409e+02 -3.59202600e-04  2.13723792e+04],563,918.488968022093
36,36,[-1.06398424e+03  3.69410063e+02 -3.48663215e-04  2.13723792e+04],529,917.2411306238081
37,37,[-9.94419351e+02  3.66406823e+02 -3.34060212e-04  2.13723792e+04],822,919.9786261331766
38,38,[-1.12304404e+03  3.71412380e+02 -2.58661719e-04  2.13723792e+04],303,919.9884836598754
39,39,[-1.03725353e+03  3.68409040e+02 -4.15042054e-04  2.13723792e+04],273,918.7044563521598
40,40,[-1.04010733e+03  3.68409079e+02 -4.25259161e-04  2.13723792e+04],552,918.7706967069502
41,41,[-9.56416027e+02  3.65405693e+02 -4.91712147e-04  2.13723792e+04],244,915.6818077760801
42,42,[-9.91441908e+02  3.66406803e+02 -4.95311320e-04  2.13723792e+04],618,913.0426760813689
43,43,[-1.07508313e+03  3.70411391e+02 -3.99051296e-04  2.13723792e+04],311,915.7977622467781
44,44,[-1.02289750e+03  3.67408006e+02 -3.19747747e-04  2.13723792e+04],351,918.803903717473
45,45,[-1.07836650e+03  3.70411296e+02 -3.65204225e-04  2.13723792e+04],315,918.7318494497725
46,46,[-1.00983749e+03  3.67408001e+02 -4.02082861e-04  2.13723792e+04],249,916.3936506004699
47,47,[-1.46755191e+03  3.69410338e+02 -3.30850070e-04  2.14573505e+04],617,917.7781336175015
48,48,[-1.02603397e+03  3.68408931e+02 -3.83749151e-04  2.13723933e+04],223,917.601975424626
49,49,[-1.08603020e+03  3.70411076e+02 -2.69920660e-04  2.13723933e+04],708,918.4751417852732
50,50,[-1.06528140e+03  3.69410209e+02 -3.15556808e-04  2.13723933e+04],527,918.9743066830879
51,51,[-1.63132895e+03  3.66407042e+02 -2.83239229e-04  2.15201694e+04],156,919.4744680867111
52,52,[-1.12193607e+03  3.71412331e+02 -2.69432806e-04  2.13724178e+04],79,918.7644972565793
53,53,[-1.58917867e+03  3.68409207e+02 -3.05864419e-04  2.33540968e+04],247,918.71132079988
54,54,[-1.02675022e+03  3.68409128e+02 -3.61498613e-04  2.13727466e+04],306,918.7534457375393
55,55,[-1.05833928e+03  3.69410227e+02 -3.77984160e-04  2.13727466e+04],518,919.0892141604913
56,56,[-1.07472323e+03  3.70411282e+02 -3.88880027e-04  2.13727466e+04],246,918.4160636502234
57,57,[-1.00648762e+03  3.67408146e+02 -4.02389263e-04  2.13727504e+04],870,918.0601216285323
58,58,[-1.03285456e+03  3.68409185e+02 -4.07654748e-04  2.13727466e+04],154,914.34275509816
59,59,[-1.06131348e+03  3.69410217e+02 -4.14925225e-04  2.13727466e+04],719,915.5794668119813
60,60,[-1.03242029e+03  3.67408056e+02 -3.10405943e-04  2.13727466e+04],369,916.4949711256314
61,61,[-1.76723391e+03  3.69410420e+02 -3.01345167e-04  2.98972178e+04],160,917.4306165869548
62,62,[-1.22912727e+03  3.70411359e+02 -2.47417694e-04  2.13741589e+04],731,918.2643988511074
63,63,[-1.09842619e+03  3.71412457e+02 -3.33372407e-04  2.13741589e+04],464,918.3500496483621
64,64,[-9.86238180e+02  3.66406716e+02 -2.35715633e-04  2.13741589e+04],902,918.622043430407
65,65,[-1.00033851e+03  3.67408049e+02 -3.33493647e-04  2.13741589e+04],879,915.0029800293278
66,66,[-1.41385250e+03  3.70411498e+02 -3.93762508e-04  2.52414653e+04],360,915.289962002082
67,67,[-1.52947648e+03  3.67408019e+02 -3.16698735e-04  2.13789323e+04],204,915.7472030906175
68,68,[-1.52784365e+03  3.71412460e+02 -3.33821648e-04  2.13970580e+04],352,918.5732695229171
69,69,[-1.06931458e+03  3.69410108e+02 -2.52730942e-04  2.13748034e+04],263,919.148506176624
70,70,[-1.64005224e+03  3.71412591e+02 -2.96350048e-04  2.69595834e+04],159,919.6008164095323
71,71,[-1.03192368e+03  3.68408932e+02 -3.24976272e-04  2.13757273e+04],630,918.8217850558588
72,72,[-1.11742771e+03  3.71412371e+02 -2.62068448e-04  2.13757273e+04],600,918.7465244099511
73,73,[-1.03618380e+03  3.68409009e+02 -2.39766887e-04  2.13757273e+04],730,919.3384133486251
74,74,[-1.63636529e+03  3.71412579e+02 -2.79552844e-04  2.13756287e+04],373,919.5915078227467
75,75,[-1.63388552e+03  3.68409270e+02 -2.81658720e-04  2.13748807e+04],387,919.2380641259981
76,76,[-1.04593453e+03  3.68409076e+02 -3.03364833e-04  2.13757271e+04],698,918.7380713982915
77,77,[-9.97338058e+02  3.66406829e+02 -2.93807998e-04  2.13757271e+04],707,917.2589961090316
78,78,[-1.04630794e+03  3.68409176e+02 -2.73101634e-04  2.13757271e+04],524,917.674801148969
79,79,[-1.09161060e+03  3.70411404e+02 -2.79545126e-04  2.13757271e+04],310,920.3029559663861
80,80,[-1.57315045e+03  3.68409287e+02 -2.97952855e-04  2.70381503e+04],277,918.7513198719398
81,81,[-1.49363413e+03  3.64404833e+02 -3.18204128e-04  2.28457006e+04],296,917.5932000363845
82,82,[-1.34230916e+03  3.65405552e+02 -3.56785887e-04  2.13769031e+04],238,917.5236524579792
83,83,[-1.00681911e+03  3.67407823e+02 -4.71789325e-04  2.13769049e+04],383,914.2790014135102
84,84,[-1.03273661e+03  3.68409056e+02 -4.24522058e-04  2.13769049e+04],718,914.9202659236034
85,85,[-1.53925781e+03  3.69410397e+02 -3.42943951e-04  2.13732541e+04],137,919.6878492373665
86,86,[-9.51657981e+02  3.64404681e+02 -5.58119838e-04  2.13769043e+04],308,918.9962675300197
87,87,[-9.75072402e+02  3.65405800e+02 -5.31214670e-04  2.13769043e+04],914,917.0755691517913
88,88,[-9.90159735e+02  3.66406790e+02 -4.01912046e-04  2.13769043e+04],784,916.574409559043
89,89,[-1.10101371e+03  3.71412468e+02 -3.84080779e-04  2.13769043e+04],149,918.9758539879041
90,90,[-1.45666226e+03  3.69410345e+02 -3.28206078e-04  2.40551879e+04],769,919.4735879701539
91,91,[-1.51757108e+03  3.67408185e+02 -3.22799177e-04  2.41599882e+04],359,918.6386659582257
92,92,[-9.43657832e+02  3.64404633e+02 -5.21995797e-04  2.13778046e+04],245,917.6536982529027
93,93,[-1.51306680e+03  3.67408160e+02 -3.06609693e-04  2.17446736e+04],788,915.1450630141884
94,94,[-1.04995390e+03  3.69410185e+02 -4.43810112e-04  2.13778650e+04],587,915.0496059920364
95,95,[-1.00910597e+03  3.67408022e+02 -5.09835887e-04  2.13778650e+04],300,915.9645034501673
96,96,[-9.74168808e+02  3.65405849e+02 -4.49790586e-04  2.13778650e+04],833,917.4156425237967
97,97,[-1.08920520e+03  3.70410969e+02 -3.06194396e-04  2.13778650e+04],775,918.6912095331326
98,98,[-1.01797367e+03  3.67407666e+02 -2.71433471e-04  2.13778650e+04],585,918.6112981600362
99,99,[-1.41712552e+03  3.67408072e+02 -3.55132298e-04  2.13779088e+04],274,917.3886301198114
100,100,[-1.08596260e+03  3.70411235e+02 -4.29838420e-04  2.13778650e+04],721,916.7764196926598
101,101,[-1.01460135e+03  3.67407986e+02 -4.32349225e-04  2.13778650e+04],528,917.494818304746
102,102,[-1.03734080e+03  3.68409114e+02 -4.20159186e-04  2.13778650e+04],576,917.9016385225774
103,103,[-1.07495051e+03  3.70411316e+02 -4.07690964e-04  2.13778650e+04],504,917.7396434170181
104,104,[-9.90570340e+02  3.66406905e+02 -5.27266303e-04  2.13778650e+04],265,913.6227571188207
105,105,[-1.53403420e+03  3.68409262e+02 -3.41679278e-04  2.13798244e+04],789,916.8812049017016
106,106,[-1.44080204e+03  3.67408023e+02 -3.10194675e-04  2.13779628e+04],519,918.5282332248885
107,107,[-9.97878141e+02  3.67408036e+02 -4.54673050e-04  2.13778654e+04],299,918.2869988470932
108,108,[-1.48124298e+03  3.64404784e+02 -3.11733513e-04  2.14166265e+04],787,918.5928066170818
109,109,[-1.05341594e+03  3.69410231e+02 -4.55476712e-04  2.13778718e+04],295,914.4648955253514
110,110,[-9.92864296e+02  3.66406530e+02 -5.27558353e-04  2.13778718e+04],282,916.3042460501418
111,111,[-1.03307250e+03  3.68409075e+02 -4.14712034e-04  2.13778718e+04],183,916.816321134103
112,112,[-1.08328983e+03  3.70411352e+02 -4.03861493e-04  2.13778718e+04],259,918.4526086018169
113,113,[-1.01290068e+03  3.67408061e+02 -4.24690238e-04  2.13778718e+04],834,918.4045500243047
114,114,[-1.52061207e+03  3.66407074e+02 -3.19587090e-04  2.78906654e+04],279,918.1649941395306
115,115,[-1.05952503e+03  3.69410238e+02 -4.11616797e-04  2.13789414e+04],592,915.8325513981074
116,116,[-1.01063451e+03  3.67407768e+02 -2.66432805e-04  2.13789414e+04],350,919.3061895799653
117,117,[-1.05625135e+03  3.68408980e+02 -3.19091102e-04  2.13789414e+04],187,918.2668149884696
118,118,[-1.77191855e+03  3.69410279e+02 -3.01676642e-04  2.91692455e+04],685,918.9151768668704
119,119,[-9.95451520e+02  3.66406868e+02 -4.42514317e-04  2.13802199e+04],291,917.7795908797646
120,120,[-1.01965223e+03  3.68408773e+02 -4.60752990e-04  2.13802199e+04],770,916.2866032835045
121,121,[-1.54234417e+03  3.68409003e+02 -3.50666479e-04  2.15345498e+04],502,914.8652643696399
122,122,[-1.62867887e+03  3.69409593e+02 -3.16804075e-04  2.69060387e+04],363,919.1632133115819
123,123,[-1.63663295e+03  3.69410399e+02 -2.88628428e-04  2.78631451e+04],746,919.2034997080234
124,124,[-1.66164521e+03  3.71412439e+02 -3.05579658e-04  2.36149563e+04],298,918.9509514558929
125,125,[-1.09756946e+03  3.68409157e+02 -2.28849488e-04  2.13825806e+04],599,919.4876568950967
126,126,[-1.01598709e+03  3.67407965e+02 -3.97599765e-04  2.13825806e+04],735,918.8753388733345
127,127,[-1.05564789e+03  3.69410151e+02 -4.00924012e-04  2.13825806e+04],312,917.0995652534759
128,128,[-1.09878412e+03  3.71412430e+02 -3.37791453e-04  2.13825806e+04],399,919.7742603670096
129,129,[-1.05206854e+03  3.68409174e+02 -3.00912170e-04  2.13825806e+04],829,917.2129744835016
130,130,[-1.60186804e+03  3.70411459e+02 -3.06228142e-04  2.43790088e+04],865,919.4642729575014
131,131,[-1.55012062e+03  3.70409401e+02 -3.37882837e-04  2.14053611e+04],591,917.9651577900862
132,132,[-1.51408253e+03  3.70411489e+02 -3.60103166e-04  2.13823448e+04],734,918.0280965188089
133,133,[-1.09875769e+03  3.70411235e+02 -2.99100186e-04  2.13830750e+04],572,919.3138835788409
134,134,[-1.09663982e+03  3.69410212e+02 -1.93646879e-04  2.13830750e+04],673,918.4381150655514
135,135,[-1.12217565e+03  3.71412450e+02 -2.26784788e-04  2.13830750e+04],693,918.3313472700484
136,136,[-1.03078912e+03  3.68409111e+02 -3.68290289e-04  2.13830750e+04],38,919.5226363835114
137,137,[-1.07203458e+03  3.69410090e+02 -2.45191857e-04  2.13830750e+04],908,920.1909051356344
138,138,[-1.86139888e+03  3.68409299e+02 -2.84207722e-04  2.54000427e+04],37,919.7314392497293
139,139,[-1.03950240e+03  3.68409028e+02 -2.59997946e-04  2.13837321e+04],200,918.5819871395836
140,140,[-1.02107966e+03  3.67407797e+02 -4.01975218e-04  2.13837321e+04],559,919.9681218570024
141,141,[-1.07034543e+03  3.69410129e+02 -3.51705351e-04  2.13837321e+04],467,919.653369576106
142,142,[-1.09013912e+03  3.70411098e+02 -2.71228517e-04  2.13837321e+04],487,919.5342383181277
143,143,[-1.72674580e+03  3.69410362e+02 -2.65754438e-04  2.16262744e+04],140,919.7035935200951
144,144,[-1.04873230e+03  3.68409058e+02 -2.97163554e-04  2.13837717e+04],781,919.707570567739
145,145,[-9.86160830e+02  3.66406804e+02 -4.07952792e-04  2.13837717e+04],785,919.00923693062
146,146,[-1.43894771e+03  3.68409150e+02 -3.10691809e-04  2.13838462e+04],780,917.8495882713611
147,147,[-1.08911791e+03  3.70411285e+02 -3.14009454e-04  2.13837717e+04],920,919.8829343114704
148,148,[-1.04431317e+03  3.68409176e+02 -2.77657146e-04  2.13837717e+04],304,917.8458843885466
149,149,[-1.13810655e+03  3.71412427e+02 -2.35471165e-04  2.13837717e+04],762,920.1793359999128
150,150,[-1.46884433e+03  3.67407876e+02 -3.10358447e-04  2.14485142e+04],760,918.6418927938265
151,151,[-1.01470274e+03  3.67407975e+02 -3.51390530e-04  2.13837823e+04],791,918.6229678921366
152,152,[-1.46784442e+03  3.68407875e+02 -3.20356611e-04  2.13838387e+04],513,916.8982646129464
153,153,[-1.60558433e+03  3.66406788e+02 -2.93002482e-04  2.14123325e+04],531,919.5914845410757
154,154,[-1.11869849e+03  3.71412275e+02 -2.79831153e-04  2.13837870e+04],251,920.2832810842681
155,155,[-1.09368172e+03  3.70411494e+02 -2.89502513e-04  2.13838121e+04],915,920.4120883722906
156,156,[-1.00594531e+03  3.66406957e+02 -3.00670358e-04  2.13837870e+04],622,920.3066165048889
157,157,[-1.07531910e+03  3.70411263e+02 -3.62228200e-04  2.13837870e+04],786,919.1250228855886
158,158,[-1.00437110e+03  3.67408034e+02 -3.63948796e-04  2.13837870e+04],495,919.1457228443211
159,159,[-1.11656663e+03  3.71412075e+02 -2.64322118e-04  2.13837870e+04],171,920.2458424883138
160,160,[-1.12575544e+03  3.71412461e+02 -2.70053197e-04  2.13837870e+04],430,920.2713519108034
161,161,[-1.07479089e+03  3.69410217e+02 -2.53379775e-04  2.13837870e+04],494,918.8633519035718
162,162,[-9.90185682e+02  3.66406956e+02 -4.37269692e-04  2.13837870e+04],699,919.8479192059352
163,163,[-1.04660807e+03  3.68408897e+02 -2.96394235e-04  2.13837870e+04],581,917.4910883450606
164,164,[-1.69431931e+03  3.68409136e+02 -2.61917728e-04  2.13847612e+04],674,918.4911616894688
165,165,[-1.09361411e+03  3.70411323e+02 -2.80305903e-04  2.13837871e+04],264,919.5018070846812
166,166,[-1.68643964e+03  3.69390743e+02 -2.76208358e-04  2.57518525e+04],305,918.6022441218672
167,167,[-1.65421801e+03  3.71409035e+02 -2.96011346e-04  2.13826021e+04],353,919.7556364034866
168,168,[-1.04646093e+03  3.68408851e+02 -2.79305421e-04  2.13844981e+04],573,919.8802212666482
169,169,[-1.06554752e+03  3.69410074e+02 -3.33269123e-04  2.13844981e+04],281,918.9861211365164
170,170,[-1.29188797e+03  3.68409091e+02 -2.98424232e-04  2.13844981e+04],869,919.848612860976
171,171,[-1.23563516e+03  3.71412426e+02 -2.29680093e-04  2.13844981e+04],347,919.9232108096844
172,172,[-1.75563159e+03  3.75417052e+02 -2.78565926e-04  2.71589518e+04],844,918.7342221914545
173,173,[-1.36626203e+03  3.71412397e+02 -3.03356131e-04  2.13854375e+04],222,919.1847195183324
174,174,[-1.07802993e+03  3.69410197e+02 -2.75191617e-04  2.13854375e+04],147,919.2670375662037
175,175,[-1.47439371e+03  3.65405753e+02 -2.17773983e-04  2.13854375e+04],168,918.1606453726394
176,176,[-1.74510341e+03  3.76418155e+02 -2.78585486e-04  2.16157352e+04],736,918.8130318778659
177,177,[-1.85837505e+03  3.65405921e+02 -2.45045341e-04  2.15167328e+04],517,918.7972545867145
178,178,[-1.03274566e+03  3.67407942e+02 -2.20018028e-04  2.13854963e+04],329,918.9875899949591
179,179,[-1.04814535e+03  3.68409065e+02 -3.64538790e-04  2.13854963e+04],843,919.7653893142933
180,180,[-1.06659676e+03  3.68409074e+02 -2.85820770e-04  2.13854963e+04],293,919.8195910145174
181,181,[-1.24487700e+03  3.71412424e+02 -2.44605426e-04  2.13854963e+04],508,919.4988568579031
182,182,[-1.66517174e+03  3.75417044e+02 -2.99272954e-04  2.14309103e+04],280,919.2968506120397
183,183,[-1.09204406e+03  3.70411088e+02 -2.59916182e-04  2.13855037e+04],615,920.0805300927356
184,184,[-1.08884093e+03  3.69409917e+02 -2.20573888e-04  2.13855037e+04],910,919.722981595265
185,185,[-1.81167818e+03  3.63403732e+02 -2.31250720e-04  2.12986970e+04],348,919.2712497722185
186,186,[-1.80843525e+03  3.75417064e+02 -2.83962129e-04  2.74477197e+04],477,918.7332758937445
187,187,[-1.09682208e+03  3.70411226e+02 -2.61284756e-04  2.13864735e+04],726,920.0560602674307
188,188,[-1.12882971e+03  3.71412397e+02 -2.40886815e-04  2.13864735e+04],488,920.4310860856854
189,189,[-1.21996637e+03  3.70410977e+02 -2.54937622e-04  2.13864735e+04],705,919.3595968785863
190,190,[-1.70582043e+03  3.67408131e+02 -2.76794714e-04  2.14551440e+04],816,919.4430736605206
191,191,[-1.05327824e+03  3.68408930e+02 -2.55915528e-04  2.13864847e+04],170,919.5865353228235
192,192,[-1.03975285e+03  3.67408054e+02 -2.23584529e-04  2.13864847e+04],162,919.296421397097
193,193,[-1.69752860e+03  3.67408156e+02 -2.86764911e-04  2.18562422e+04],893,919.1297250409891
194,194,[-1.35508088e+03  3.70411332e+02 -2.88015340e-04  2.13865608e+04],826,919.2626183512708
195,195,[-1.21387929e+03  3.64404738e+02 -2.67481358e-04  2.13865608e+04],583,919.2400455280061
196,196,[-1.11686742e+03  3.73414506e+02 -3.51812270e-04  2.13865608e+04],316,916.2018383003469
197,197,[-1.61559997e+03  3.68409112e+02 -2.81550425e-04  2.13866275e+04],874,918.5281367251864
198,198,[-1.09978972e+03  3.70411217e+02 -3.00365758e-04  2.13865609e+04],338,918.0230278002632
199,199,[-1.65583477e+03  3.67408129e+02 -2.93862230e-04  2.13881445e+04],601,919.1237153579372
200,200,[-1.20043974e+03  3.69409864e+02 -2.61536695e-04  2.13865611e+04],256,919.9744449357022
201,201,[-1.04543602e+03  3.68409012e+02 -3.96763178e-04  2.13865611e+04],290,918.3836576228449
202,202,[-1.06954047e+03  3.69410354e+02 -4.34643595e-04  2.13865652e+04],694,918.6472235658067
203,203,[-1.03821069e+03  3.68409195e+02 -4.26800611e-04  2.13865611e+04],720,919.339984982879
204,204,[-1.05952409e+03  3.68408830e+02 -2.82396858e-04  2.13865611e+04],180,920.2553095654064
205,205,[-1.44430001e+03  3.67408168e+02 -2.94062694e-04  2.29977989e+04],638,919.6473166911012
206,206,[-1.01641522e+03  3.67408034e+02 -4.85354561e-04  2.13868218e+04],877,918.1398819303151
207,207,[-1.34375583e+03  3.68409083e+02 -3.44467373e-04  2.13868343e+04],288,915.7636433460746
208,208,[-1.48421647e+03  3.68409074e+02 -3.46681821e-04  2.22096178e+04],866,915.047926177559
209,209,[-1.46424844e+03  3.66407069e+02 -3.37971897e-04  2.48327891e+04],533,917.4724632143111
210,210,[-9.81857872e+02  3.66406834e+02 -5.56803386e-04  2.13875121e+04],588,907.562692348951
211,211,[-9.63000399e+02  3.65405818e+02 -5.91609920e-04  2.13875121e+04],342,905.7516759986281
212,212,[-1.28981266e+03  3.67406483e+02 -3.82611079e-04  2.13884002e+04],690,914.3523588156908
213,213,[-1.03676807e+03  3.68408952e+02 -3.71012773e-04  2.13875123e+04],261,914.6293287768235
214,214,[-1.23888108e+03  3.65405947e+02 -4.23902146e-04  2.44300220e+04],501,911.451242644946
215,215,[-1.01326486e+03  3.68409130e+02 -4.31775723e-04  2.13880039e+04],919,910.8149221131836
216,216,[-1.06232477e+03  3.68409156e+02 -4.73230908e-04  2.13880039e+04],711,910.9906217980858
217,217,[-1.07468869e+03  3.69410260e+02 -3.59416296e-04  2.13880039e+04],509,916.7492098250873
218,218,[-1.00446716e+03  3.66406918e+02 -3.35782958e-04  2.13880039e+04],480,919.1779366673608
219,219,[-1.54859911e+03  3.68409277e+02 -2.89717958e-04  2.24538359e+04],266,918.471437799666
220,220,[-1.04800806e+03  3.68408991e+02 -3.16167454e-04  2.13881759e+04],782,919.6961898160564
221,221,[-1.04417351e+03  3.68408911e+02 -4.33033416e-04  2.13881759e+04],741,918.860034566436
222,222,[-1.62287890e+03  3.70411357e+02 -3.21450707e-04  2.13883157e+04],526,919.8853472377536
223,223,[-1.58593180e+03  3.70411507e+02 -3.08352077e-04  2.33070075e+04],790,920.3181739914489
224,224,[-1.51245153e+03  3.68409276e+02 -3.17232862e-04  2.15079527e+04],895,920.4652657782912
225,225,[-9.94399222e+02  3.66406758e+02 -4.29931281e-04  2.13885048e+04],577,919.3873416986113
226,226,[-1.04188453e+03  3.68409084e+02 -4.39036717e-04  2.13885048e+04],128,918.217290774832
227,227,[-1.05188153e+03  3.68409106e+02 -4.52340218e-04  2.13885048e+04],523,918.7985707126878
228,228,[-1.02253216e+03  3.67407958e+02 -3.72676120e-04  2.13885048e+04],478,920.4057736014568
229,229,[-1.00002095e+03  3.66406867e+02 -4.48344071e-04  2.13885048e+04],539,919.470654207761
230,230,[-1.59297018e+03  3.68409263e+02 -2.84672663e-04  1.91110329e+04],905,918.3037142018933
231,231,[-1.04448126e+03  3.68409124e+02 -3.42073237e-04  2.13881378e+04],179,919.0698210545588
232,232,[-1.10189321e+03  3.70411214e+02 -2.75782945e-04  2.13881378e+04],649,917.6554617212274
233,233,[-1.06026307e+03  3.68409185e+02 -2.09910662e-04  2.13881378e+04],689,920.3830191999974
234,234,[-1.02645470e+03  3.67407972e+02 -2.25789155e-04  2.13881378e+04],167,918.5693848382348
235,235,[-1.22600454e+03  3.70411293e+02 -2.59211703e-04  2.13881378e+04],687,919.1667010684768
236,236,[-9.96633519e+02  3.66406875e+02 -3.44582089e-04  2.13881378e+04],236,919.7509996666369
237,237,[-1.74075183e+03  3.67408068e+02 -2.66171101e-04  2.13887199e+04],889,919.6481951316507
238,238,[-1.74185201e+03  3.66407040e+02 -2.79563005e-04  2.15400445e+04],252,920.1942696467573
239,239,[-1.13208003e+03  3.71412486e+02 -2.51935865e-04  2.13881623e+04],832,916.9152101843423
240,240,[-1.06726672e+03  3.68408996e+02 -2.53063816e-04  2.13881623e+04],138,919.2381547770075
241,241,[-1.72363127e+03  3.68408731e+02 -2.80322667e-04  2.13697122e+04],715,918.4958069810239
242,242,[-1.69288813e+03  3.68405820e+02 -2.75048703e-04  2.76763679e+04],469,919.6184515895865
243,243,[-1.34715700e+03  3.70411301e+02 -3.01792063e-04  2.13891708e+04],184,919.7055848928894
244,244,[-1.50107600e+03  3.68391710e+02 -3.06135143e-04  2.13890724e+04],912,920.3521383008487
245,245,[-1.58065634e+03  3.68409283e+02 -2.91719345e-04  2.20806641e+04],458,920.1756823479304
246,246,[-1.03148601e+03  3.67407962e+02 -3.91755118e-04  2.13892820e+04],484,920.2943479866309
247,247,[-1.02988170e+03  3.67407949e+02 -3.66402096e-04  2.13892820e+04],710,920.3025839402937
248,248,[-1.55384688e+03  3.67407903e+02 -2.75378238e-04  2.13893397e+04],364,918.748909079392
249,249,[-1.58102379e+03  3.68408455e+02 -2.95454152e-04  2.13879880e+04],411,920.3211516091986
250,250,[-1.57191655e+03  3.68409295e+02 -3.08875417e-04  2.59809704e+04],849,919.4057700005005
251,251,[-1.30857417e+03  3.68408698e+02 -2.15335079e-04  2.13900194e+04],144,919.9338913556116
252,252,[-1.20142172e+03  3.70411374e+02 -2.34567490e-04  2.13900194e+04],243,919.7424198717937
253,253,[-1.05391739e+03  3.68409109e+02 -2.59755540e-04  2.13900194e+04],143,919.0751108540437
254,254,[-1.06296027e+03  3.68409095e+02 -2.47392916e-04  2.13900194e+04],875,919.2163188697701
255,255,[-1.61526363e+03  3.71412238e+02 -3.10133221e-04  2.13972313e+04],220,920.4207867967043
256,256,[-1.34461620e+03  3.70411133e+02 -3.33359965e-04  2.13900205e+04],634,919.8289189437468
257,257,[-1.03066619e+03  3.67408019e+02 -2.12574889e-04  2.13900205e+04],85,919.6091404598955
258,258,[-1.67147015e+03  3.67408157e+02 -2.65405045e-04  2.15908759e+04],496,918.9627563224532
259,259,[-9.93415960e+02  3.66406696e+02 -3.09943015e-04  2.13900528e+04],320,920.0802319172693
260,260,[-1.58587792e+03  3.69409175e+02 -3.00674526e-04  2.79536097e+04],629,919.6325581998133
261,261,[-1.02992063e+03  3.67408019e+02 -2.43883171e-04  2.13911055e+04],593,919.7950041080702
262,262,[-1.02282798e+03  3.67407948e+02 -2.31441678e-04  2.13911055e+04],809,919.6330269724726
263,263,[-1.05547891e+03  3.68408917e+02 -3.14995441e-04  2.13911055e+04],884,920.2471646729388
264,264,[-1.01662095e+03  3.67407999e+02 -4.00152456e-04  2.13911055e+04],485,919.9035559957134
265,265,[-1.10330737e+03  3.70411033e+02 -3.01500415e-04  2.13911055e+04],553,920.1090151470768
266,266,[-1.05248578e+03  3.68408922e+02 -2.70136218e-04  2.13911055e+04],845,919.7802132309796
267,267,[-1.22379533e+03  3.71412435e+02 -2.38626289e-04  2.13911055e+04],838,917.5965808862918
268,268,[-9.84337746e+02  3.65405791e+02 -4.82100923e-04  2.13911055e+04],922,919.2139086973393
269,269,[-1.08385322e+03  3.69410106e+02 -2.57690364e-04  2.13911055e+04],506,919.407663562171
270,270,[-1.78504271e+03  3.72413652e+02 -2.75851891e-04  2.77072971e+04],141,919.3739389040464
271,271,[-1.20429068e+03  3.76418015e+02 -3.63120482e-04  2.13921169e+04],237,918.7517469554621
272,272,[-1.23122312e+03  3.65405839e+02 -2.37425355e-04  2.13921169e+04],205,918.5730469612606
273,273,[-1.61489430e+03  3.68409246e+02 -2.93531961e-04  2.61804918e+04],590,920.3583803552384
274,274,[-1.07895841e+03  3.69410250e+02 -2.83732524e-04  2.13928833e+04],817,920.1302058489345
275,275,[-1.23048517e+03  3.64404702e+02 -2.62070929e-04  2.13928833e+04],262,919.4224453116952
276,276,[-1.02576732e+03  3.67408092e+02 -2.29065150e-04  2.13928833e+04],260,919.4597578418192
277,277,[-1.56522330e+03  3.68409134e+02 -2.99824547e-04  2.13928844e+04],575,920.1983928365139
278,278,[-1.62848915e+03  3.67403250e+02 -3.08050346e-04  2.13928853e+04],732,918.2326625897073
279,279,[-1.07076229e+03  3.68408989e+02 -2.11103515e-04  2.13928833e+04],909,920.0707042249915
280,280,[-1.02927740e+03  3.67408018e+02 -2.28464197e-04  2.13928833e+04],574,919.8732996537814
281,281,[-1.05881865e+03  3.68409070e+02 -2.66161015e-04  2.13928833e+04],242,919.9012341199434
282,282,[-1.06251041e+03  3.68409051e+02 -2.79103246e-04  2.13928833e+04],823,920.0960252249143
283,283,[-1.60426899e+03  3.68408955e+02 -3.18913464e-04  2.67204154e+04],606,919.3569139748279
284,284,[-1.69436473e+03  3.68409254e+02 -2.71869021e-04  2.14193576e+04],457,919.009467095633
285,285,[-1.03844396e+03  3.67408052e+02 -2.54159575e-04  2.13937387e+04],257,919.1792989688323
286,286,[-1.46601946e+03  3.66407053e+02 -3.20957310e-04  2.64667958e+04],309,918.9873313711712
287,287,[-1.04372623e+03  3.68409052e+02 -4.45631784e-04  2.13945489e+04],70,918.5840147434167
288,288,[-1.27538732e+03  3.66406912e+02 -2.64292661e-04  2.13945489e+04],668,919.8158892495085
289,289,[-1.03185511e+03  3.67407965e+02 -2.52646711e-04  2.13945489e+04],894,919.5837623665789
290,290,[-1.62922607e+03  3.69410296e+02 -2.80999814e-04  2.59937912e+04],565,919.8282214943754
291,291,[-1.03756934e+03  3.67407897e+02 -2.69091470e-04  2.13952830e+04],854,920.0558230183201
292,292,[-1.02724168e+03  3.67408017e+02 -3.58686867e-04  2.13952830e+04],74,919.5014634039863
293,293,[-1.09145057e+03  3.70411245e+02 -2.92411723e-04  2.13952830e+04],153,919.8742654953478
294,294,[-1.23294209e+03  3.66406573e+02 -2.21363272e-04  2.13952830e+04],534,920.3935457201926
295,295,[-1.62905364e+03  3.69405558e+02 -3.17251377e-04  2.13952872e+04],191,920.1006783775583
296,296,[-1.04629787e+03  3.68408837e+02 -2.56394354e-04  2.13952830e+04],391,920.1968607294597
297,297,[-1.09357270e+03  3.70411267e+02 -3.06655204e-04  2.13952830e+04],903,919.4115850013386
298,298,[-1.61386746e+03  3.70411473e+02 -3.27347034e-04  2.15360821e+04],289,920.0366026485528
299,299,[-1.10545885e+03  3.70411302e+02 -3.41971626e-04  2.13953055e+04],414,920.1035252197275
300,300,[-1.09679636e+03  3.70411140e+02 -2.86699558e-04  2.13953055e+04],427,920.1626530973052
301,301,[-1.12845182e+03  3.71412321e+02 -2.85753868e-04  2.13953055e+04],479,920.4360817028254
302,302,[-1.52188204e+03  3.67405872e+02 -3.05747916e-04  2.14594460e+04],16,920.6045662200648
303,303,[-1.12489657e+03  3.71412179e+02 -2.78508795e-04  2.13953157e+04],747,920.3595154189265
304,304,[-1.08046683e+03  3.69410295e+02 -2.68707483e-04  2.13953157e+04],142,919.9531415881247
305,305,[-1.55822805e+03  3.68409190e+02 -2.77208975e-04  2.13953332e+04],398,919.9035050502484
306,306,[-1.54717464e+03  3.68409101e+02 -3.10950489e-04  2.14204247e+04],136,920.3022875748538
307,307,[-1.02435339e+03  3.67408032e+02 -4.32600006e-04  2.13953197e+04],594,920.4798425616224
308,308,[-1.61761638e+03  3.71412201e+02 -3.46794342e-04  2.13953428e+04],489,920.1905474583331
309,309,[-1.04361296e+03  3.68409120e+02 -3.63082390e-04  2.13953197e+04],346,919.6050633882991
310,310,[-1.02051615e+03  3.67408009e+02 -2.44663053e-04  2.13953197e+04],859,920.2103065311192
311,311,[-1.48983577e+03  3.68409257e+02 -3.16656213e-04  2.14506148e+04],892,920.3441786638823
312,312,[-1.62935500e+03  3.71412590e+02 -2.98737409e-04  2.15772723e+04],165,920.0177690757749
313,313,[-1.13924121e+03  3.71412258e+02 -2.41124198e-04  2.13953574e+04],292,918.8125345733952
314,314,[-1.71131231e+03  3.68409278e+02 -2.59593665e-04  2.29587983e+04],737,917.4448101091409
315,315,[-1.08647965e+03  3.69410170e+02 -2.63163296e-04  2.13956060e+04],181,920.3308330237808
316,316,[-1.36613894e+03  3.71412454e+02 -2.99463082e-04  2.13956060e+04],899,919.8386918361888
317,317,[-1.20379706e+03  3.63403535e+02 -2.12506738e-04  2.13956060e+04],465,917.4245672988096
318,318,[-1.05159273e+03  3.68409149e+02 -2.13193265e-04  2.13956060e+04],125,915.7815683924414
319,319,[-1.23368269e+03  3.71412243e+02 -2.42320055e-04  2.13956060e+04],516,919.4682844269031
320,320,[-1.19853444e+03  3.70411118e+02 -2.43116854e-04  2.13956060e+04],51,919.6849949213204
321,321,[-1.03824309e+03  3.68408951e+02 -4.61748272e-04  2.13956060e+04],90,919.2949012161373
322,322,[-1.08635871e+03  3.70411382e+02 -3.74110786e-04  2.13956060e+04],33,918.7586235715349
323,323,[-1.17361008e+03  3.72413704e+02 -2.47544874e-04  2.13956285e+04],426,918.5563774185059
324,324,[-1.24671693e+03  3.64404460e+02 -2.29569752e-04  2.13956061e+04],229,917.7659251908043
325,325,[-1.32749623e+03  3.69410247e+02 -2.70772478e-04  2.13956061e+04],330,917.9155975404508
326,326,[-1.13074438e+03  3.72413343e+02 -2.77126705e-04  2.13956061e+04],900,917.9648884316434
327,327,[-1.22148041e+03  3.76417988e+02 -3.03202805e-04  2.13956061e+04],319,917.2716356569711
328,328,[-1.03070854e+03  3.67408055e+02 -2.52209895e-04  2.13956061e+04],595,918.2092591391877
329,329,[-1.64075182e+03  3.69410366e+02 -2.89305259e-04  2.55362632e+04],130,919.877101343786
330,330,[-1.73162563e+03  3.66407068e+02 -2.61910174e-04  2.22204674e+04],839,919.4702922738599
331,331,[-1.65529686e+03  3.67408194e+02 -2.71641326e-04  3.38937059e+04],476,918.9869975982779
332,332,[-1.20873438e+03  3.71412436e+02 -2.38427990e-04  2.13983754e+04],276,917.8016197153659
333,333,[-1.71740160e+03  3.71407011e+02 -2.73301970e-04  2.74514598e+04],639,915.7952207431127
334,334,[-1.21807478e+03  3.76417823e+02 -2.49167410e-04  2.13993350e+04],413,916.8238287931684
335,335,[-1.26956850e+03  3.79421410e+02 -3.36305882e-04  2.13993350e+04],598,915.4632234045016
336,336,[-1.38744073e+03  3.71412471e+02 -2.75663078e-04  2.13993350e+04],444,917.6838896150905
337,337,[-1.05089221e+03  3.68409023e+02 -3.21922974e-04  2.13993350e+04],835,919.3961688293806
338,338,[-1.09739221e+03  3.70411307e+02 -2.83952825e-04  2.13993350e+04],190,919.83283663256
339,339,[-1.31033524e+03  3.67407966e+02 -1.91351749e-04  2.13993350e+04],490,918.1488145297144
340,340,[-1.13819404e+03  3.71412455e+02 -2.21496147e-04  2.13993350e+04],876,918.2451654604416
341,341,[-1.26595629e+03  3.68409089e+02 -2.98394107e-04  2.13993350e+04],470,919.176365121188
342,342,[-1.11998358e+03  3.71412427e+02 -2.43497761e-04  2.13993350e+04],275,919.8035360086612
343,343,[-1.16629083e+03  3.72413481e+02 -2.41735044e-04  2.13993350e+04],904,918.6581754011925
344,344,[-1.22887511e+03  3.78420270e+02 -3.28982735e-04  2.13993350e+04],297,918.2363511837154
345,345,[-1.02474313e+03  3.67407944e+02 -2.16483308e-04  2.13993350e+04],31,916.9138776178505
346,346,[-9.78889069e+02  3.65405840e+02 -5.54018854e-04  2.13993350e+04],269,919.5167573127726
347,347,[-1.05322127e+03  3.68409026e+02 -2.63714251e-04  2.13993350e+04],250,919.8914975475384
348,348,[-1.12556074e+03  3.71412286e+02 -2.39161277e-04  2.13993350e+04],337,919.8661639995385
349,349,[-1.16993830e+03  3.63403534e+02 -1.73203620e-04  2.13993350e+04],625,917.827714181453
350,350,[-1.02057117e+03  3.67407939e+02 -3.60123628e-04  2.13993350e+04],390,920.0620447171827
351,351,[-1.06145747e+03  3.68409127e+02 -2.49367098e-04  2.13993350e+04],511,920.3344445713601
352,352,[-1.64702929e+03  3.69410387e+02 -2.91439843e-04  2.48259582e+04],580,920.2551906550525
353,353,[-1.05561065e+03  3.68409044e+02 -2.56146862e-04  2.13998766e+04],225,919.9031422024319
354,354,[-1.04291307e+03  3.68409092e+02 -2.88402733e-04  2.13998766e+04],578,919.3377130974606
355,355,[-1.13170386e+03  3.71412377e+02 -2.71684516e-04  2.13998766e+04],771,920.588752698669
356,356,[-1.22069697e+03  3.65405769e+02 -2.49723765e-04  2.13998766e+04],270,919.1186823803022
357,357,[-1.03158613e+03  3.67407846e+02 -2.50197954e-04  2.13998766e+04],916,916.7600094930119
358,358,[-1.08177289e+03  3.69410246e+02 -3.90158165e-04  2.13998766e+04],837,918.4431487220636
359,359,[-1.52910862e+03  3.67408168e+02 -2.89900501e-04  2.19716503e+04],375,920.17683842611
360,360,[-1.13476148e+03  3.71412111e+02 -2.71206856e-04  2.13999669e+04],189,920.2568126261087
361,361,[-1.02318981e+03  3.67408068e+02 -3.77434301e-04  2.13999669e+04],283,920.4291611036667
362,362,[-1.01833113e+03  3.67407965e+02 -4.14494233e-04  2.13999669e+04],757,920.5470474740503
363,363,[-1.49842535e+03  3.67408180e+02 -2.87419494e-04  2.28867568e+04],672,920.0415286123613
364,364,[-1.14164061e+03  3.70411334e+02 -2.15992431e-04  2.14002014e+04],203,919.7152940935066
365,365,[-1.69294073e+03  3.71412612e+02 -2.79142689e-04  2.17339941e+04],73,919.1224210608071
366,366,[-1.13038788e+03  3.71412455e+02 -2.55806593e-04  2.14002541e+04],354,919.3311415567188
367,367,[-1.12422268e+03  3.71412385e+02 -2.60090902e-04  2.14002541e+04],368,920.4977183299268
368,368,[-1.59505060e+03  3.69410400e+02 -2.84787887e-04  2.55248137e+04],366,919.3315309573379
369,369,[-1.07987378e+03  3.69410032e+02 -2.57550539e-04  2.14009043e+04],897,920.2746022352017
370,370,[-1.08489649e+03  3.69410172e+02 -2.44884392e-04  2.14009043e+04],614,919.2593268762946
371,371,[-1.70043927e+03  3.69410365e+02 -2.57065330e-04  2.14008524e+04],538,919.1131958629807
372,372,[-1.36544166e+03  3.71412061e+02 -2.71822564e-04  2.14009043e+04],610,916.7826791244325
373,373,[-1.08300573e+03  3.69410186e+02 -2.95515180e-04  2.14009043e+04],456,920.2329561260501
374,374,[-1.03467410e+03  3.67408088e+02 -2.55882522e-04  2.14009044e+04],133,918.9220175204646
375,375,[-1.24325195e+03  3.64404458e+02 -2.31790408e-04  2.14009043e+04],515,919.3643385087714
376,376,[-1.16889247e+03  3.74415799e+02 -3.20772792e-04  2.14009043e+04],474,916.3757242596814
377,377,[-1.26852513e+03  3.71412414e+02 -2.21598921e-04  2.14009043e+04],116,916.2674198729625
378,378,[-1.09429038e+03  3.69410005e+02 -2.33914168e-04  2.14009043e+04],616,919.0446670392059
379,379,[-1.07590406e+03  3.69410083e+02 -2.62816612e-04  2.14009043e+04],793,918.6097315040852
380,380,[-1.75825488e+03  3.76418171e+02 -2.88597542e-04  2.13989837e+04],724,918.7120992317231
381,381,[-1.24362378e+03  3.71412225e+02 -2.24943169e-04  2.14009040e+04],182,916.3614140448512
382,382,[-1.14584274e+03  3.72413004e+02 -2.56395352e-04  2.14009040e+04],192,918.2287409532576
383,383,[-1.16400190e+03  3.72413321e+02 -2.67998573e-04  2.14009040e+04],871,920.1931660565398
384,384,[-1.26402971e+03  3.64404599e+02 -1.63487793e-04  2.14009040e+04],321,918.3439106520925
385,385,[-1.38040630e+03  3.71412268e+02 -2.91862013e-04  2.14009040e+04],683,919.0576279059534
386,386,[-1.27087982e+03  3.68409218e+02 -3.07035813e-04  2.14009041e+04],681,919.0885107342598
387,387,[-1.05329461e+03  3.68409184e+02 -3.28464851e-04  2.14009040e+04],742,920.2300495440929
388,388,[-1.38386137e+03  3.71412357e+02 -2.81137920e-04  2.14009040e+04],429,917.5249051831654
389,389,[-1.26388562e+03  3.79421317e+02 -2.02247018e-04  2.14009040e+04],185,917.3997731986296
390,390,[-1.24337061e+03  3.64404529e+02 -2.47660622e-04  2.14009040e+04],628,919.3924383208204
391,391,[-1.05917489e+03  3.68409167e+02 -2.46785157e-04  2.14009040e+04],842,919.5858964641533
392,392,[-1.23654375e+03  3.78420299e+02 -3.42626507e-04  2.14009040e+04],174,916.7635327035586
393,393,[-1.14988355e+03  3.70411315e+02 -1.79107832e-04  2.14009040e+04],503,916.380920385413
394,394,[-1.74822507e+03  3.72412564e+02 -2.51685141e-04  2.14009665e+04],194,917.0020171822925
395,395,[-1.24680429e+03  3.71412431e+02 -2.28411014e-04  2.14009040e+04],370,917.4317909772067
396,396,[-1.12182702e+03  3.70411344e+02 -2.21482917e-04  2.14009040e+04],704,918.1570585323922
397,397,[-1.09703635e+03  3.69410224e+02 -2.35247002e-04  2.14009040e+04],412,916.9244775190411
398,398,[-1.04084957e+03  3.68408946e+02 -3.26856402e-04  2.14009040e+04],641,919.5254609594591
399,399,[-1.70986039e+03  3.72413512e+02 -2.97172432e-04  2.14009273e+04],755,920.0168603139799
400,400,[-1.38301069e+03  3.70411360e+02 -2.58142302e-04  2.14009041e+04],620,916.7669033292018
401,401,[-1.77073385e+03  3.69410254e+02 -2.53213176e-04  2.16515917e+04],195,917.9326767684262
402,402,[-1.38771736e+03  3.72413459e+02 -2.96461363e-04  2.14009434e+04],240,918.8975649329614
403,403,[-1.86064981e+03  3.67408146e+02 -2.31268303e-04  2.17380945e+04],75,916.9965288842685
404,404,[-1.36164803e+03  3.70411349e+02 -2.61251174e-04  2.14009962e+04],695,917.1677772191368
405,405,[-1.73566458e+03  3.68409289e+02 -2.56334173e-04  3.02319192e+04],821,917.8619972289104
406,406,[-1.63726794e+03  3.79421406e+02 -3.08790246e-04  2.14024611e+04],679,918.0924527861775
407,407,[-1.11545423e+03  3.70411247e+02 -2.24190692e-04  2.14023804e+04],819,917.3524270600051
408,408,[-1.22970542e+03  3.64404616e+02 -1.74276939e-04  2.14023804e+04],873,916.2771916506358
409,409,[-1.72167027e+03  3.72413481e+02 -2.62407366e-04  2.14024973e+04],857,914.9152963337525
410,410,[-1.39138853e+03  3.68408947e+02 -2.71728268e-04  2.41101974e+04],911,912.6588500839914
411,411,[-1.07806728e+03  3.69410251e+02 -2.71152973e-04  2.14028045e+04],254,919.7144567651644
412,412,[-1.66693044e+03  3.73414840e+02 -2.91436093e-04  2.27229238e+04],777,919.2560532628709
413,413,[-1.60616750e+03  3.68409299e+02 -2.91328244e-04  2.74739364e+04],268,919.4559237256238
414,414,[-1.03106320e+03  3.67407971e+02 -2.39378081e-04  2.14039616e+04],499,919.5773332105645
415,415,[-1.22255030e+03  3.70411312e+02 -2.47003388e-04  2.14039616e+04],872,919.0588528571723
416,416,[-1.24803199e+03  3.78420304e+02 -3.49481857e-04  2.14039616e+04],123,916.113964804381
417,417,[-1.22779821e+03  3.77419113e+02 -3.62616555e-04  2.14039616e+04],847,916.1737551115156
418,418,[-1.60625671e+03  3.66406883e+02 -2.55972582e-04  2.14064543e+04],525,918.8221440798038
419,419,[-1.03649866e+03  3.68409110e+02 -4.23964680e-04  2.14039620e+04],860,917.7776317125214
420,420,[-1.05224748e+03  3.68409123e+02 -2.63409892e-04  2.14039620e+04],717,917.6126680687568
421,421,[-1.05128157e+03  3.68409117e+02 -3.22321237e-04  2.14039620e+04],26,915.8669429290369
422,422,[-1.72927232e+03  3.72413119e+02 -2.70216759e-04  2.14087365e+04],173,918.2810364150173
423,423,[-1.09558355e+03  3.69410168e+02 -2.07674609e-04  2.14039627e+04],285,918.373132654148
424,424,[-1.12881519e+03  3.71412284e+02 -2.43253581e-04  2.14039627e+04],218,917.8214997277238
425,425,[-1.29362313e+03  3.68409264e+02 -3.32100974e-04  2.35742835e+04],341,918.5579590206357
426,426,[-1.02882934e+03  3.67407946e+02 -4.10300732e-04  2.14043018e+04],486,919.4724209343426
427,427,[-1.08105280e+03  3.69410253e+02 -2.66689957e-04  2.14043018e+04],27,919.5765502707733
428,428,[-1.13219929e+03  3.71412445e+02 -2.91907347e-04  2.14043018e+04],532,917.6058926323191
429,429,[-9.99978592e+02  3.66406825e+02 -4.60153798e-04  2.14043018e+04],235,919.2734573304876
430,430,[-1.05408060e+03  3.68409132e+02 -3.39262657e-04  2.14043018e+04],122,919.921946370584
431,431,[-1.49668438e+03  3.67408111e+02 -2.87588722e-04  2.14042923e+04],856,918.9219942441955
432,432,[-1.04419405e+03  3.68409097e+02 -4.61232608e-04  2.14043018e+04],655,914.7859102946363
433,433,[-1.38144335e+03  3.67408098e+02 -3.42317315e-04  2.24197351e+04],754,916.2408384381854
434,434,[-1.09221216e+03  3.70411097e+02 -3.17023215e-04  2.14044603e+04],682,918.2028655910999
435,435,[-1.00845958e+03  3.67407982e+02 -4.71179643e-04  2.14044603e+04],466,918.7039324384224
436,436,[-1.45125385e+03  3.67404835e+02 -2.95693362e-04  2.14044628e+04],766,918.7977572435567
437,437,[-1.00595913e+03  3.66406904e+02 -3.54172902e-04  2.14044603e+04],664,918.3982658160983
438,438,[-1.02576668e+03  3.67407983e+02 -3.69938704e-04  2.14044603e+04],69,917.8902591114278
439,439,[-1.06032288e+03  3.69409916e+02 -4.39856941e-04  2.14044603e+04],802,918.2299235590416
440,440,[-9.80221798e+02  3.65405725e+02 -4.87717871e-04  2.14044603e+04],158,918.9653919241973
441,441,[-1.05060599e+03  3.68409060e+02 -3.25181636e-04  2.14044603e+04],21,917.94660086003
442,442,[-1.05399229e+03  3.68409104e+02 -3.93537035e-04  2.14044603e+04],806,918.6896386261587
443,443,[-9.62266661e+02  3.64404696e+02 -6.08782333e-04  2.14044603e+04],522,918.347932162067
444,444,[-1.04889025e+03  3.68409024e+02 -3.97244096e-04  2.14044603e+04],907,919.4492358257514
445,445,[-1.08053572e+03  3.69410246e+02 -3.01238855e-04  2.14044603e+04],6,918.8377062579325
446,446,[-1.00669698e+03  3.66406890e+02 -4.62890281e-04  2.14044603e+04],830,918.3764773151257
447,447,[-1.02748806e+03  3.67407978e+02 -5.08680707e-04  2.14044603e+04],650,917.2413630038883
448,448,[-1.02878722e+03  3.69410111e+02 -3.74559576e-04  2.14044603e+04],193,914.7853958784303
449,449,[-1.32796978e+03  3.70410711e+02 -3.64184500e-04  2.14044808e+04],632,913.9789458490608
450,450,[-1.48009215e+03  3.67407986e+02 -2.54993505e-04  2.14044624e+04],157,910.4187672395697
451,451,[-1.67856771e+03  3.71412476e+02 -2.37902801e-04  2.14055135e+04],864,906.9112164558619
452,452,[-1.02814681e+03  3.67407906e+02 -2.41031685e-04  2.14044604e+04],199,909.7987303125736
453,453,[-1.16534852e+03  3.72413564e+02 -2.28928060e-04  2.14044604e+04],365,911.7441235077807
454,454,[-1.18039748e+03  3.72413242e+02 -2.24925221e-04  2.14044604e+04],701,914.3734814898646
455,455,[-1.01632056e+03  3.66406900e+02 -3.94387280e-04  2.14044604e+04],356,915.9597196440764
456,456,[-1.18398687e+03  3.70411227e+02 -2.40852780e-04  2.14044604e+04],371,919.3153946224876
457,457,[-1.09878777e+03  3.70411143e+02 -3.76427575e-04  2.14044604e+04],645,919.6155781016813
458,458,[-1.05784040e+03  3.68409048e+02 -2.57104487e-04  2.14044604e+04],697,919.7185965955268
459,459,[-1.81875945e+03  3.70411474e+02 -2.50206705e-04  2.14462791e+04],808,916.4477546161805
460,460,[-1.05350068e+03  3.68409104e+02 -1.72536484e-04  2.14044669e+04],55,914.2076149588669
461,461,[-1.74726153e+03  3.73414462e+02 -2.61725085e-04  2.14046660e+04],386,913.9072987611748
462,462,[-1.09053963e+03  3.69410303e+02 -2.67412949e-04  2.14044670e+04],861,918.4931952853005
463,463,[-1.62474291e+03  3.69410393e+02 -3.05147443e-04  2.21279683e+04],637,918.1083795093799
464,464,[-1.02371459e+03  3.67407968e+02 -3.81017051e-04  2.14045793e+04],491,920.2592730214909
465,465,[-1.67051196e+03  3.71412601e+02 -3.16207283e-04  2.15272646e+04],729,919.4909729937643
466,466,[-1.64773943e+03  3.69410360e+02 -2.99969769e-04  2.15316825e+04],545,919.1557419022172
467,467,[-1.01689299e+03  3.66406854e+02 -3.94325199e-04  2.14046181e+04],253,919.9726690091419
468,468,[-1.10359031e+03  3.69410040e+02 -2.21263271e-04  2.14046181e+04],745,917.0375220784795
469,469,[-1.05352095e+03  3.68409125e+02 -3.47667276e-04  2.14046181e+04],231,919.723817810104
470,470,[-1.08010385e+03  3.69410231e+02 -3.25348426e-04  2.14046181e+04],554,919.4283049369892
471,471,[-1.34702115e+03  3.69410069e+02 -2.77281547e-04  2.14046181e+04],29,918.0516771668094
472,472,[-1.16196943e+03  3.70411288e+02 -2.05457018e-04  2.14046181e+04],888,918.7945993751543
473,473,[-1.64175228e+03  3.68409289e+02 -2.57354093e-04  2.20124768e+04],415,917.8251269660553
474,474,[-1.61348238e+03  3.70411139e+02 -2.90460548e-04  2.14047163e+04],385,919.3077956867784
475,475,[-1.12638147e+03  3.71412348e+02 -2.35333287e-04  2.14047124e+04],667,917.5362815356469
476,476,[-1.57768774e+03  3.69410395e+02 -3.04231897e-04  2.18324590e+04],32,919.461240156284
477,477,[-1.09107677e+03  3.70411203e+02 -3.18258238e-04  2.14047787e+04],378,919.8657058660236
478,478,[-1.03074594e+03  3.67408050e+02 -2.57387975e-04  2.14047787e+04],725,919.7719357288231
479,479,[-1.60857356e+03  3.68409223e+02 -2.82141289e-04  2.14192562e+04],510,919.5716113173855
480,480,[-1.13347067e+03  3.71412430e+02 -2.52581254e-04  2.14047810e+04],284,919.7824248189962
481,481,[-1.36694788e+03  3.71412180e+02 -3.10917577e-04  2.14047810e+04],145,918.1347169113909
482,482,[-1.55402818e+03  3.71412521e+02 -3.00975181e-04  2.58095931e+04],86,918.9837934441513
483,483,[-1.09899809e+03  3.69410210e+02 -2.65700706e-04  2.14054631e+04],483,918.9890044614406
484,484,[-1.12433097e+03  3.71412219e+02 -2.89137236e-04  2.14054631e+04],178,919.7182822238764
485,485,[-1.08360459e+03  3.69410170e+02 -2.59331279e-04  2.14054631e+04],286,919.6753830220786
486,486,[-1.07742167e+03  3.69410078e+02 -2.49251994e-04  2.14054631e+04],331,919.1705064258283
487,487,[-1.55058112e+03  3.71412613e+02 -2.96567418e-04  2.37214477e+04],169,919.972298635889
488,488,[-1.09658896e+03  3.69410304e+02 -2.24924450e-04  2.14058216e+04],482,919.8628948859498
489,489,[-1.61875280e+03  3.69410420e+02 -2.85033053e-04  3.84470003e+04],702,919.5189434993848
490,490,[-1.54531890e+03  3.70411327e+02 -3.11433581e-04  2.14085037e+04],756,919.4396245593093
491,491,[-1.01990843e+03  3.67408013e+02 -3.85068414e-04  2.14084579e+04],89,919.0833526866281
492,492,[-1.56159835e+03  3.68409278e+02 -2.98196222e-04  2.15231512e+04],670,920.3910132623004
493,493,[-1.69323619e+03  3.72413684e+02 -3.09192561e-04  2.40088477e+04],50,920.3810359320939
494,494,[-1.13547973e+03  3.71412438e+02 -2.47369756e-04  2.14088776e+04],772,919.9190673247167
495,495,[-1.11055613e+03  3.70411409e+02 -2.90748305e-04  2.14088776e+04],605,919.9278672387102
496,496,[-1.05039301e+03  3.68409115e+02 -3.52301083e-04  2.14088776e+04],541,919.6850015003102
497,497,[-1.05930655e+03  3.68408961e+02 -3.40577934e-04  2.14088776e+04],440,918.7990347466093
498,498,[-1.06756650e+03  3.69410081e+02 -3.87301448e-04  2.14088776e+04],258,918.8059401798287
499,499,[-1.03443810e+03  3.67407993e+02 -4.10329282e-04  2.14088776e+04],671,919.2086072206438
500,500,[-1.12824168e+03  3.71412519e+02 -3.04927284e-04  2.14088776e+04],659,920.6156826669254
501,501,[-1.05505507e+03  3.68408852e+02 -3.48394568e-04  2.14088776e+04],567,919.7946891058431
502,502,[-1.09140152e+03  3.70411138e+02 -2.82880285e-04  2.14088776e+04],124,920.0501715017383
503,503,[-1.05021254e+03  3.68409143e+02 -3.61515838e-04  2.14088776e+04],633,919.2635229623854
504,504,[-1.04391265e+03  3.68409113e+02 -4.46895946e-04  2.14088776e+04],642,920.1091357497656
505,505,[-1.58772386e+03  3.69410378e+02 -3.03668496e-04  2.16607397e+04],14,920.5999737481545
506,506,[-1.14459435e+03  3.71412365e+02 -2.68678533e-04  2.14089165e+04],28,919.6539667467213
507,507,[-1.58384391e+03  3.68409302e+02 -3.11733732e-04  2.50728197e+04],374,918.4349590936788
508,508,[-1.09158945e+03  3.70411419e+02 -2.98809003e-04  2.14094817e+04],431,919.8739269382171
509,509,[-1.03567515e+03  3.67408001e+02 -3.86881442e-04  2.14094817e+04],703,919.7848949926256
510,510,[-1.08616619e+03  3.69410061e+02 -2.76214875e-04  2.14094817e+04],15,919.0246794565626
511,511,[-1.09017711e+03  3.69410194e+02 -2.21953175e-04  2.14094817e+04],118,919.3906457940478
512,512,[-1.05490845e+03  3.68409098e+02 -4.31973403e-04  2.14094817e+04],840,920.6307381321869
513,513,[-1.64628892e+03  3.71412589e+02 -3.06386829e-04  2.15381225e+04],761,919.9389811092987
514,514,[-1.63380187e+03  3.68409267e+02 -2.69212287e-04  2.20300098e+04],796,918.6230631907538
515,515,[-1.24549815e+03  3.71412469e+02 -2.41841586e-04  2.14095972e+04],646,919.3119636652808
516,516,[-1.09610553e+03  3.70411434e+02 -3.41318950e-04  2.14095974e+04],765,919.4777669043597
517,517,[-1.13228261e+03  3.71412401e+02 -2.43099846e-04  2.14095972e+04],402,919.8775370133103
518,518,[-1.08348863e+03  3.69410235e+02 -2.86516931e-04  2.14095972e+04],862,920.2980387127592
519,519,[-1.60402726e+03  3.68409099e+02 -2.80574009e-04  2.81100989e+04],623,920.1038497107309
520,520,[-1.54509289e+03  3.67408150e+02 -2.80302828e-04  2.18372537e+04],126,920.4521120414593
521,521,[-1.63923343e+03  3.67408154e+02 -2.90619509e-04  2.22226485e+04],561,920.4219875760407
522,522,[-1.09126653e+03  3.69410240e+02 -2.29093206e-04  2.14108197e+04],807,919.142186501471
523,523,[-1.05948994e+03  3.68408922e+02 -2.91869110e-04  2.14108197e+04],161,919.771964693965
524,524,[-1.13403345e+03  3.72413487e+02 -3.67752099e-04  2.14108197e+04],603,920.2107439453226
525,525,[-1.52456342e+03  3.68409167e+02 -2.89517926e-04  2.60758236e+04],221,919.1910734016875
526,526,[-1.63036493e+03  3.70411501e+02 -2.84470383e-04  2.42943029e+04],767,919.7763229614199
527,527,[-1.07920296e+03  3.69410185e+02 -3.19687361e-04  2.14119808e+04],631,920.3078132467007
528,528,[-1.57380106e+03  3.68409282e+02 -2.88455106e-04  2.65926681e+04],627,920.1108105565035
529,529,[-1.05134554e+03  3.68409033e+02 -3.36776202e-04  2.14127775e+04],918,920.3713492028274
530,530,[-9.96909653e+02  3.66406913e+02 -3.53388661e-04  2.14127775e+04],445,920.4218091718012
531,531,[-1.12352654e+03  3.71412070e+02 -2.95173997e-04  2.14127775e+04],624,919.9365198645027
532,532,[-1.09232848e+03  3.69410173e+02 -2.25207120e-04  2.14127775e+04],418,919.1670308538663
533,533,[-1.61360078e+03  3.70411357e+02 -2.95643548e-04  2.14128332e+04],71,919.8045243904326
534,534,[-1.10781665e+03  3.70411408e+02 -2.81395490e-04  2.14127775e+04],582,919.5867366945478
535,535,[-1.24357462e+03  3.65405587e+02 -2.29781344e-04  2.14127775e+04],562,917.9522317188913
536,536,[-1.12905178e+03  3.70411294e+02 -2.01589398e-04  2.14127775e+04],176,917.7478687580503
537,537,[-1.08193457e+03  3.69410284e+02 -2.73019039e-04  2.14127775e+04],313,918.6077898072532
538,538,[-1.12670822e+03  3.71412468e+02 -2.62496234e-04  2.14127775e+04],820,919.320596106843
539,539,[-1.70855682e+03  3.72413689e+02 -2.95233535e-04  2.14294737e+04],498,919.7703422388263
540,540,[-1.12660391e+03  3.71412345e+02 -2.55960924e-04  2.14127800e+04],44,918.6447643239662
541,541,[-1.13185360e+03  3.71412438e+02 -2.73263958e-04  2.14127800e+04],723,918.9684314751235
542,542,[-1.70476433e+03  3.72413715e+02 -2.69928805e-04  2.14113940e+04],602,918.2185517196804
543,543,[-1.12114339e+03  3.70411332e+02 -2.31180645e-04  2.14127798e+04],497,918.0503963195047
544,544,[-1.73514675e+03  3.68409061e+02 -2.44460542e-04  2.14128448e+04],227,918.0801508178295
545,545,[-1.11713947e+03  3.70411320e+02 -2.30235962e-04  2.14127798e+04],436,919.0753410348856
546,546,[-1.27426206e+03  3.72413475e+02 -2.22999912e-04  2.14127798e+04],177,918.2420746234649
547,547,[-1.17799889e+03  3.72413607e+02 -2.11555422e-04  2.14127798e+04],855,917.3831372630415
548,548,[-1.42409832e+03  3.72413326e+02 -2.75264919e-04  2.14127798e+04],472,916.9188925195507
549,549,[-1.27234495e+03  3.72413185e+02 -2.06028834e-04  2.14127798e+04],814,915.5132344767705
550,550,[-1.86729607e+03  3.72413712e+02 -2.58066081e-04  2.57675201e+04],764,915.9581623993968
551,551,[-1.16154405e+03  3.72413389e+02 -2.30434383e-04  2.14134472e+04],40,916.7812468679294
552,552,[-1.03407597e+03  3.67407964e+02 -4.05627868e-04  2.14134472e+04],52,920.3529119604356
553,553,[-1.08752371e+03  3.69410178e+02 -3.10082705e-04  2.14134472e+04],640,919.6720751095613
554,554,[-1.23767126e+03  3.72413521e+02 -2.14510151e-04  2.14134472e+04],322,919.0681216769937
555,555,[-1.41230519e+03  3.72413561e+02 -2.69371408e-04  2.14134472e+04],54,917.6664772730923
556,556,[-1.15807774e+03  3.72413522e+02 -2.47023718e-04  2.14134472e+04],271,918.7111016024417
557,557,[-1.20904358e+03  3.71412315e+02 -2.27717219e-04  2.14134472e+04],80,918.6084501372674
558,558,[-1.72069590e+03  3.70411421e+02 -2.76163622e-04  2.29375785e+04],803,917.652852061918
559,559,[-1.16241350e+03  3.72413500e+02 -2.57864751e-04  2.14136805e+04],248,919.9744028553414
560,560,[-1.08283635e+03  3.69409950e+02 -2.62283999e-04  2.14136805e+04],560,918.7469397243378
561,561,[-1.07706025e+03  3.69410170e+02 -3.07362485e-04  2.14136805e+04],72,918.8729205556388
562,562,[-1.04938686e+03  3.68409133e+02 -4.00007686e-04  2.14136805e+04],17,918.816661015075
563,563,[-1.08263062e+03  3.69410246e+02 -3.15900747e-04  2.14136805e+04],7,920.3801734226687
564,564,[-1.05172589e+03  3.68408918e+02 -3.16885190e-04  2.14136805e+04],76,917.5085833283055
565,565,[-1.46189825e+03  3.65405768e+02 -2.88861516e-04  2.14137338e+04],172,919.5987744022641
566,566,[-1.00179864e+03  3.66406835e+02 -4.79186942e-04  2.14136805e+04],186,917.5635027457832
567,567,[-1.38008319e+03  3.69410381e+02 -3.34066154e-04  2.20708588e+04],850,918.9537832773782
568,568,[-1.11143908e+03  3.71412383e+02 -3.98063960e-04  2.14137810e+04],45,916.8849917163266
569,569,[-1.09591838e+03  3.71412210e+02 -3.94684188e-04  2.14137810e+04],805,916.5235252079729
570,570,[-1.05184315e+03  3.68409147e+02 -5.01567889e-04  2.14137810e+04],706,911.9916965143417
571,571,[-1.06561668e+03  3.69410151e+02 -3.81116778e-04  2.14137810e+04],380,918.4515487742381
572,572,[-1.46948412e+03  3.68409289e+02 -3.28701892e-04  2.83627486e+04],53,920.0001829090592
573,573,[-1.47925204e+03  3.67408148e+02 -3.01973032e-04  2.25112954e+04],556,919.9026069060731
574,574,[-1.04441678e+03  3.68409030e+02 -4.58895003e-04  2.14150098e+04],883,919.6197652040963
575,575,[-1.02574395e+03  3.67408063e+02 -3.98953562e-04  2.14150098e+04],39,919.6293630487224
576,576,[-1.09196129e+03  3.70410879e+02 -2.89507570e-04  2.14150098e+04],435,920.1093870662189
577,577,[-1.04461108e+03  3.68409165e+02 -3.62656360e-04  2.14150098e+04],722,919.7751984919703
578,578,[-1.33731316e+03  3.65405958e+02 -3.21500157e-04  2.25291192e+04],97,919.3829878640474
579,579,[-1.05011957e+03  3.68409211e+02 -4.69411541e-04  2.14151799e+04],442,916.550421818353
580,580,[-1.00845366e+03  3.66406846e+02 -4.84599084e-04  2.14151798e+04],743,919.3902383131551
581,581,[-9.99312375e+02  3.66406751e+02 -4.65305439e-04  2.14151798e+04],589,919.9163434473372
582,582,[-1.06398210e+03  3.69410304e+02 -4.35387269e-04  2.14151799e+04],680,918.8172945424429
583,583,[-1.02507671e+03  3.67407964e+02 -3.81449838e-04  2.14151798e+04],795,919.8419681514879
584,584,[-1.47612417e+03  3.68409284e+02 -3.27620310e-04  3.11157765e+04],868,920.4821055786246
585,585,[-9.72808701e+02  3.65405799e+02 -4.53786200e-04  2.14166588e+04],343,920.1354862777056
586,586,[-9.99375757e+02  3.66406662e+02 -5.29672271e-04  2.14166588e+04],202,918.266470936797
587,587,[-1.06842316e+03  3.69410235e+02 -4.40397424e-04  2.14166588e+04],540,920.1683747755844
588,588,[-1.47459075e+03  3.70411364e+02 -3.24258086e-04  2.14167003e+04],150,919.8041936245684
589,589,[-1.04887112e+03  3.68408875e+02 -4.72699349e-04  2.14166588e+04],91,918.6804744282371
590,590,[-1.04575155e+03  3.68409053e+02 -3.88278426e-04  2.14166588e+04],611,919.6402739571341
591,591,[-1.50936385e+03  3.70411514e+02 -3.04307108e-04  2.14103569e+04],514,920.007269876226
592,592,[-1.02180673e+03  3.67407920e+02 -3.88640964e-04  2.14166579e+04],151,920.0699364026012
593,593,[-1.05968664e+03  3.69410031e+02 -3.67795342e-04  2.14166579e+04],64,919.6807764477873
594,594,[-1.62890151e+03  3.68409293e+02 -2.81616946e-04  2.28706180e+04],98,919.5199413087353
595,595,[-1.02607139e+03  3.67408005e+02 -3.58620615e-04  2.14168792e+04],379,919.4665584241479
596,596,[-1.43060644e+03  3.67408041e+02 -3.08145293e-04  2.14178903e+04],557,917.9835616141132
597,597,[-1.12353786e+03  3.71412471e+02 -2.77230060e-04  2.14168794e+04],636,920.3942808756983
598,598,[-1.05526968e+03  3.68408991e+02 -3.35615343e-04  2.14168794e+04],537,919.4504049330993
599,599,[-1.53553018e+03  3.66406762e+02 -2.86206105e-04  2.14169610e+04],613,920.0320514542956
600,600,[-1.02858517e+03  3.67407934e+02 -2.94612356e-04  2.14168794e+04],749,920.2371498012947
601,601,[-1.13184371e+03  3.71411926e+02 -2.81707208e-04  2.14168794e+04],166,919.8317551428296
602,602,[-1.57122872e+03  3.68409281e+02 -2.79355771e-04  2.15077629e+04],23,918.8010194948506
603,603,[-1.58020836e+03  3.71412602e+02 -3.09507569e-04  2.19238494e+04],691,918.8604196119996
604,604,[-1.53814936e+03  3.68409287e+02 -3.18990193e-04  2.47358786e+04],108,920.3844239323234
605,605,[-1.07690872e+03  3.69410338e+02 -2.85756009e-04  2.14174750e+04],751,918.9689782003805
606,606,[-1.11182801e+03  3.70411378e+02 -2.94778617e-04  2.14174747e+04],287,919.6167071633331
607,607,[-1.04436792e+03  3.68409072e+02 -3.73579517e-04  2.14174747e+04],139,916.6915548168732
608,608,[-1.05642586e+03  3.69410030e+02 -4.51039424e-04  2.14174747e+04],660,917.3480765331018
609,609,[-1.04837937e+03  3.69410265e+02 -4.17978208e-04  2.14174747e+04],68,914.9038354217249
610,610,[-1.04635195e+03  3.68409093e+02 -3.35073788e-04  2.14174747e+04],272,919.318205749816
611,611,[-1.16209873e+03  3.72413565e+02 -2.24810752e-04  2.14174747e+04],234,918.6315249657906
612,612,[-1.25979394e+03  3.72413367e+02 -2.14771826e-04  2.14174747e+04],621,917.6547199953998
613,613,[-1.05250403e+03  3.68409112e+02 -3.78644002e-04  2.14174747e+04],425,918.6034047851718
614,614,[-1.60628781e+03  3.64404830e+02 -2.45074321e-04  1.90165173e+04],323,919.3211603479763
615,615,[-1.72712867e+03  3.68408998e+02 -2.52245508e-04  2.13802437e+04],34,919.8702909089011
616,616,[-1.16054786e+03  3.72413443e+02 -2.28980734e-04  2.14171047e+04],106,919.3014246282306
617,617,[-1.07849949e+03  3.69410182e+02 -2.58924898e-04  2.14171047e+04],197,920.318878248527
618,618,[-1.09311128e+03  3.70411032e+02 -3.01744792e-04  2.14171047e+04],643,920.350071431496
619,619,[-1.05731345e+03  3.68409117e+02 -4.17214313e-04  2.14171047e+04],825,920.6801550973308
620,620,[-1.53816236e+03  3.69408297e+02 -2.67632881e-04  2.14171059e+04],241,919.2432116572346
621,621,[-1.05689272e+03  3.68408971e+02 -2.10377025e-04  2.14171047e+04],462,918.567754853464
622,622,[-1.32474259e+03  3.69410404e+02 -3.30103804e-04  2.33893759e+04],164,919.9304387916702
623,623,[-1.37259461e+03  3.68409226e+02 -3.34898862e-04  2.43700964e+04],35,918.8762560860309
624,624,[-1.48111004e+03  3.66406946e+02 -3.09267130e-04  2.14179126e+04],836,918.8289876226603
625,625,[-1.03483980e+03  3.67408024e+02 -3.80896971e-04  2.14178512e+04],901,919.3949644531657
626,626,[-1.12808471e+03  3.71412387e+02 -2.59391922e-04  2.14178512e+04],49,916.817194268468
627,627,[-1.51571504e+03  3.68409196e+02 -2.86596771e-04  2.14178652e+04],700,918.8509502933028
628,628,[-9.73907857e+02  3.65405769e+02 -4.76088634e-04  2.14178512e+04],219,919.2701451009815
629,629,[-1.03668307e+03  3.68408950e+02 -4.31374945e-04  2.14178512e+04],30,919.6827393498098
630,630,[-1.05087340e+03  3.68409116e+02 -3.45086201e-04  2.14178512e+04],112,920.2403047274289
631,631,[-1.06144490e+03  3.69410166e+02 -3.73695747e-04  2.14178512e+04],778,918.8516430423542
632,632,[-1.00477172e+03  3.66406798e+02 -4.75520062e-04  2.14178512e+04],571,919.1290781104847
633,633,[-1.38663833e+03  3.68409149e+02 -3.26636354e-04  2.14548737e+04],886,918.9481225741694
634,634,[-1.60397904e+03  3.68409260e+02 -3.01357526e-04  2.15797098e+04],828,919.6934939712895
635,635,[-1.12662164e+03  3.71412414e+02 -2.40821212e-04  2.14178813e+04],812,917.9398929664193
636,636,[-1.12416140e+03  3.71412469e+02 -2.57085204e-04  2.14178813e+04],358,918.6080367855532
637,637,[-1.02840191e+03  3.67407861e+02 -4.74523600e-04  2.14178813e+04],134,919.0855583870997
638,638,[-1.50352733e+03  3.67408173e+02 -2.83134011e-04  2.41448971e+04],507,919.8192237236455
639,639,[-1.12534124e+03  3.71412467e+02 -2.72107710e-04  2.14182937e+04],24,919.4596187962982
640,640,[-1.49410916e+03  3.69410258e+02 -2.89218623e-04  2.14192925e+04],56,918.7626424445751
641,641,[-1.42638591e+03  3.69408629e+02 -3.06604167e-04  2.14185361e+04],113,919.2537773293024
642,642,[-1.55812291e+03  3.66405931e+02 -2.72427388e-04  2.14360764e+04],686,918.9383316581788
643,643,[-1.19816395e+03  3.71412383e+02 -2.36643410e-04  2.14182966e+04],437,918.52511985732
644,644,[-1.04559345e+03  3.68409175e+02 -3.09694045e-04  2.14182966e+04],201,917.7248345781071
645,645,[-1.50892492e+03  3.68409125e+02 -2.93199188e-04  2.14184472e+04],446,919.1117869016431
646,646,[-1.53125603e+03  3.69410383e+02 -2.90198312e-04  2.25904093e+04],423,918.9023406502985
647,647,[-1.13263659e+03  3.71412347e+02 -2.47722506e-04  2.14184736e+04],878,918.1795093949695
648,648,[-1.64569674e+03  3.71412594e+02 -3.08773461e-04  2.58301222e+04],63,918.1470012020958
649,649,[-1.01783438e+03  3.67408000e+02 -3.75798962e-04  2.14191397e+04],739,919.757391994982
650,650,[-1.49520354e+03  3.67408161e+02 -2.91462485e-04  2.16044582e+04],443,919.1387592738366
651,651,[-1.08619085e+03  3.69410262e+02 -2.81393310e-04  2.14191677e+04],384,917.9300696230447
652,652,[-1.08985005e+03  3.69410392e+02 -2.46531415e-04  2.14192485e+04],135,917.7148459915519
653,653,[-1.64653320e+03  3.72413711e+02 -2.93630055e-04  2.17318934e+04],853,915.2475444131576
654,654,[-1.07710486e+03  3.69410140e+02 -3.24424789e-04  2.14192149e+04],810,917.7970018075362
655,655,[-1.12029301e+03  3.71412051e+02 -2.66092384e-04  2.14192149e+04],20,919.160012286928
656,656,[-1.11453504e+03  3.70411394e+02 -2.30763091e-04  2.14192149e+04],880,917.4986578809389
657,657,[-1.77397141e+03  3.69410355e+02 -2.48064365e-04  2.14535937e+04],763,915.9199105279242
658,658,[-1.14086679e+03  3.72413509e+02 -3.21733308e-04  2.14192201e+04],688,917.3609079163222
659,659,[-1.48792743e+03  3.72413725e+02 -3.55084394e-04  2.16499469e+04],230,918.9625469899893
660,660,[-1.11184501e+03  3.71412444e+02 -3.68315025e-04  2.14192549e+04],669,918.580056902481
661,661,[-1.15427335e+03  3.72413462e+02 -2.41275826e-04  2.14192549e+04],827,916.8809034547284
662,662,[-1.14629398e+03  3.70411369e+02 -1.94700352e-04  2.14192549e+04],107,915.6222300109986
663,663,[-1.05929033e+03  3.68408855e+02 -2.19066295e-04  2.14192549e+04],728,917.1656770954392
664,664,[-1.04420946e+03  3.68409102e+02 -4.39735368e-04  2.14192549e+04],422,919.1503526763562
665,665,[-1.08172474e+03  3.69410049e+02 -4.74241272e-04  2.14192549e+04],885,918.0225679734764
666,666,[-1.11127005e+03  3.71412401e+02 -3.97589265e-04  2.14192549e+04],25,913.9276013187977
667,667,[-1.07057813e+03  3.69410166e+02 -4.04027823e-04  2.14192549e+04],117,919.0545627922696
668,668,[-1.55825448e+03  3.68409146e+02 -3.19435584e-04  2.14193155e+04],586,919.6003595004937
669,669,[-1.04905156e+03  3.68409092e+02 -3.62512063e-04  2.14192549e+04],62,918.2934662911257
670,670,[-1.07150229e+03  3.69410193e+02 -3.92021447e-04  2.14192549e+04],13,918.9755908529497
671,671,[-1.34478162e+03  3.69410301e+02 -2.78049951e-04  2.14192549e+04],340,918.9626963911543
672,672,[-1.58591999e+03  3.68409127e+02 -2.78588435e-04  2.14193823e+04],546,919.3442188760737
673,673,[-1.07858289e+03  3.69410210e+02 -4.05240253e-04  2.14192549e+04],344,919.9986407499899
674,674,[-1.56037565e+03  3.69410404e+02 -3.01201147e-04  2.58718715e+04],278,919.9117196241854
675,675,[-1.07630974e+03  3.69410114e+02 -4.08003685e-04  2.14199246e+04],439,916.8911779278658
676,676,[-1.04345844e+03  3.68408988e+02 -3.87193713e-04  2.14199246e+04],382,913.7934428831992
677,677,[-1.06138162e+03  3.69410278e+02 -4.22919635e-04  2.14199246e+04],846,914.6916324443316
678,678,[-1.06418620e+03  3.69410265e+02 -4.50609521e-04  2.14199246e+04],542,917.5130569156579
679,679,[-1.12596442e+03  3.71412152e+02 -2.69471705e-04  2.14199246e+04],226,919.2258679756807
680,680,[-1.08628473e+03  3.69410243e+02 -3.49154210e-04  2.14199246e+04],913,918.6799415566262
681,681,[-1.08266188e+03  3.70410976e+02 -4.17299210e-04  2.14199246e+04],328,919.277883067663
682,682,[-1.11122985e+03  3.70411252e+02 -3.44983612e-04  2.14199246e+04],434,919.1584446103332
683,683,[-1.01647446e+03  3.66406958e+02 -4.40529896e-04  2.14199246e+04],692,919.2919317476706
684,684,[-1.07500000e+03  3.68409295e+02 -3.50708899e-04  2.14199845e+04],684,918.1822291841046
685,685,[-1.45442049e+03  3.67408023e+02 -2.98731716e-04  2.14199702e+04],647,920.0560079381661
686,686,[-1.11745547e+03  3.71412269e+02 -3.67010521e-04  2.14199246e+04],114,918.4038920714089
687,687,[-1.10180710e+03  3.70411318e+02 -3.61793538e-04  2.14199246e+04],175,919.7542693535513
688,688,[-1.12592650e+03  3.71412098e+02 -2.59948312e-04  2.14199246e+04],396,918.3129529791083
689,689,[-1.14340457e+03  3.72413451e+02 -3.92308725e-04  2.14199246e+04],339,919.7572178154163
690,690,[-1.59475019e+03  3.67406648e+02 -2.80475639e-04  2.18597972e+04],648,919.7968528170423
691,691,[-1.70776384e+03  3.68409172e+02 -2.59052196e-04  2.90565282e+04],206,918.5930384191073
692,692,[-1.06527424e+03  3.68409184e+02 -2.83139754e-04  2.14211362e+04],481,918.1953816573254
693,693,[-1.06229670e+03  3.68409201e+02 -4.24727969e-04  2.14211362e+04],815,919.9971635395583
694,694,[-1.10013254e+03  3.70411321e+02 -4.24799749e-04  2.14211362e+04],738,919.827896619858
695,695,[-1.66322327e+03  3.71410729e+02 -2.88455734e-04  2.14371022e+04],12,919.2376987107909
696,696,[-1.76336856e+03  3.70411490e+02 -2.63798569e-04  2.17177697e+04],898,917.3295438715827
697,697,[-1.57678974e+03  3.67408170e+02 -2.86033122e-04  2.17124109e+04],463,919.0940372833564
698,698,[-1.50642742e+03  3.68409055e+02 -3.20648781e-04  2.14416154e+04],406,920.2242355499151
699,699,[-1.03063794e+03  3.67408099e+02 -4.04870971e-04  2.14212298e+04],544,919.9165420159268
700,700,[-1.62377987e+03  3.72413610e+02 -3.02262260e-04  2.14526098e+04],851,918.471515621672
701,701,[-1.15902072e+03  3.72413574e+02 -2.49060250e-04  2.14212344e+04],773,919.1189239853363
702,702,[-1.49283485e+03  3.67407787e+02 -2.88807652e-04  2.14213913e+04],57,918.978780837586
703,703,[-1.08111716e+03  3.69410026e+02 -3.18869324e-04  2.14212345e+04],471,918.921634064298
704,704,[-1.18296604e+03  3.73414677e+02 -2.94461182e-04  2.14212345e+04],543,919.2565200228968
705,705,[-1.06054182e+03  3.68409058e+02 -3.37073073e-04  2.14212345e+04],831,919.8609073421424
706,706,[-1.23604395e+03  3.72413461e+02 -2.29762832e-04  2.14212345e+04],132,918.7200467073441
707,707,[-1.58664502e+03  3.68409267e+02 -3.27192068e-04  2.20540253e+04],198,920.2190615810617
708,708,[-1.04834579e+03  3.68409012e+02 -3.15227062e-04  2.14213292e+04],665,920.3121360452399
709,709,[-1.12590714e+03  3.71412337e+02 -3.35592790e-04  2.14213292e+04],716,920.5266389402017
710,710,[-1.68288375e+03  3.72413586e+02 -2.90847859e-04  2.14214412e+04],22,919.7159796307831
711,711,[-1.10875462e+03  3.70411128e+02 -3.00440743e-04  2.14213292e+04],596,919.7894198902695
712,712,[-1.07447252e+03  3.69410164e+02 -3.41932636e-04  2.14213292e+04],768,915.6918770144437
713,713,[-1.55105854e+03  3.67407643e+02 -3.04645690e-04  2.14213248e+04],131,920.4046162617998
714,714,[-1.59699338e+03  3.71412577e+02 -2.96194265e-04  2.61332006e+04],19,920.5016318335117
715,715,[-1.06099720e+03  3.68409108e+02 -2.43328437e-04  2.14220336e+04],326,919.7249193585654
716,716,[-1.17273700e+03  3.72413438e+02 -2.38818525e-04  2.14220336e+04],535,917.9884317809591
717,717,[-1.03401035e+03  3.67407882e+02 -4.26477880e-04  2.14220336e+04],441,919.1881703472969
718,718,[-1.06209247e+03  3.68409005e+02 -3.49847595e-04  2.14220336e+04],635,920.1910350818355
719,719,[-1.05773212e+03  3.68409001e+02 -3.40767385e-04  2.14220336e+04],401,920.2775850467384
720,720,[-1.56397967e+03  3.67408164e+02 -3.13610069e-04  2.29292661e+04],651,919.8212256004413
721,721,[-1.07711973e+03  3.69410211e+02 -4.05505711e-04  2.14222587e+04],325,920.1203445407542
722,722,[-1.06257990e+03  3.68409083e+02 -3.86893927e-04  2.14222587e+04],102,918.6928401895341
723,723,[-1.05876522e+03  3.68409171e+02 -3.52384366e-04  2.14222587e+04],438,918.8024703755706
724,724,[-1.63999937e+03  3.71412179e+02 -2.86533936e-04  2.14223171e+04],405,919.2995455026362
725,725,[-1.03359539e+03  3.67408008e+02 -2.82306670e-04  2.14222587e+04],852,919.025603938911
726,726,[-1.55852987e+03  3.68865991e+02 -3.16258296e-04  2.14222590e+04],146,919.8642974266244
727,727,[-1.53127270e+03  3.67408170e+02 -2.91380928e-04  2.14246161e+04],750,920.5257210459625
728,728,[-1.59281135e+03  3.68409298e+02 -3.01729316e-04  2.75969255e+04],148,918.2847153972228
729,729,[-1.10556417e+03  3.70411047e+02 -2.71159455e-04  2.14231803e+04],349,919.0814581150759
730,730,[-1.04173679e+03  3.67408047e+02 -4.02364174e-04  2.14231803e+04],473,920.2337380268575
731,731,[-1.07550341e+03  3.69410304e+02 -4.02487315e-04  2.14231803e+04],424,920.2686265127195
732,732,[-1.12866503e+03  3.71412271e+02 -2.52741065e-04  2.14231803e+04],332,919.6246757106077
733,733,[-1.12349844e+03  3.71412462e+02 -2.88578467e-04  2.14231803e+04],654,917.0773447582701
734,734,[-1.12583828e+03  3.71411889e+02 -2.94564865e-04  2.14231803e+04],119,920.0070822555747
735,735,[-1.07451026e+03  3.69410259e+02 -3.67866726e-04  2.14231803e+04],47,920.0182760508521
736,736,[-1.06863628e+03  3.69410088e+02 -3.45001647e-04  2.14231803e+04],419,919.8792722439711
737,737,[-1.09347789e+03  3.70411250e+02 -3.21377788e-04  2.14231803e+04],324,919.5008478581802
738,738,[-1.09570063e+03  3.70411283e+02 -2.90542054e-04  2.14231803e+04],536,918.1301218633884
739,739,[-1.05229028e+03  3.68408995e+02 -4.10210032e-04  2.14231803e+04],103,918.3487830369218
740,740,[-1.11825388e+03  3.70411511e+02 -4.12662306e-04  2.14232908e+04],759,917.690801560885
741,741,[-1.03487051e+03  3.67408015e+02 -4.01499594e-04  2.14231803e+04],644,919.7779211159603
742,742,[-1.51981123e+03  3.68409074e+02 -2.83300803e-04  2.14106710e+04],652,919.2736788828596
743,743,[-1.10468870e+03  3.70411257e+02 -3.38228579e-04  2.14231784e+04],740,918.6817953749011
744,744,[-1.07885419e+03  3.69409874e+02 -3.37484265e-04  2.14231784e+04],336,917.138983247072
745,745,[-1.01718177e+03  3.66406876e+02 -4.37103568e-04  2.14231784e+04],78,919.0708425110776
746,746,[-1.09532246e+03  3.70411276e+02 -3.91372354e-04  2.14231784e+04],555,920.0384081392216
747,747,[-1.14733680e+03  3.72413275e+02 -3.74531844e-04  2.14231784e+04],748,919.5400696872406
748,748,[-1.15123938e+03  3.72413349e+02 -2.55237071e-04  2.14231784e+04],232,917.6557517656531
749,749,[-1.64581790e+03  3.71412631e+02 -2.91103343e-04  2.89256796e+04],612,918.6033703181722
750,750,[-1.45225489e+03  3.69408893e+02 -2.99591595e-04  2.14242971e+04],92,917.8467821166397
751,751,[-1.07523265e+03  3.69410226e+02 -4.44248483e-04  2.14242942e+04],558,918.5911660099001
752,752,[-1.09153292e+03  3.69410236e+02 -4.18381910e-04  2.14242942e+04],891,916.7096441874853
753,753,[-1.06148220e+03  3.68409098e+02 -4.87843626e-04  2.14242942e+04],813,913.4126761354325
754,754,[-1.67061290e+03  3.71412452e+02 -2.96674739e-04  2.61814761e+04],420,919.1598205271259
755,755,[-1.48776993e+03  3.67407330e+02 -2.92379004e-04  2.14250030e+04],428,919.2498286237047
756,756,[-1.02352770e+03  3.67408045e+02 -2.95415169e-04  2.14250012e+04],48,918.9775061929516
757,757,[-1.04424247e+03  3.68409004e+02 -4.10210478e-04  2.14250012e+04],267,919.3470976371185
758,758,[-1.06366582e+03  3.68409062e+02 -4.84159728e-04  2.14250012e+04],81,916.6963030290741
759,759,[-1.06688448e+03  3.69410217e+02 -3.59816221e-04  2.14250012e+04],8,917.7376929693007
760,760,[-1.59557158e+03  3.67408171e+02 -2.84965967e-04  2.49086908e+04],566,919.9515329460665
761,761,[-1.08848738e+03  3.69410056e+02 -3.19414443e-04  2.14255184e+04],824,918.9064582398088
762,762,[-1.49312779e+03  3.70411491e+02 -3.48438223e-04  2.62534648e+04],475,919.9529560806853
763,763,[-1.08803842e+03  3.70411286e+02 -4.49194779e-04  2.14262350e+04],388,918.3144131148389
764,764,[-1.01648326e+03  3.67408031e+02 -4.57987707e-04  2.14262350e+04],82,918.7716183861455
765,765,[-1.09906068e+03  3.70411220e+02 -3.97593792e-04  2.14262350e+04],678,918.8975868874187
766,766,[-1.04573190e+03  3.68408988e+02 -4.63475355e-04  2.14262350e+04],564,919.1507530826702
767,767,[-1.03924168e+03  3.68409061e+02 -4.60813110e-04  2.14262350e+04],656,918.854947799167
768,768,[-1.41515140e+03  3.71412098e+02 -3.91394308e-04  2.14263796e+04],101,917.9792109045662
769,769,[-1.13136607e+03  3.71412345e+02 -2.80704640e-04  2.14262351e+04],163,920.1778325643129
770,770,[-1.53163410e+03  3.68408645e+02 -3.03980247e-04  2.26733947e+04],209,920.0519066356738
771,771,[-1.58932778e+03  3.69410363e+02 -2.83675640e-04  2.69880797e+04],314,919.3767103648734
772,772,[-1.52942725e+03  3.68409288e+02 -3.16209219e-04  2.27603526e+04],858,918.9695816505039
773,773,[-1.07668188e+03  3.69410246e+02 -4.53387211e-04  2.14274420e+04],395,918.0711323264943
774,774,[-1.62509029e+03  3.68409266e+02 -3.27031714e-04  2.14915673e+04],61,920.4203622171422
775,775,[-1.07368534e+03  3.69410149e+02 -3.33291853e-04  2.14274515e+04],317,920.1469016536621
776,776,[-1.46416279e+03  3.67430132e+02 -3.00718638e-04  2.14271692e+04],96,920.4214762288387
777,777,[-1.38426657e+03  3.69410382e+02 -3.38628220e-04  2.17680031e+04],389,919.214828728323
778,778,[-1.01026390e+03  3.66406880e+02 -5.49891856e-04  2.14275019e+04],794,918.4525318608605
779,779,[-1.05604041e+03  3.68409113e+02 -3.79719847e-04  2.14275019e+04],10,920.5752234092039
780,780,[-1.47850186e+03  3.70411505e+02 -3.13376789e-04  2.14239591e+04],99,919.9583509118158
781,781,[-1.51199356e+03  3.68409293e+02 -2.86375680e-04  2.24312827e+04],547,919.9627964676203
782,782,[-1.07067686e+03  3.69410037e+02 -3.95837107e-04  2.14276499e+04],658,919.7785481798358
783,783,[-9.87080017e+02  3.65405712e+02 -5.32007638e-04  2.14276499e+04],407,916.0851966788738
784,784,[-1.04918978e+03  3.68409117e+02 -3.97609630e-04  2.14276499e+04],867,920.18186260048
785,785,[-1.00430626e+03  3.66406864e+02 -4.86681864e-04  2.14276499e+04],608,919.958806959319
786,786,[-1.09885105e+03  3.70411365e+02 -2.98015501e-04  2.14276499e+04],696,919.9288277637004
787,787,[-1.05298332e+03  3.68409116e+02 -3.80835237e-04  2.14276499e+04],841,920.1026062263518
788,788,[-1.07044812e+03  3.69410288e+02 -3.71071177e-04  2.14276499e+04],327,920.1732353827981
789,789,[-1.81489414e+03  3.59399118e+02 -2.25018610e-04  5.94338631e+03],77,920.1087849369833
790,790,[-1.76368160e+03  3.59399289e+02 -2.16584589e-04  3.06357428e+04],447,919.7753837300575
791,791,[-1.73900319e+03  3.59399087e+02 -2.24695902e-04  5.32057266e+03],36,919.9435763879574
792,792,[-1.65743210e+03  3.59399270e+02 -2.42661627e-04  1.72644910e+04],129,920.513565555922
793,793,[-1.75953460e+03  3.59399276e+02 -2.21722469e-04  1.86082967e+04],404,919.300650684707
794,794,[-1.61245797e+03  3.59399234e+02 -2.24411108e-04  9.03035243e+03],863,917.3972995087382
795,795,[-2.11010717e+03  3.58398668e+02 -1.61346038e-03 -2.34651438e+05],663,918.6758614152366
796,796,[-1.56557247e+03  3.59399315e+02 -2.70538622e-04  5.34001713e+04],744,918.9028075661879
797,797,[-1.29523993e+03  3.59399298e+02 -3.07254271e-04  3.63587031e+04],127,913.6939836676905
798,798,[-1.35833219e+03  3.59399367e+02 -3.70210311e-04  3.03083937e+05],733,908.9587772098429
799,799,[-1.33787748e+03  3.59399298e+02 -3.68179508e-04  4.66420665e+04],87,908.0746941682236
800,800,[-1.54921190e+03  3.59399397e+02 -3.35749639e-04  2.28313482e+05],468,913.074115058407
801,801,[-1.40908267e+03  3.59399299e+02 -2.78477214e-04  3.13804718e+04],804,914.8707609948266
802,802,[-1.69292455e+03  3.59399304e+02 -2.33445853e-04  2.51645476e+04],18,919.1475278535655
803,803,[-1.73413565e+03  3.59399309e+02 -2.39767372e-04  5.51871086e+04],394,918.7508283510629
804,804,[-1.57863041e+03  3.59399313e+02 -2.39419400e-04  7.19939423e+04],403,917.0330761001874
805,805,[-1.48133728e+03  3.59399313e+02 -2.58447978e-04  5.39857972e+04],917,918.7203616832769
806,806,[-1.38844009e+03  3.59399534e+02 -3.07726333e-04  3.01997788e+05],890,919.1422457602553
807,807,[-1.54797117e+03  3.59399327e+02 -2.71580336e-04  9.68257847e+04],397,918.8708555768245
808,808,[-1.61775999e+03  3.59399305e+02 -2.63759090e-04  3.54587042e+04],548,919.0898178087069
809,809,[-1.55409882e+03  3.59399291e+02 -2.62778437e-04  3.63458434e+04],239,919.680760306532
810,810,[-1.56334017e+03  3.59399327e+02 -2.55547140e-04  2.84033948e+05],345,918.3259928638774
811,811,[-1.54504038e+03  3.59399277e+02 -2.87575011e-04  4.51391410e+04],887,916.5524479980112
812,812,[-1.42617537e+03  3.59399314e+02 -2.64771589e-04  3.40921940e+04],152,918.4435543479345
813,813,[-1.62076544e+03  3.59399313e+02 -2.54176875e-04  2.48734834e+05],675,917.6261686846079
814,814,[-1.68443073e+03  3.59399303e+02 -2.34835885e-04  4.34758045e+04],568,918.779809056807
815,815,[-1.61546848e+03  3.59399299e+02 -2.33839367e-04  3.05448822e+04],105,918.13022537822
816,816,[-1.53666191e+03  3.59399292e+02 -2.49126182e-04  3.75411773e+04],661,919.8509281395458
817,817,[-1.44960588e+03  3.59399320e+02 -2.81031323e-04  5.86266453e+04],334,919.6361337870793
818,818,[-1.51297915e+03  3.59399298e+02 -2.73718885e-04  9.42486478e+04],626,916.7067350374342
819,819,[-1.61759701e+03  3.59399306e+02 -2.44336590e-04  4.40093920e+04],111,919.2220452911323
820,820,[-1.55097331e+03  3.59399291e+02 -2.42748641e-04  2.70177378e+04],372,918.8111200039573
821,821,[-1.72395559e+03  3.59399298e+02 -2.48628490e-04  5.50419896e+04],551,919.2334938574559
822,822,[-1.43246754e+03  3.59399300e+02 -2.64194583e-04  3.35418608e+04],100,920.3646736314308
823,823,[-1.48999321e+03  3.59399582e+02 -2.68651444e-04  2.84484245e+05],400,919.6172127541136
824,824,[-1.51577197e+03  3.59399272e+02 -2.59997034e-04  3.32025356e+04],392,917.5442073955029
825,825,[-1.66848114e+03  3.59399325e+02 -2.21267931e-04  7.55504926e+04],357,918.5238504907106
826,826,[-1.59546179e+03  3.59399297e+02 -2.49162529e-04  3.45121277e+04],217,919.8429778162523
827,827,[-1.37551259e+03  3.59399317e+02 -2.94882413e-04  4.09282128e+04],752,918.2922542006686
828,828,[-1.59624098e+03  3.59399304e+02 -2.50785949e-04  2.47238259e+04],818,918.4491246694538
829,829,[-1.63693279e+03  3.59399290e+02 -2.59696966e-04  2.89215519e+04],758,920.0099402080797
830,830,[-1.47591040e+03  3.59399285e+02 -2.56461653e-04  2.79872299e+04],607,919.139492918054
831,831,[-1.42145087e+03  3.59399393e+02 -2.84165517e-04  3.30394016e+05],88,918.0287602630192
832,832,[-1.65050508e+03  3.59399287e+02 -2.43712558e-04  1.86990369e+04],811,919.7367162509375
833,833,[-1.69276200e+03  3.59399310e+02 -2.35875263e-04  6.37936854e+04],579,920.1538673705613
834,834,[-1.60790109e+03  3.59399293e+02 -2.48040458e-04  3.52400237e+04],569,920.0778259204972
835,835,[-1.55053372e+03  3.59399316e+02 -2.72265708e-04  3.31788648e+04],60,919.4478047716374
836,836,[-1.45325716e+03  3.59399313e+02 -2.89889706e-04  3.24386368e+04],459,918.4868473107651
837,837,[-1.65167584e+03  3.59399295e+02 -2.58175948e-04  2.89399869e+04],881,919.3665332952424
838,838,[-1.64251528e+03  3.59399295e+02 -2.35025094e-04  2.77946257e+04],882,919.6627270862907
839,839,[-1.51686660e+03  3.59399380e+02 -2.59766392e-04  3.56293250e+05],0,919.4634206865518
840,840,[-1.47378924e+03  3.59399442e+02 -2.74845208e-04  3.41807277e+05],46,918.9101024980721
841,841,[-1.41711500e+03  3.59399329e+02 -2.93251395e-04  1.99276989e+05],393,917.3030690346854
842,842,[-1.52460082e+03  3.59399318e+02 -2.66459268e-04  4.32360951e+04],376,919.2686391819809
843,843,[-1.48297176e+03  3.59399306e+02 -2.55807390e-04  2.79082823e+04],381,919.8752962587705
844,844,[-1.46379488e+03  3.59399305e+02 -2.63555276e-04  2.76600835e+04],110,919.8868733274744
845,845,[-1.45441893e+03  3.59399300e+02 -2.69151347e-04  2.91781817e+04],120,919.6680897239256
846,846,[-1.43609746e+03  3.59399310e+02 -2.85972758e-04  2.58056879e+04],408,918.2223642715466
847,847,[-1.53407737e+03  3.59399325e+02 -2.68689617e-04  7.97483945e+04],377,919.2007638129567
848,848,[-1.60986614e+03  3.59399296e+02 -2.51848630e-04  3.33017640e+04],433,915.71715411415
849,849,[-1.60651691e+03  3.59399280e+02 -2.40935165e-04  1.76969985e+04],196,919.7109696319628
850,850,[-1.53092817e+03  3.59399302e+02 -2.78983742e-04  5.19535138e+04],896,918.7322396501843
851,851,[-1.26300252e+03  3.59399316e+02 -3.09476205e-04  4.71848586e+04],417,918.0711803512165
852,852,[-1.41386975e+03  3.59399319e+02 -2.91163014e-04  5.75590850e+04],416,917.8581819724312
853,853,[-1.57718350e+03  3.59399328e+02 -2.45999303e-04  2.12350945e+05],4,918.328064560204
854,854,[-1.58867602e+03  3.59399318e+02 -2.48666989e-04  4.11300665e+04],783,919.597003393473
855,855,[-1.49628422e+03  3.59399311e+02 -2.35323276e-04  3.64832662e+04],9,918.7950753497075
856,856,[-1.54399661e+03  3.59399291e+02 -2.65857213e-04  2.78643388e+04],95,919.1626912585239
857,857,[-1.44723712e+03  3.59399301e+02 -2.75717632e-04  3.51217687e+04],455,919.2179937207268
858,858,[-1.50587213e+03  3.59399316e+02 -2.60033500e-04  3.35266866e+04],550,917.4387258573914
859,859,[-1.60331696e+03  3.59399297e+02 -2.47294317e-04  2.88161245e+04],657,919.5099665414017
860,860,[-1.49870134e+03  3.59399320e+02 -2.69545127e-04  7.36182835e+04],11,919.1885457921496
861,861,[-1.45553652e+03  3.59399309e+02 -2.63321315e-04  4.33619567e+04],421,919.0858964245951
862,862,[-1.49242158e+03  3.59399326e+02 -2.69393853e-04  1.80943288e+05],115,918.8826042393839
863,863,[-1.57670226e+03  3.59399297e+02 -2.56055370e-04  3.21834391e+04],923,917.1665548507426
864,864,[-1.60179613e+03  3.59399257e+02 -2.41873971e-04  5.05311263e+04],43,919.1248697717942
865,865,[-1.51716983e+03  3.59399309e+02 -2.53016999e-04  4.05343961e+04],333,920.0074318911661
866,866,[-1.45326965e+03  3.59399304e+02 -2.77742348e-04  2.79353799e+04],318,919.806266111306
867,867,[-1.41798729e+03  3.59399304e+02 -2.88790599e-04  3.04542042e+04],207,917.3501154143247
868,868,[-1.55966875e+03  3.59399299e+02 -2.45122521e-04  2.90347364e+04],67,918.6665143292106
869,869,[-1.46968549e+03  3.59399313e+02 -2.76174365e-04  5.72302668e+04],848,919.9001439661315
870,870,[-1.54560459e+03  3.59399305e+02 -2.59767001e-04  4.80784900e+04],712,920.2910750797599
871,871,[-1.43884897e+03  3.59399330e+02 -2.65264590e-04  3.08247870e+05],41,919.2954858832878
872,872,[-1.60731662e+03  3.59399303e+02 -2.41587277e-04  2.63965193e+04],5,919.2081777316237
873,873,[-1.63896128e+03  3.59399294e+02 -2.56634879e-04  2.72918036e+04],662,919.2182400270764
874,874,[-1.63731352e+03  3.59399415e+02 -2.52125636e-04  3.57388595e+05],59,919.8372113368345
875,875,[-1.51363683e+03  3.59399439e+02 -2.72796589e-04  3.40262974e+05],549,919.696650798024
876,876,[-1.51947529e+03  3.59399307e+02 -2.67547289e-04  3.29665535e+04],335,919.4284407555162
877,877,[-1.70436694e+03  3.59399310e+02 -2.51437022e-04  3.47531393e+04],66,919.8159181454137
878,878,[-1.64103445e+03  3.59399293e+02 -2.46368559e-04  3.03325666e+04],653,918.3653357896776
879,879,[-1.62726016e+03  3.59399289e+02 -2.47068599e-04  2.12322258e+04],93,920.2581336812458
880,880,[-1.49236493e+03  3.59399315e+02 -2.93944438e-04  6.22225569e+04],94,918.3184411151964
881,881,[-1.42462902e+03  3.59399306e+02 -3.02436891e-04  4.38999289e+04],208,916.4407920811811
882,882,[-1.55193539e+03  3.59399285e+02 -2.79933917e-04  1.99533220e+04],65,916.4364155510649
883,883,[-1.54977707e+03  3.59399303e+02 -2.63935192e-04  2.64782576e+04],906,918.708343623593
884,884,[-1.48605419e+03  3.59399307e+02 -2.77737466e-04  3.72600452e+04],84,919.6756867423329
885,885,[-1.45537101e+03  3.59399325e+02 -2.75001859e-04  2.00672072e+05],409,918.2791601884297
886,886,[-1.50665495e+03  3.59399295e+02 -2.53695547e-04  5.32426808e+04],609,918.4502247936638
887,887,[-1.67989925e+03  3.59399286e+02 -2.45925168e-04  2.74028523e+04],801,916.9119070399747
888,888,[-1.59199291e+03  3.59399300e+02 -2.34628267e-04  3.14378055e+04],121,919.0631911894764
889,889,[-1.49496839e+03  3.59399288e+02 -2.57070932e-04  2.32037956e+04],432,919.7476734460713
890,890,[-1.46021391e+03  3.59399311e+02 -2.71470273e-04  8.20487071e+04],448,916.9367191970887
891,891,[-1.47292662e+03  3.59399474e+02 -2.94500266e-04  2.57865545e+05],677,917.6497475121937
892,892,[-1.60948377e+03  3.59399299e+02 -2.37547344e-04  3.14187846e+04],213,919.5057604980049
893,893,[-1.60992838e+03  3.59399308e+02 -2.45390126e-04  2.86734711e+04],109,919.84659615052
894,894,[-1.67016509e+03  3.59399296e+02 -2.40361371e-04  2.06636849e+04],454,919.5996625555597
895,895,[-1.64393767e+03  3.59399398e+02 -2.70809940e-04  1.70425132e+05],212,919.7752574233164
896,896,[-1.64612809e+03  3.59399302e+02 -2.42964491e-04  3.36523511e+04],58,916.200970073789
897,897,[-1.67103215e+03  3.59399304e+02 -2.30371063e-04  4.16021581e+04],83,919.3274890909508
898,898,[-1.70606045e+03  3.59399307e+02 -2.27903157e-04  4.85218265e+04],460,918.1184750943202
899,899,[-1.58680170e+03  3.59399291e+02 -2.37764111e-04  2.33427707e+04],449,919.4955511348337
900,900,[-1.48033036e+03  3.59399308e+02 -2.60698938e-04  2.84791282e+04],666,919.4701330505317
901,901,[-1.55840270e+03  3.59399285e+02 -2.64812917e-04  1.89188949e+04],461,918.4790645411061
902,902,[-1.65677706e+03  3.59399313e+02 -2.57493951e-04  4.14680331e+04],676,920.2584627455097
903,903,[-1.57396755e+03  3.59399302e+02 -2.47054945e-04  2.54200207e+04],797,919.5856941298274
904,904,[-1.61206178e+03  3.59399323e+02 -2.40727558e-04  1.76537921e+05],104,919.4125517711337
905,905,[-1.47398672e+03  3.59399541e+02 -2.66259921e-04  2.08734541e+05],753,919.766396333745
906,906,[-1.48030559e+03  3.59399319e+02 -2.71006651e-04  9.89838160e+04],800,914.9408577708263
907,907,[-1.62205440e+03  3.59399329e+02 -2.74541133e-04  1.84864508e+05],42,919.1407921562181
908,908,[-1.50901357e+03  3.59399269e+02 -2.62238425e-04  4.23351561e+04],410,919.9864723386869
909,909,[-1.40857529e+03  3.59399297e+02 -2.54266370e-04  2.54116433e+04],570,919.6216697513436
910,910,[-1.41759688e+03  3.59399309e+02 -2.61990730e-04  3.81399025e+04],453,919.8664845581668
911,911,[-1.44950789e+03  3.59399310e+02 -2.58361469e-04  4.03986334e+04],3,919.2176251085962
912,912,[-1.65194882e+03  3.59399309e+02 -2.42504692e-04  2.63954036e+04],214,919.7226647879204
913,913,[-1.56673048e+03  3.59399306e+02 -2.30133432e-04  5.06816038e+04],216,918.2161928525082
914,914,[-1.55505259e+03  3.59399316e+02 -2.46847607e-04  5.36409979e+04],215,920.188287534146
915,915,[-1.51360729e+03  3.59399299e+02 -2.60120239e-04  2.71894375e+04],450,919.9314661724678
916,916,[-1.45971418e+03  3.59399296e+02 -2.87134898e-04  2.63509678e+04],1,919.369577213025
917,917,[-1.42101588e+03  3.59399319e+02 -2.96178586e-04  3.78000959e+04],452,916.9905311819319
918,918,[-1.57253555e+03  3.59399495e+02 -2.62482079e-04  3.02073390e+05],798,918.8452531600675
919,919,[-1.68688910e+03  3.59399319e+02 -2.33598477e-04  6.71261205e+04],799,919.7901587848773
920,920,[-1.58393353e+03  3.59399303e+02 -2.50554054e-04  2.88825248e+04],210,919.9531794253528
921,921,[-1.54870813e+03  3.59399309e+02 -2.51541380e-04  5.27820696e+04],451,920.3861368116894
922,922,[-1.45923408e+03  3.59399441e+02 -2.84918334e-04  3.39318244e+05],2,919.658593415471
923,923,[-1.57861002e+03  3.59399307e+02 -2.79080797e-04  3.17861786e+04],211,915.8083318714082
