,0,1,2,3
0,0,[ 5.42985621e+04  1.58924583e+03 -3.17995200e-02  5.65595637e-01],316,424.13280617542677
1,1,[ 5.42985621e+04  1.58924583e+03 -3.17995200e-02  5.65595637e-01],273,425.1879165564726
2,2,[ 5.42985621e+04  1.58924583e+03 -3.17995200e-02  5.65595637e-01],359,425.6690762239205
3,3,[ 5.42985621e+04  1.58924583e+03 -3.17995200e-02  5.65595637e-01],321,425.3400429078732
4,4,[ 5.42985621e+04  1.58924583e+03 -3.17995200e-02  5.65595637e-01],319,425.3532550769741
5,5,[ 5.42985621e+04  1.58924583e+03 -3.17995200e-02  5.65595637e-01],365,425.38291129830475
6,6,[ 5.42985621e+04  1.58924583e+03 -3.17995200e-02  5.65595637e-01],251,425.62343600925146
7,7,[ 5.42985621e+04  1.58924583e+03 -3.17995200e-02  5.65595637e-01],369,425.88809484530043
8,8,[ 5.42985621e+04  1.58924583e+03 -3.17995200e-02  5.65595637e-01],244,424.7975426895275
9,9,[ 5.42985621e+04  1.58924583e+03 -3.17995200e-02  5.65595637e-01],337,425.92595660573517
10,10,[ 5.42985621e+04  1.58924583e+03 -3.17995200e-02  5.65595637e-01],368,425.72192680024483
11,11,[ 5.42985621e+04  1.58924583e+03 -3.17995200e-02  5.65595637e-01],135,426.1499806562947
12,12,[ 5.42985621e+04  1.58924583e+03 -3.17995200e-02  5.65595637e-01],350,426.23268410795987
13,13,[ 5.42985621e+04  1.58924583e+03 -3.17995200e-02  5.65595637e-01],270,425.86722539124
14,14,[ 5.42985621e+04  1.58924583e+03 -3.17995200e-02  5.65595637e-01],144,426.4054530429882
15,15,[ 5.42985621e+04  1.58924583e+03 -3.17995200e-02  5.65595637e-01],388,426.33959809911903
16,16,[ 5.42985621e+04  1.58924583e+03 -3.17995200e-02  5.65595637e-01],128,426.48641352751935
17,17,[ 5.42985621e+04  1.58924583e+03 -3.17995200e-02  5.65595637e-01],148,426.35159439507913
18,18,[ 5.42985621e+04  1.58924583e+03 -3.17995200e-02  5.65595637e-01],357,425.55360687381267
19,19,[ 5.42985621e+04  1.58924583e+03 -3.17995200e-02  5.65595637e-01],117,425.5703079951707
20,20,[ 5.42985621e+04  1.58924583e+03 -3.17995200e-02  5.65595637e-01],189,425.90612074758286
21,21,[ 5.42985621e+04  1.58924583e+03 -3.17995200e-02  5.65595637e-01],314,425.9042959114726
22,22,[ 5.42985621e+04  1.58924583e+03 -3.17995200e-02  5.65595637e-01],223,425.32580774670714
23,23,[ 5.42985621e+04  1.58924583e+03 -3.17995200e-02  5.65595637e-01],136,426.0534351003622
24,24,[ 5.42985621e+04  1.58924583e+03 -3.17995200e-02  5.65595637e-01],392,426.62679755285575
25,25,[ 5.42985621e+04  1.58924583e+03 -3.17995200e-02  5.65595637e-01],400,425.79354080162557
26,26,[ 5.42985621e+04  1.58924583e+03 -3.17995200e-02  5.65595637e-01],239,425.9277313297176
27,27,[ 5.42985621e+04  1.58924583e+03 -3.17995200e-02  5.65595637e-01],219,426.1926435369459
28,28,[ 5.42985621e+04  1.58924583e+03 -3.17995200e-02  5.65595637e-01],191,426.6347321603325
29,29,[ 5.42985621e+04  1.58924583e+03 -3.17995200e-02  5.65595637e-01],209,425.83682519368995
30,30,[ 5.42985621e+04  1.58924583e+03 -3.17995200e-02  5.65595637e-01],133,425.602325318246
31,31,[ 5.42985621e+04  1.58924583e+03 -3.17995200e-02  5.65595637e-01],394,425.6400385464299
32,32,[ 5.42985621e+04  1.58924583e+03 -3.17995200e-02  5.65595637e-01],343,426.57328590588867
33,33,[ 5.42985621e+04  1.58924583e+03 -3.17995200e-02  5.65595637e-01],218,426.269869990385
34,34,[ 5.42985621e+04  1.58924583e+03 -3.17995200e-02  5.65595637e-01],376,425.74334066634265
35,35,[ 5.42985621e+04  1.58924583e+03 -3.17995200e-02  5.65595637e-01],351,426.01291167992144
36,36,[ 5.42985621e+04  1.58924583e+03 -3.17995200e-02  5.65595637e-01],346,426.264021028451
37,37,[ 5.42985621e+04  1.58924583e+03 -3.17995200e-02  5.65595637e-01],185,425.9553933655326
38,38,[ 5.42985621e+04  1.58924583e+03 -3.17995200e-02  5.65595637e-01],228,425.99780248927357
39,39,[ 5.42985621e+04  1.58924583e+03 -3.17995200e-02  5.65595637e-01],302,426.08606948068876
40,40,[ 5.42985621e+04  1.58924583e+03 -3.17995200e-02  5.65595637e-01],354,425.6920490047915
41,41,[ 5.42985621e+04  1.58924583e+03 -3.17995200e-02  5.65595637e-01],197,413.13254306267135
42,42,[ 5.42985621e+04  1.58924583e+03 -3.17995200e-02  5.65595637e-01],160,424.9736354257812
43,43,[ 5.42985621e+04  1.58924583e+03 -3.17995200e-02  5.65595637e-01],124,425.61924942844564
44,44,[ 5.42985621e+04  1.58924583e+03 -3.17995200e-02  5.65595637e-01],360,422.70934795087675
45,45,[ 5.42985621e+04  1.58924583e+03 -3.17995200e-02  5.65595637e-01],236,426.69116170533437
46,46,[ 5.42985621e+04  1.58924583e+03 -3.17995200e-02  5.65595637e-01],320,426.52441099383276
47,47,[ 5.42985621e+04  1.58924583e+03 -3.17995200e-02  5.65595637e-01],259,426.60595254800006
48,48,[ 5.42985621e+04  1.58924583e+03 -3.17995200e-02  5.65595637e-01],139,426.4930894635449
49,49,[ 5.42985621e+04  1.58924583e+03 -3.17995200e-02  5.65595637e-01],313,425.7705859436788
50,50,[ 5.42985621e+04  1.58924583e+03 -3.17995200e-02  5.65595637e-01],254,425.99770289437595
51,51,[ 5.42985621e+04  1.58924583e+03 -3.17995200e-02  5.65595637e-01],172,426.13251360599986
52,52,[ 5.42985621e+04  1.58924583e+03 -3.17995200e-02  5.65595637e-01],196,426.0838182668853
53,53,[ 5.42985621e+04  1.58924583e+03 -3.17995200e-02  5.65595637e-01],355,426.3006288462054
54,54,[ 5.42985621e+04  1.58924583e+03 -3.17995200e-02  5.65595637e-01],176,426.37238762367383
55,55,[ 5.42985621e+04  1.58924583e+03 -3.17995200e-02  5.65595637e-01],195,426.32397362187805
56,56,[ 5.42985621e+04  1.58924583e+03 -3.17995200e-02  5.65595637e-01],129,425.85331808217944
57,57,[ 5.42985621e+04  1.58924583e+03 -3.17995200e-02  5.65595637e-01],238,425.71592588
58,58,[ 5.42985621e+04  1.58924583e+03 -3.17995200e-02  5.65595637e-01],242,425.36173564759764
59,59,[ 5.42985621e+04  1.58924583e+03 -3.17995200e-02  5.65595637e-01],261,426.2468278243746
60,60,[ 5.42985621e+04  1.58924583e+03 -3.17995200e-02  5.65595637e-01],79,426.07825869982486
61,61,[ 5.42985621e+04  1.58924583e+03 -3.17995200e-02  5.65595637e-01],326,425.93387545309577
62,62,[ 5.42985621e+04  1.58924583e+03 -3.17995200e-02  5.65595637e-01],71,426.6811460718226
63,63,[ 5.42985621e+04  1.58924583e+03 -3.17995200e-02  5.65595637e-01],382,425.74344214914214
64,64,[ 5.42985621e+04  1.58924583e+03 -3.17995200e-02  5.65595637e-01],159,426.47318270176356
65,65,[ 5.42985621e+04  1.58924583e+03 -3.17995200e-02  5.65595637e-01],150,425.46955151741923
66,66,[ 5.42985621e+04  1.58924583e+03 -3.17995200e-02  5.65595637e-01],243,426.1460901045583
67,67,[ 5.42985621e+04  1.58924583e+03 -3.17995200e-02  5.65595637e-01],294,425.6732017334099
68,68,[ 5.42985621e+04  1.58924583e+03 -3.17995200e-02  5.65595637e-01],396,423.2623300324327
69,69,[ 5.42985621e+04  1.58924583e+03 -3.17995200e-02  5.65595637e-01],188,425.91944519290297
70,70,[ 5.42985621e+04  1.58924583e+03 -3.17995200e-02  5.65595637e-01],147,425.9648180074398
71,71,[ 5.42985621e+04  1.58924583e+03 -3.17995200e-02  5.65595637e-01],230,426.8096353142495
72,72,[ 5.42985621e+04  1.58924583e+03 -3.17995200e-02  5.65595637e-01],158,426.75505584271673
73,73,[ 5.42985621e+04  1.58924583e+03 -3.17995200e-02  5.65595637e-01],300,425.45295777913174
74,74,[ 5.42985621e+04  1.58924583e+03 -3.17995200e-02  5.65595637e-01],315,426.62682346133226
75,75,[ 5.42985621e+04  1.58924583e+03 -3.17995200e-02  5.65595637e-01],232,425.6736509409045
76,76,[ 5.42985621e+04  1.58924583e+03 -3.17995200e-02  5.65595637e-01],252,425.68830615841983
77,77,[ 5.42985621e+04  1.58924583e+03 -3.17995200e-02  5.65595637e-01],286,426.6410965772223
78,78,[ 5.42985621e+04  1.58924583e+03 -3.17995200e-02  5.65595637e-01],335,426.6467964247142
79,79,[ 5.42985621e+04  1.58924583e+03 -3.17995200e-02  5.65595637e-01],358,426.8117413055608
80,80,[ 5.42985621e+04  1.58924583e+03 -3.17995200e-02  5.65595637e-01],363,425.86144294626604
81,81,[ 5.42985621e+04  1.58924583e+03 -3.17995200e-02  5.65595637e-01],215,426.6090585261438
82,82,[ 5.42985621e+04  1.58924583e+03 -3.17995200e-02  5.65595637e-01],178,426.0299175090666
83,83,[ 5.42985621e+04  1.58924583e+03 -3.17995200e-02  5.65595637e-01],339,426.70146073193047
84,84,[ 5.42985621e+04  1.58924583e+03 -3.17995200e-02  5.65595637e-01],399,426.25279633454653
85,85,[ 5.42985621e+04  1.58924583e+03 -3.17995200e-02  5.65595637e-01],281,426.22981545085
86,86,[ 5.42985621e+04  1.58924583e+03 -3.17995200e-02  5.65595637e-01],342,426.6831938324843
87,87,[ 5.42985621e+04  1.58924583e+03 -3.17995200e-02  5.65595637e-01],288,426.6304622219609
88,88,[ 5.42985621e+04  1.58924583e+03 -3.17995200e-02  5.65595637e-01],280,426.02850330243655
89,89,[ 5.42985621e+04  1.58924583e+03 -3.17995200e-02  5.65595637e-01],72,426.3437384180174
90,90,[ 5.42985621e+04  1.58924583e+03 -3.17995200e-02  5.65595637e-01],211,426.63885008264083
91,91,[ 5.42985621e+04  1.58924583e+03 -3.17995200e-02  5.65595637e-01],309,426.6667037427118
92,92,[ 5.42985621e+04  1.58924583e+03 -3.17995200e-02  5.65595637e-01],271,426.4413195193904
93,93,[ 5.42985621e+04  1.58924583e+03 -3.17995200e-02  5.65595637e-01],347,426.4926893748627
94,94,[ 5.42985621e+04  1.58924583e+03 -3.17995200e-02  5.65595637e-01],263,426.6770818037577
95,95,[ 5.42985621e+04  1.58924583e+03 -3.17995200e-02  5.65595637e-01],149,426.3636918931371
96,96,[ 5.42985621e+04  1.58924583e+03 -3.17995200e-02  5.65595637e-01],274,426.6853813702836
97,97,[ 5.42985621e+04  1.58924583e+03 -3.17995200e-02  5.65595637e-01],253,426.29286723355375
98,98,[ 5.42985621e+04  1.58924583e+03 -3.17995200e-02  5.65595637e-01],332,426.5052204337234
99,99,[ 5.42985621e+04  1.58924583e+03 -3.17995200e-02  5.65595637e-01],121,426.5840512576334
100,100,[ 5.42985621e+04  1.58924583e+03 -3.17995200e-02  5.65595637e-01],329,426.4190371297017
101,101,[ 5.42985621e+04  1.58924583e+03 -3.17995200e-02  5.65595637e-01],154,426.58842259863627
102,102,[ 5.42985621e+04  1.58924583e+03 -3.17995200e-02  5.65595637e-01],385,425.68710368841454
103,103,[ 5.42985621e+04  1.58924583e+03 -3.17995200e-02  5.65595637e-01],145,426.13457229266567
104,104,[ 5.42985621e+04  1.58924583e+03 -3.17995200e-02  5.65595637e-01],221,425.96790231210866
105,105,[ 5.42985621e+04  1.58924583e+03 -3.17995200e-02  5.65595637e-01],340,426.1575259697475
106,106,[ 5.42985621e+04  1.58924583e+03 -3.17995200e-02  5.65595637e-01],116,426.0772799242708
107,107,[ 5.42985621e+04  1.58924583e+03 -3.17995200e-02  5.65595637e-01],151,426.3583837325885
108,108,[ 5.42985621e+04  1.58924583e+03 -3.17995200e-02  5.65595637e-01],362,426.1516534648346
109,109,[ 5.42985621e+04  1.58924583e+03 -3.17995200e-02  5.65595637e-01],308,425.9087480053291
110,110,[ 5.42985621e+04  1.58924583e+03 -3.17995200e-02  5.65595637e-01],256,425.76512163837936
111,111,[ 5.42985621e+04  1.58924583e+03 -3.17995200e-02  5.65595637e-01],233,425.8478682977444
112,112,[ 5.42985621e+04  1.58924583e+03 -3.17995200e-02  5.65595637e-01],383,426.5854232378043
113,113,[ 5.42985621e+04  1.58924583e+03 -3.17995200e-02  5.65595637e-01],115,425.89135016733013
114,114,[ 5.42985621e+04  1.58924583e+03 -3.17995200e-02  5.65595637e-01],325,426.4605193200067
115,115,[ 5.42985621e+04  1.58924583e+03 -3.17995200e-02  5.65595637e-01],245,426.7085101812551
116,116,[ 5.42985621e+04  1.58924583e+03 -3.17995200e-02  5.65595637e-01],378,426.7220107468523
117,117,[ 5.42985621e+04  1.58924583e+03 -3.17995200e-02  5.65595637e-01],156,426.9361251630487
118,118,[ 5.42985621e+04  1.58924583e+03 -3.17995200e-02  5.65595637e-01],125,426.4269935472247
119,119,[ 5.42985621e+04  1.58924583e+03 -3.17995200e-02  5.65595637e-01],141,424.8416311571002
120,120,[ 5.42985621e+04  1.58924583e+03 -3.17995200e-02  5.65595637e-01],83,426.67128406739147
121,121,[ 5.42985621e+04  1.58924583e+03 -3.17995200e-02  5.65595637e-01],229,426.736034696784
122,122,[ 5.42985621e+04  1.58924583e+03 -3.17995200e-02  5.65595637e-01],181,426.1150548188986
123,123,[ 5.42985621e+04  1.58924583e+03 -3.17995200e-02  5.65595637e-01],186,426.4773748681443
124,124,[ 5.42985621e+04  1.58924583e+03 -3.17995200e-02  5.65595637e-01],45,426.86908710584476
125,125,[ 5.42985621e+04  1.58924583e+03 -3.17995200e-02  5.65595637e-01],327,426.70496644303535
126,126,[ 5.42985621e+04  1.58924583e+03 -3.17995200e-02  5.65595637e-01],424,425.993348241606
127,127,[ 5.42985621e+04  1.58924583e+03 -3.17995200e-02  5.65595637e-01],207,426.41912502873595
128,128,[ 5.42985621e+04  1.58924583e+03 -3.17995200e-02  5.65595637e-01],330,426.9460070624945
129,129,[ 5.42985621e+04  1.58924583e+03 -3.17995200e-02  5.65595637e-01],248,426.8263528917524
130,130,[ 5.42985621e+04  1.58924583e+03 -3.17995200e-02  5.65595637e-01],96,426.4344497446028
131,131,[ 5.42985621e+04  1.58924583e+03 -3.17995200e-02  5.65595637e-01],86,425.8340402325395
132,132,[ 5.42985621e+04  1.58924583e+03 -3.17995200e-02  5.65595637e-01],62,426.2803938576339
133,133,[ 5.42985621e+04  1.58924583e+03 -3.17995200e-02  5.65595637e-01],94,426.89377565678814
134,134,[ 5.42985621e+04  1.58924583e+03 -3.17995200e-02  5.65595637e-01],224,426.3702418085476
135,135,[ 5.42985621e+04  1.58924583e+03 -3.17995200e-02  5.65595637e-01],227,426.96242391295976
136,136,[ 5.42985621e+04  1.58924583e+03 -3.17995200e-02  5.65595637e-01],255,426.92563761854205
137,137,[ 5.42985621e+04  1.58924583e+03 -3.17995200e-02  5.65595637e-01],120,424.3320223148357
138,138,[ 5.42985621e+04  1.58924583e+03 -3.17995200e-02  5.65595637e-01],323,426.6604964304574
139,139,[ 5.42985621e+04  1.58924583e+03 -3.17995200e-02  5.65595637e-01],91,426.85781614849344
140,140,[ 5.42985621e+04  1.58924583e+03 -3.17995200e-02  5.65595637e-01],234,426.614850838456
141,141,[ 5.42985621e+04  1.58924583e+03 -3.17995200e-02  5.65595637e-01],318,426.7032858107279
142,142,[ 5.42985621e+04  1.58924583e+03 -3.17995200e-02  5.65595637e-01],138,425.8928015731499
143,143,[ 5.42985621e+04  1.58924583e+03 -3.17995200e-02  5.65595637e-01],222,426.1890063213123
144,144,[ 5.42985621e+04  1.58924583e+03 -3.17995200e-02  5.65595637e-01],152,426.9586241091234
145,145,[ 5.42985621e+04  1.58924583e+03 -3.17995200e-02  5.65595637e-01],184,426.726416079654
146,146,[ 5.42985621e+04  1.58924583e+03 -3.17995200e-02  5.65595637e-01],375,426.60541243212
147,147,[ 5.42985621e+04  1.58924583e+03 -3.17995200e-02  5.65595637e-01],157,426.7915096420065
148,148,[ 5.42985621e+04  1.58924583e+03 -3.17995200e-02  5.65595637e-01],267,426.9424228530123
149,149,[ 5.42985621e+04  1.58924583e+03 -3.17995200e-02  5.65595637e-01],266,426.7425015684087
150,150,[ 5.42985621e+04  1.58924583e+03 -3.17995200e-02  5.65595637e-01],78,426.80315380821224
151,151,[ 5.42985621e+04  1.58924583e+03 -3.17995200e-02  5.65595637e-01],265,426.72035529655597
152,152,[ 5.42985621e+04  1.58924583e+03 -3.17995200e-02  5.65595637e-01],384,426.65701804135267
153,153,[ 5.42985621e+04  1.58924583e+03 -3.17995200e-02  5.65595637e-01],409,426.4791865705742
154,154,[ 5.42985621e+04  1.58924583e+03 -3.17995200e-02  5.65595637e-01],77,426.7344370848483
155,155,[ 5.42985621e+04  1.58924583e+03 -3.17995200e-02  5.65595637e-01],90,426.4218218614066
156,156,[ 5.42985621e+04  1.58924583e+03 -3.17995200e-02  5.65595637e-01],379,426.7053428914948
157,157,[ 5.42985621e+04  1.58924583e+03 -3.17995200e-02  5.65595637e-01],372,426.65089755899174
158,158,[ 5.42985621e+04  1.58924583e+03 -3.17995200e-02  5.65595637e-01],303,426.78957576816435
159,159,[ 5.42985621e+04  1.58924583e+03 -3.17995200e-02  5.65595637e-01],356,426.8050422635539
160,160,[ 5.42985621e+04  1.58924583e+03 -3.17995200e-02  5.65595637e-01],192,426.87191488448667
161,161,[ 5.42985621e+04  1.58924583e+03 -3.17995200e-02  5.65595637e-01],28,425.72955700292556
162,162,[ 5.42985621e+04  1.58924583e+03 -3.17995200e-02  5.65595637e-01],87,426.6107730187716
163,163,[ 5.42985621e+04  1.58924583e+03 -3.17995200e-02  5.65595637e-01],310,426.5788514793629
164,164,[ 5.42985621e+04  1.58924583e+03 -3.17995200e-02  5.65595637e-01],231,426.06428951324983
165,165,[ 5.42985621e+04  1.58924583e+03 -3.17995200e-02  5.65595637e-01],74,425.1034051108366
166,166,[ 5.42985621e+04  1.58924583e+03 -3.17995200e-02  5.65595637e-01],24,425.0501293139491
167,167,[ 5.42985621e+04  1.58924583e+03 -3.17995200e-02  5.65595637e-01],225,426.18116370767063
168,168,[ 5.42985621e+04  1.58924583e+03 -3.17995200e-02  5.65595637e-01],324,426.23217914707084
169,169,[ 5.42985621e+04  1.58924583e+03 -3.17995200e-02  5.65595637e-01],317,425.69727691051645
170,170,[ 5.42985621e+04  1.58924583e+03 -3.17995200e-02  5.65595637e-01],140,425.0095068976123
171,171,[ 5.42985621e+04  1.58924583e+03 -3.17995200e-02  5.65595637e-01],162,426.5170444360724
172,172,[ 5.42985621e+04  1.58924583e+03 -3.17995200e-02  5.65595637e-01],81,426.8433106947485
173,173,[ 5.42985621e+04  1.58924583e+03 -3.17995200e-02  5.65595637e-01],47,426.48431052209355
174,174,[ 5.42985621e+04  1.58924583e+03 -3.17995200e-02  5.65595637e-01],146,425.5604390946311
175,175,[ 5.42985621e+04  1.58924583e+03 -3.17995200e-02  5.65595637e-01],279,426.2793555723531
176,176,[ 5.42985621e+04  1.58924583e+03 -3.17995200e-02  5.65595637e-01],284,426.83965705311067
177,177,[ 5.42985621e+04  1.58924583e+03 -3.17995200e-02  5.65595637e-01],213,426.5360592394155
178,178,[ 5.42985621e+04  1.58924583e+03 -3.17995200e-02  5.65595637e-01],262,426.77008044708344
179,179,[ 5.42985621e+04  1.58924583e+03 -3.17995200e-02  5.65595637e-01],235,426.26395253834426
180,180,[ 5.42985621e+04  1.58924583e+03 -3.17995200e-02  5.65595637e-01],205,426.15002970865
181,181,[ 5.42985621e+04  1.58924583e+03 -3.17995200e-02  5.65595637e-01],101,426.69455639692063
182,182,[ 5.42985621e+04  1.58924583e+03 -3.17995200e-02  5.65595637e-01],410,426.4333969568784
183,183,[ 5.42985621e+04  1.58924583e+03 -3.17995200e-02  5.65595637e-01],112,425.68842636958414
184,184,[ 5.42985621e+04  1.58924583e+03 -3.17995200e-02  5.65595637e-01],361,426.656728641461
185,185,[ 5.42985621e+04  1.58924583e+03 -3.17995200e-02  5.65595637e-01],99,426.87741882409927
186,186,[ 5.42985621e+04  1.58924583e+03 -3.17995200e-02  5.65595637e-01],373,426.6943215874804
187,187,[ 5.42985621e+04  1.58924583e+03 -3.17995200e-02  5.65595637e-01],163,426.43185542478216
188,188,[ 5.42985621e+04  1.58924583e+03 -3.17995200e-02  5.65595637e-01],32,426.7935896389242
189,189,[ 5.42985621e+04  1.58924583e+03 -3.17995200e-02  5.65595637e-01],296,426.93436894799333
190,190,[ 5.42985621e+04  1.58924583e+03 -3.17995200e-02  5.65595637e-01],264,426.54802254097865
191,191,[ 5.42985621e+04  1.58924583e+03 -3.17995200e-02  5.65595637e-01],287,426.9013575506687
192,192,[ 5.42985621e+04  1.58924583e+03 -3.17995200e-02  5.65595637e-01],312,426.6365061269392
193,193,[ 5.42985621e+04  1.58924583e+03 -3.17995200e-02  5.65595637e-01],290,425.62872228117965
194,194,[ 5.42985621e+04  1.58924583e+03 -3.17995200e-02  5.65595637e-01],292,425.9621309025439
195,195,[ 5.42985621e+04  1.58924583e+03 -3.17995200e-02  5.65595637e-01],391,426.83094582382506
196,196,[ 5.42985621e+04  1.58924583e+03 -3.17995200e-02  5.65595637e-01],190,426.8417863810652
197,197,[ 5.42985621e+04  1.58924583e+03 -3.17995200e-02  5.65595637e-01],331,426.87260801043686
198,198,[ 5.42985621e+04  1.58924583e+03 -3.17995200e-02  5.65595637e-01],268,426.2396542382511
199,199,[ 5.42985621e+04  1.58924583e+03 -3.17995200e-02  5.65595637e-01],341,425.09064070338553
200,200,[ 5.42985621e+04  1.58924583e+03 -3.17995200e-02  5.65595637e-01],177,426.2079773173204
201,201,[ 5.42985621e+04  1.58924583e+03 -3.17995200e-02  5.65595637e-01],367,425.4993861056998
202,202,[ 5.42985621e+04  1.58924583e+03 -3.17995200e-02  5.65595637e-01],278,425.8192750468031
203,203,[ 5.42985621e+04  1.58924583e+03 -3.17995200e-02  5.65595637e-01],237,426.27500291546335
204,204,[ 5.42985621e+04  1.58924583e+03 -3.17995200e-02  5.65595637e-01],46,426.32167668328816
205,205,[ 5.42985621e+04  1.58924583e+03 -3.17995200e-02  5.65595637e-01],299,426.5887563349712
206,206,[ 5.42985621e+04  1.58924583e+03 -3.17995200e-02  5.65595637e-01],171,426.10884315998794
207,207,[ 5.42985621e+04  1.58924583e+03 -3.17995200e-02  5.65595637e-01],98,426.68857553123934
208,208,[ 5.42985621e+04  1.58924583e+03 -3.17995200e-02  5.65595637e-01],338,426.28842226911695
209,209,[ 5.42985621e+04  1.58924583e+03 -3.17995200e-02  5.65595637e-01],393,426.9005468115692
210,210,[ 5.42985621e+04  1.58924583e+03 -3.17995200e-02  5.65595637e-01],293,426.42421364982255
211,211,[ 5.42985621e+04  1.58924583e+03 -3.17995200e-02  5.65595637e-01],285,426.75432583603447
212,212,[ 5.42985621e+04  1.58924583e+03 -3.17995200e-02  5.65595637e-01],333,426.30421124598405
213,213,[ 5.42985621e+04  1.58924583e+03 -3.17995200e-02  5.65595637e-01],48,426.5939630613168
214,214,[ 5.42985621e+04  1.58924583e+03 -3.17995200e-02  5.65595637e-01],93,426.4633040209502
215,215,[ 5.42985621e+04  1.58924583e+03 -3.17995200e-02  5.65595637e-01],16,426.7705322366608
216,216,[ 5.42985621e+04  1.58924583e+03 -3.17995200e-02  5.65595637e-01],173,426.3869234807553
217,217,[ 5.42985621e+04  1.58924583e+03 -3.17995200e-02  5.65595637e-01],298,426.44960929438474
218,218,[ 5.42985621e+04  1.58924583e+03 -3.17995200e-02  5.65595637e-01],153,426.8856593469381
219,219,[ 5.42985621e+04  1.58924583e+03 -3.17995200e-02  5.65595637e-01],123,426.90496556355373
220,220,[ 5.42985621e+04  1.58924583e+03 -3.17995200e-02  5.65595637e-01],257,426.301338391945
221,221,[ 5.42985621e+04  1.58924583e+03 -3.17995200e-02  5.65595637e-01],64,426.72541325679225
222,222,[ 5.42985621e+04  1.58924583e+03 -3.17995200e-02  5.65595637e-01],246,426.6587887301074
223,223,[ 5.42985621e+04  1.58924583e+03 -3.17995200e-02  5.65595637e-01],345,426.9287888350628
224,224,[ 5.42985621e+04  1.58924583e+03 -3.17995200e-02  5.65595637e-01],214,426.6767331517114
225,225,[ 5.42985621e+04  1.58924583e+03 -3.17995200e-02  5.65595637e-01],114,426.62572700797944
226,226,[ 5.42985621e+04  1.58924583e+03 -3.17995200e-02  5.65595637e-01],249,426.4459779231679
227,227,[ 5.42985621e+04  1.58924583e+03 -3.17995200e-02  5.65595637e-01],311,426.67618199017306
228,228,[ 5.42985621e+04  1.58924583e+03 -3.17995200e-02  5.65595637e-01],364,426.8761353652213
229,229,[ 5.42985621e+04  1.58924583e+03 -3.17995200e-02  5.65595637e-01],217,426.6952709575748
230,230,[ 5.42985621e+04  1.58924583e+03 -3.17995200e-02  5.65595637e-01],226,426.7897987442505
231,231,[ 5.42985621e+04  1.58924583e+03 -3.17995200e-02  5.65595637e-01],387,426.6299403212453
232,232,[ 5.42985621e+04  1.58924583e+03 -3.17995200e-02  5.65595637e-01],241,426.7847443471278
233,233,[ 5.42985621e+04  1.58924583e+03 -3.17995200e-02  5.65595637e-01],92,426.71271666038433
234,234,[ 5.42985621e+04  1.58924583e+03 -3.17995200e-02  5.65595637e-01],417,426.6641380945946
235,235,[ 5.42985621e+04  1.58924583e+03 -3.17995200e-02  5.65595637e-01],353,426.5902508931765
236,236,[ 5.42985621e+04  1.58924583e+03 -3.17995200e-02  5.65595637e-01],304,426.8662589928077
237,237,[ 5.42985621e+04  1.58924583e+03 -3.17995200e-02  5.65595637e-01],130,426.5282146423588
238,238,[ 5.42985621e+04  1.58924583e+03 -3.17995200e-02  5.65595637e-01],182,426.8232731912662
239,239,[ 5.42985621e+04  1.58924583e+03 -3.17995200e-02  5.65595637e-01],187,426.9070533523964
240,240,[ 5.42985621e+04  1.58924583e+03 -3.17995200e-02  5.65595637e-01],118,426.33158855715834
241,241,[ 5.42985621e+04  1.58924583e+03 -3.17995200e-02  5.65595637e-01],210,426.44306576697676
242,242,[ 5.42985621e+04  1.58924583e+03 -3.17995200e-02  5.65595637e-01],155,426.8151013772299
243,243,[ 5.42985621e+04  1.58924583e+03 -3.17995200e-02  5.65595637e-01],305,426.800473170469
244,244,[ 5.42985621e+04  1.58924583e+03 -3.17995200e-02  5.65595637e-01],127,426.9732908025176
245,245,[ 5.42985621e+04  1.58924583e+03 -3.17995200e-02  5.65595637e-01],100,426.706602226516
246,246,[ 5.42985621e+04  1.58924583e+03 -3.17995200e-02  5.65595637e-01],418,426.4654572616753
247,247,[ 5.42985621e+04  1.58924583e+03 -3.17995200e-02  5.65595637e-01],14,426.3973690879821
248,248,[ 5.42985621e+04  1.58924583e+03 -3.17995200e-02  5.65595637e-01],381,426.6854778479011
249,249,[ 5.42985621e+04  1.58924583e+03 -3.17995200e-02  5.65595637e-01],419,426.45703567038674
250,250,[ 5.42985621e+04  1.58924583e+03 -3.17995200e-02  5.65595637e-01],247,426.3674118092837
251,251,[ 5.42985621e+04  1.58924583e+03 -3.17995200e-02  5.65595637e-01],371,426.9784219965016
252,252,[ 5.42985621e+04  1.58924583e+03 -3.17995200e-02  5.65595637e-01],216,426.7816176065047
253,253,[ 5.42985621e+04  1.58924583e+03 -3.17995200e-02  5.65595637e-01],366,426.7365911803666
254,254,[ 5.42985621e+04  1.58924583e+03 -3.17995200e-02  5.65595637e-01],374,426.8497284608084
255,255,[ 5.42985621e+04  1.58924583e+03 -3.17995200e-02  5.65595637e-01],291,426.6744525878901
256,256,[ 5.42985621e+04  1.58924583e+03 -3.17995200e-02  5.65595637e-01],54,426.7149388758743
257,257,[ 5.42985621e+04  1.58924583e+03 -3.17995200e-02  5.65595637e-01],134,426.4764794643214
258,258,[ 5.42985621e+04  1.58924583e+03 -3.17995200e-02  5.65595637e-01],250,426.1919734277851
259,259,[ 5.42985621e+04  1.58924583e+03 -3.17995200e-02  5.65595637e-01],95,426.8589289798865
260,260,[ 5.42985621e+04  1.58924583e+03 -3.17995200e-02  5.65595637e-01],422,425.8187434541706
261,261,[ 5.42985621e+04  1.58924583e+03 -3.17995200e-02  5.65595637e-01],107,426.81381104407427
262,262,[ 5.42985621e+04  1.58924583e+03 -3.17995200e-02  5.65595637e-01],377,426.59393030752864
263,263,[ 5.42985621e+04  1.58924583e+03 -3.17995200e-02  5.65595637e-01],272,426.7484385094041
264,264,[ 5.42985621e+04  1.58924583e+03 -3.17995200e-02  5.65595637e-01],17,426.5651451755612
265,265,[ 5.42985621e+04  1.58924583e+03 -3.17995200e-02  5.65595637e-01],89,426.6467397535391
266,266,[ 5.42985621e+04  1.58924583e+03 -3.17995200e-02  5.65595637e-01],425,426.647606987324
267,267,[ 5.42985621e+04  1.58924583e+03 -3.17995200e-02  5.65595637e-01],15,426.64945875734844
268,268,[ 5.42985621e+04  1.58924583e+03 -3.17995200e-02  5.65595637e-01],395,426.5411144299474
269,269,[ 5.42985621e+04  1.58924583e+03 -3.17995200e-02  5.65595637e-01],322,426.1388181316159
270,270,[ 5.42985621e+04  1.58924583e+03 -3.17995200e-02  5.65595637e-01],386,426.96054555862577
271,271,[ 5.42985621e+04  1.58924583e+03 -3.17995200e-02  5.65595637e-01],240,426.75072864743083
272,272,[ 5.42985621e+04  1.58924583e+03 -3.17995200e-02  5.65595637e-01],55,426.35537481788884
273,273,[ 5.42985621e+04  1.58924583e+03 -3.17995200e-02  5.65595637e-01],204,427.0302411583934
274,274,[ 5.42985621e+04  1.58924583e+03 -3.17995200e-02  5.65595637e-01],212,426.7397312073682
275,275,[ 5.42985621e+04  1.58924583e+03 -3.17995200e-02  5.65595637e-01],220,424.81330024010316
276,276,[ 5.42985621e+04  1.58924583e+03 -3.17995200e-02  5.65595637e-01],53,425.3711138877058
277,277,[ 5.42985621e+04  1.58924583e+03 -3.17995200e-02  5.65595637e-01],97,426.1972766136981
278,278,[ 5.42985621e+04  1.58924583e+03 -3.17995200e-02  5.65595637e-01],208,426.53542604942277
279,279,[ 5.42985621e+04  1.58924583e+03 -3.17995200e-02  5.65595637e-01],348,426.60211385611007
280,280,[ 5.42985621e+04  1.58924583e+03 -3.17995200e-02  5.65595637e-01],370,426.7593423772598
281,281,[ 5.42985621e+04  1.58924583e+03 -3.17995200e-02  5.65595637e-01],132,426.7643437818946
282,282,[ 5.42985621e+04  1.58924583e+03 -3.17995200e-02  5.65595637e-01],175,424.6848191900379
283,283,[ 5.42985621e+04  1.58924583e+03 -3.17995200e-02  5.65595637e-01],297,426.2335342511344
284,284,[ 5.42985621e+04  1.58924583e+03 -3.17995200e-02  5.65595637e-01],203,426.59460021886775
285,285,[ 5.42985621e+04  1.58924583e+03 -3.17995200e-02  5.65595637e-01],33,426.50123254547526
286,286,[ 5.42985621e+04  1.58924583e+03 -3.17995200e-02  5.65595637e-01],36,426.7742042066378
287,287,[ 5.42985621e+04  1.58924583e+03 -3.17995200e-02  5.65595637e-01],179,426.5644005720338
288,288,[ 5.42985621e+04  1.58924583e+03 -3.17995200e-02  5.65595637e-01],344,426.7607913541403
289,289,[ 5.42985621e+04  1.58924583e+03 -3.17995200e-02  5.65595637e-01],84,426.0192544211426
290,290,[ 5.42985621e+04  1.58924583e+03 -3.17995200e-02  5.65595637e-01],59,426.55171478856096
291,291,[ 5.42985621e+04  1.58924583e+03 -3.17995200e-02  5.65595637e-01],413,426.3769473402753
292,292,[ 5.42985621e+04  1.58924583e+03 -3.17995200e-02  5.65595637e-01],198,426.54983249066834
293,293,[ 5.42985621e+04  1.58924583e+03 -3.17995200e-02  5.65595637e-01],283,426.5017501303699
294,294,[ 5.42985621e+04  1.58924583e+03 -3.17995200e-02  5.65595637e-01],12,426.79531948482355
295,295,[ 5.42985621e+04  1.58924583e+03 -3.17995200e-02  5.65595637e-01],168,425.9883380252878
296,296,[ 5.42985621e+04  1.58924583e+03 -3.17995200e-02  5.65595637e-01],85,426.5697569978216
297,297,[ 5.42985621e+04  1.58924583e+03 -3.17995200e-02  5.65595637e-01],352,426.27719535932516
298,298,[ 5.42985621e+04  1.58924583e+03 -3.17995200e-02  5.65595637e-01],407,426.48136530202333
299,299,[ 5.42985621e+04  1.58924583e+03 -3.17995200e-02  5.65595637e-01],200,426.5237605558607
300,300,[ 5.42985621e+04  1.58924583e+03 -3.17995200e-02  5.65595637e-01],277,426.78894983547457
301,301,[ 5.42985621e+04  1.58924583e+03 -3.17995200e-02  5.65595637e-01],27,425.80970281905866
302,302,[ 5.42985621e+04  1.58924583e+03 -3.17995200e-02  5.65595637e-01],258,426.87443876939676
303,303,[ 5.42985621e+04  1.58924583e+03 -3.17995200e-02  5.65595637e-01],336,426.6367820366585
304,304,[ 5.42985621e+04  1.58924583e+03 -3.17995200e-02  5.65595637e-01],143,426.4364107979291
305,305,[ 5.42985621e+04  1.58924583e+03 -3.17995200e-02  5.65595637e-01],167,426.41957494115826
306,306,[ 5.42985621e+04  1.58924583e+03 -3.17995200e-02  5.65595637e-01],420,425.7930839925323
307,307,[ 5.42985621e+04  1.58924583e+03 -3.17995200e-02  5.65595637e-01],105,425.4447111139286
308,308,[ 5.42985621e+04  1.58924583e+03 -3.17995200e-02  5.65595637e-01],108,426.71611909208724
309,309,[ 5.42985621e+04  1.58924583e+03 -3.17995200e-02  5.65595637e-01],180,426.7535873370037
310,310,[ 5.42985621e+04  1.58924583e+03 -3.17995200e-02  5.65595637e-01],11,426.6300298638061
311,311,[ 5.42985621e+04  1.58924583e+03 -3.17995200e-02  5.65595637e-01],66,426.45624435151655
312,312,[ 5.42985621e+04  1.58924583e+03 -3.17995200e-02  5.65595637e-01],269,426.55916484124094
313,313,[ 5.42985621e+04  1.58924583e+03 -3.17995200e-02  5.65595637e-01],103,426.8500005586928
314,314,[ 5.42985621e+04  1.58924583e+03 -3.17995200e-02  5.65595637e-01],51,426.932979753531
315,315,[ 5.42985621e+04  1.58924583e+03 -3.17995200e-02  5.65595637e-01],414,426.78845545188756
316,316,[ 5.42985621e+04  1.58924583e+03 -3.17995200e-02  5.65595637e-01],122,427.05835635137294
317,317,[ 5.42985621e+04  1.58924583e+03 -3.17995200e-02  5.65595637e-01],349,426.6163639087845
318,318,[ 5.42985621e+04  1.58924583e+03 -3.17995200e-02  5.65595637e-01],206,426.6610823818293
319,319,[ 5.42985621e+04  1.58924583e+03 -3.17995200e-02  5.65595637e-01],39,426.99665647304505
320,320,[ 5.42985621e+04  1.58924583e+03 -3.17995200e-02  5.65595637e-01],52,426.8628754330356
321,321,[ 5.42985621e+04  1.58924583e+03 -3.17995200e-02  5.65595637e-01],397,427.00354582490525
322,322,[ 5.42985621e+04  1.58924583e+03 -3.17995200e-02  5.65595637e-01],60,426.33775260921226
323,323,[ 5.42985621e+04  1.58924583e+03 -3.17995200e-02  5.65595637e-01],106,426.6711137479324
324,324,[ 5.42985621e+04  1.58924583e+03 -3.17995200e-02  5.65595637e-01],164,426.62529964201553
325,325,[ 5.42985621e+04  1.58924583e+03 -3.17995200e-02  5.65595637e-01],23,426.70687969964206
326,326,[ 5.42985621e+04  1.58924583e+03 -3.17995200e-02  5.65595637e-01],82,426.81064242734516
327,327,[ 5.42985621e+04  1.58924583e+03 -3.17995200e-02  5.65595637e-01],88,426.68969436458684
328,328,[ 5.42985621e+04  1.58924583e+03 -3.17995200e-02  5.65595637e-01],289,425.8443952338997
329,329,[ 5.42985621e+04  1.58924583e+03 -3.17995200e-02  5.65595637e-01],35,426.7354872374094
330,330,[ 5.42985621e+04  1.58924583e+03 -3.17995200e-02  5.65595637e-01],38,426.6874301628436
331,331,[ 5.42985621e+04  1.58924583e+03 -3.17995200e-02  5.65595637e-01],50,426.5470337938145
332,332,[ 5.42985621e+04  1.58924583e+03 -3.17995200e-02  5.65595637e-01],126,426.73616324995913
333,333,[ 5.42985621e+04  1.58924583e+03 -3.17995200e-02  5.65595637e-01],295,426.50087777011584
334,334,[ 5.42985621e+04  1.58924583e+03 -3.17995200e-02  5.65595637e-01],423,425.82368034412826
335,335,[ 5.42985621e+04  1.58924583e+03 -3.17995200e-02  5.65595637e-01],416,426.7740936360762
336,336,[ 5.42985621e+04  1.58924583e+03 -3.17995200e-02  5.65595637e-01],104,426.1900732339964
337,337,[ 5.42985621e+04  1.58924583e+03 -3.17995200e-02  5.65595637e-01],70,426.97199326739866
338,338,[ 5.42985621e+04  1.58924583e+03 -3.17995200e-02  5.65595637e-01],194,426.50435469112904
339,339,[ 5.42985621e+04  1.58924583e+03 -3.17995200e-02  5.65595637e-01],398,426.7673361502502
340,340,[ 5.42985621e+04  1.58924583e+03 -3.17995200e-02  5.65595637e-01],389,426.7241074379272
341,341,[ 5.42985621e+04  1.58924583e+03 -3.17995200e-02  5.65595637e-01],37,426.53701249453724
342,342,[ 5.42985621e+04  1.58924583e+03 -3.17995200e-02  5.65595637e-01],390,426.7636867257771
343,343,[ 5.42985621e+04  1.58924583e+03 -3.17995200e-02  5.65595637e-01],408,426.8924452154737
344,344,[ 5.42985621e+04  1.58924583e+03 -3.17995200e-02  5.65595637e-01],61,426.2530918729123
345,345,[ 5.42985621e+04  1.58924583e+03 -3.17995200e-02  5.65595637e-01],26,426.4644198366129
346,346,[ 5.42985621e+04  1.58924583e+03 -3.17995200e-02  5.65595637e-01],9,426.8797057153539
347,347,[ 5.42985621e+04  1.58924583e+03 -3.17995200e-02  5.65595637e-01],69,426.74956896078606
348,348,[ 5.42985621e+04  1.58924583e+03 -3.17995200e-02  5.65595637e-01],109,426.2827981459046
349,349,[ 5.42985621e+04  1.58924583e+03 -3.17995200e-02  5.65595637e-01],20,426.1132664984504
350,350,[ 5.42985621e+04  1.58924583e+03 -3.17995200e-02  5.65595637e-01],21,426.96238336104574
351,351,[ 5.42985621e+04  1.58924583e+03 -3.17995200e-02  5.65595637e-01],142,426.88052290929556
352,352,[ 5.42985621e+04  1.58924583e+03 -3.17995200e-02  5.65595637e-01],113,426.22161548164894
353,353,[ 5.42985621e+04  1.58924583e+03 -3.17995200e-02  5.65595637e-01],7,426.4395796703937
354,354,[ 5.42985621e+04  1.58924583e+03 -3.17995200e-02  5.65595637e-01],13,426.87283854916757
355,355,[ 5.42985621e+04  1.58924583e+03 -3.17995200e-02  5.65595637e-01],80,426.8413964115362
356,356,[ 5.42985621e+04  1.58924583e+03 -3.17995200e-02  5.65595637e-01],56,426.63666310693947
357,357,[ 5.42985621e+04  1.58924583e+03 -3.17995200e-02  5.65595637e-01],111,426.9382349961665
358,358,[ 5.42985621e+04  1.58924583e+03 -3.17995200e-02  5.65595637e-01],328,426.7721661828281
359,359,[ 5.42985621e+04  1.58924583e+03 -3.17995200e-02  5.65595637e-01],421,427.01615669644
360,360,[ 5.42985621e+04  1.58924583e+03 -3.17995200e-02  5.65595637e-01],380,426.86775757668664
361,361,[ 5.42985621e+04  1.58924583e+03 -3.17995200e-02  5.65595637e-01],29,426.5852956602387
362,362,[ 5.42985621e+04  1.58924583e+03 -3.17995200e-02  5.65595637e-01],415,426.71752544874323
363,363,[ 5.42985621e+04  1.58924583e+03 -3.17995200e-02  5.65595637e-01],131,426.7719282040297
364,364,[ 5.42985621e+04  1.58924583e+03 -3.17995200e-02  5.65595637e-01],334,426.4529905551332
365,365,[ 5.42985621e+04  1.58924583e+03 -3.17995200e-02  5.65595637e-01],202,426.9896028932236
366,366,[ 5.42985621e+04  1.58924583e+03 -3.17995200e-02  5.65595637e-01],260,426.3850632974261
367,367,[ 5.42985621e+04  1.58924583e+03 -3.17995200e-02  5.65595637e-01],301,426.5357189647705
368,368,[ 5.42985621e+04  1.58924583e+03 -3.17995200e-02  5.65595637e-01],25,426.9685420646379
369,369,[ 5.42985621e+04  1.58924583e+03 -3.17995200e-02  5.65595637e-01],306,426.97785990820125
370,370,[ 5.42985621e+04  1.58924583e+03 -3.17995200e-02  5.65595637e-01],49,426.2819284222772
371,371,[ 5.42985621e+04  1.58924583e+03 -3.17995200e-02  5.65595637e-01],110,426.39351867207796
372,372,[ 5.42985621e+04  1.58924583e+03 -3.17995200e-02  5.65595637e-01],412,426.63708043079214
373,373,[ 5.42985621e+04  1.58924583e+03 -3.17995200e-02  5.65595637e-01],63,426.5793542933212
374,374,[ 5.42985621e+04  1.58924583e+03 -3.17995200e-02  5.65595637e-01],34,426.3778798468098
375,375,[ 5.42985621e+04  1.58924583e+03 -3.17995200e-02  5.65595637e-01],161,426.6566566927742
376,376,[ 5.42985621e+04  1.58924583e+03 -3.17995200e-02  5.65595637e-01],10,426.8845040841708
377,377,[ 5.42985621e+04  1.58924583e+03 -3.17995200e-02  5.65595637e-01],57,426.3558625043677
378,378,[ 5.42985621e+04  1.58924583e+03 -3.17995200e-02  5.65595637e-01],169,426.70607718591907
379,379,[ 5.42985621e+04  1.58924583e+03 -3.17995200e-02  5.65595637e-01],40,426.63857001989885
380,380,[ 5.42985621e+04  1.58924583e+03 -3.17995200e-02  5.65595637e-01],183,425.83821568227705
381,381,[ 5.42985621e+04  1.58924583e+03 -3.17995200e-02  5.65595637e-01],76,426.4003271018988
382,382,[ 5.42985621e+04  1.58924583e+03 -3.17995200e-02  5.65595637e-01],102,426.8078024703992
383,383,[ 5.42985621e+04  1.58924583e+03 -3.17995200e-02  5.65595637e-01],75,426.7099583006282
384,384,[ 5.42985621e+04  1.58924583e+03 -3.17995200e-02  5.65595637e-01],67,426.64291291849065
385,385,[ 5.42985621e+04  1.58924583e+03 -3.17995200e-02  5.65595637e-01],2,426.73156360664166
386,386,[ 5.42985621e+04  1.58924583e+03 -3.17995200e-02  5.65595637e-01],406,426.337211834144
387,387,[ 5.42985621e+04  1.58924583e+03 -3.17995200e-02  5.65595637e-01],31,426.44394025531
388,388,[ 5.42985621e+04  1.58924583e+03 -3.17995200e-02  5.65595637e-01],193,426.9495640215572
389,389,[ 5.42985621e+04  1.58924583e+03 -3.17995200e-02  5.65595637e-01],6,425.95683826409123
390,390,[ 5.42985621e+04  1.58924583e+03 -3.17995200e-02  5.65595637e-01],43,425.9551947618136
391,391,[ 5.42985621e+04  1.58924583e+03 -3.17995200e-02  5.65595637e-01],30,426.5487046172777
392,392,[ 5.42985621e+04  1.58924583e+03 -3.17995200e-02  5.65595637e-01],401,426.9113117017346
393,393,[ 5.42985621e+04  1.58924583e+03 -3.17995200e-02  5.65595637e-01],19,426.5035817179417
394,394,[ 5.42985621e+04  1.58924583e+03 -3.17995200e-02  5.65595637e-01],174,426.89280895640115
395,395,[ 5.42985621e+04  1.58924583e+03 -3.17995200e-02  5.65595637e-01],18,426.33778990590645
396,396,[ 5.42985621e+04  1.58924583e+03 -3.17995200e-02  5.65595637e-01],201,426.79424724680433
397,397,[ 5.42985621e+04  1.58924583e+03 -3.17995200e-02  5.65595637e-01],411,426.08272042080284
398,398,[ 5.42985621e+04  1.58924583e+03 -3.17995200e-02  5.65595637e-01],65,425.96023377354174
399,399,[ 5.42985621e+04  1.58924583e+03 -3.17995200e-02  5.65595637e-01],73,426.7656324583572
400,400,[ 5.42985621e+04  1.58924583e+03 -3.17995200e-02  5.65595637e-01],307,426.9074617831478
401,401,[ 5.42985621e+04  1.58924583e+03 -3.17995200e-02  5.65595637e-01],5,425.5887861824035
402,402,[ 5.42985621e+04  1.58924583e+03 -3.17995200e-02  5.65595637e-01],276,424.3424388015836
403,403,[ 5.42985621e+04  1.58924583e+03 -3.17995200e-02  5.65595637e-01],58,424.5533454318696
404,404,[ 5.42985621e+04  1.58924583e+03 -3.17995200e-02  5.65595637e-01],4,423.841698003182
405,405,[ 5.42985621e+04  1.58924583e+03 -3.17995200e-02  5.65595637e-01],3,424.6938168960035
406,406,[ 5.42985621e+04  1.58924583e+03 -3.17995200e-02  5.65595637e-01],22,425.6497142340208
407,407,[ 5.42985621e+04  1.58924583e+03 -3.17995200e-02  5.65595637e-01],1,426.2080179948886
408,408,[ 5.42985621e+04  1.58924583e+03 -3.17995200e-02  5.65595637e-01],165,425.93402515963925
409,409,[ 5.42985621e+04  1.58924583e+03 -3.17995200e-02  5.65595637e-01],199,426.6418160135221
410,410,[ 5.42985621e+04  1.58924583e+03 -3.17995200e-02  5.65595637e-01],166,426.5868543202791
411,411,[ 5.42985621e+04  1.58924583e+03 -3.17995200e-02  5.65595637e-01],170,425.4988040314966
412,412,[ 5.42985621e+04  1.58924583e+03 -3.17995200e-02  5.65595637e-01],42,425.7602012600581
413,413,[ 5.42985621e+04  1.58924583e+03 -3.17995200e-02  5.65595637e-01],119,426.2443692101344
414,414,[ 5.42985621e+04  1.58924583e+03 -3.17995200e-02  5.65595637e-01],275,426.1285592109626
415,415,[ 5.42985621e+04  1.58924583e+03 -3.17995200e-02  5.65595637e-01],8,425.83496423707
416,416,[ 5.42985621e+04  1.58924583e+03 -3.17995200e-02  5.65595637e-01],405,425.96968133826164
417,417,[ 5.42985621e+04  1.58924583e+03 -3.17995200e-02  5.65595637e-01],282,426.44093154279585
418,418,[ 5.42985621e+04  1.58924583e+03 -3.17995200e-02  5.65595637e-01],403,426.40548549163805
419,419,[ 5.42985621e+04  1.58924583e+03 -3.17995200e-02  5.65595637e-01],402,426.39861147523175
420,420,[ 5.42985621e+04  1.58924583e+03 -3.17995200e-02  5.65595637e-01],137,426.1628374919051
421,421,[ 5.42985621e+04  1.58924583e+03 -3.17995200e-02  5.65595637e-01],0,425.84133824674075
422,422,[ 5.42985621e+04  1.58924583e+03 -3.17995200e-02  5.65595637e-01],404,426.3616962666555
423,423,[ 5.42985621e+04  1.58924583e+03 -3.17995200e-02  5.65595637e-01],68,425.98009017628885
424,424,[ 5.42985621e+04  1.58924583e+03 -3.17995200e-02  5.65595637e-01],44,426.68955384594756
425,425,[ 5.42985621e+04  1.58924583e+03 -3.17995200e-02  5.65595637e-01],426,426.3403176405264
426,426,[ 5.42985621e+04  1.58924583e+03 -3.17995200e-02  5.65595637e-01],41,421.76302429161285
427,427,[ 5.42985621e+04  1.58924583e+03 -3.17995200e-02  5.65595637e-01],427,411.80063656680267
