,0,1,2,3
0,0,[-1.84926438e+03  3.59399305e+02 -8.81614682e-05  5.47586248e+04],23,814.1663762404535
1,1,[-2.00192379e+03  3.59399314e+02 -9.13231381e-05  3.88735257e+04],589,813.8061344933698
2,2,[-1.80537060e+03  3.59399314e+02 -8.63963073e-05  6.51730228e+04],566,813.2281894164504
3,3,[-1.98987503e+03  3.59399322e+02 -8.63094536e-05  1.44570774e+05],228,812.8176424984226
4,4,[-1.53825258e+03  3.59399315e+02 -8.03473373e-05  1.58214020e+05],19,812.5707009091253
5,5,[-1.78936903e+03  3.59399452e+02 -6.93702068e-05  2.49730264e+05],422,814.4623121059151
6,6,[-1.71297648e+03  3.59399315e+02 -7.25046135e-05  6.78229411e+04],496,815.4405043482542
7,7,[-1.83106581e+03  3.59399315e+02 -8.15202273e-05  8.81302120e+04],128,815.1218537568202
8,8,[-1.94271569e+03  3.59399080e+02 -8.27996210e-05  3.02105416e+05],729,815.2281593657439
9,9,[-1.92092204e+03  3.59399372e+02 -9.54720172e-05  7.45601631e+05],389,811.0327379966269
10,10,[-1.94127775e+03  3.59399306e+02 -9.31666863e-05  5.34330188e+04],196,809.6796275897067
11,11,[-1.59882844e+03  3.59399307e+02 -7.81124200e-05  5.21682989e+04],285,809.7234394136814
12,12,[-1.86365156e+03  3.59399324e+02 -6.63695634e-05  9.09545385e+04],246,813.8717494378857
13,13,[-1.83901907e+03  3.59399314e+02 -6.82134174e-05  6.39363154e+04],647,813.7383429597367
14,14,[-1.85608438e+03  3.59399306e+02 -7.17494643e-05  5.43850336e+04],369,813.4605941459777
15,15,[-1.69367775e+03  3.59399308e+02 -7.81141215e-05  5.01691563e+04],235,814.6804312936441
16,16,[-2.25378799e+03  3.59399362e+02 -7.44190318e-05  4.43818095e+05],170,812.6251979542672
17,17,[-1.61438502e+03  3.59399310e+02 -7.93617582e-05  4.36810584e+04],536,815.0153781258706
18,18,[-1.76640430e+03  3.59399310e+02 -7.87775201e-05  4.34988604e+04],26,814.7795380294924
19,19,[-1.85601351e+03  3.59399495e+02 -8.61851837e-05  6.74060359e+05],267,815.963680154409
20,20,[-1.65654020e+03  3.59399313e+02 -7.45013152e-05  4.97600897e+04],339,815.0863710452782
21,21,[-1.91524503e+03  3.59399316e+02 -7.78959051e-05  6.04971194e+04],430,815.0102073747845
22,22,[-1.52152832e+03  3.59399310e+02 -7.23839560e-05  4.62759733e+04],565,815.1256614223068
23,23,[-1.76060588e+03  3.59399307e+02 -7.56313315e-05  5.25298244e+04],520,816.2339664976802
24,24,[-2.06917697e+03  3.59399321e+02 -7.85363260e-05  6.95020167e+04],252,815.0032371970805
25,25,[-1.91941137e+03  3.59399442e+02 -8.39546749e-05  2.72582553e+05],533,815.0294027407033
26,26,[-1.72964159e+03  3.59399305e+02 -8.07812758e-05  5.83040749e+04],324,815.8730575507515
27,27,[-1.66623629e+03  3.59399388e+02 -6.37972826e-05  2.73930657e+05],786,814.5016513820955
28,28,[-2.01888469e+03  3.59399314e+02 -8.14151228e-05  3.67569463e+04],286,814.6127269671947
29,29,[-1.79827312e+03  3.59399411e+02 -8.60961413e-05  2.57233303e+05],303,815.2171920933995
30,30,[-1.36501924e+03  3.59399314e+02 -8.54706279e-05  7.22061537e+04],204,813.7011067423825
31,31,[-1.78189160e+03  3.59399307e+02 -8.24554908e-05  5.27590102e+04],601,814.2181155494237
32,32,[-2.07549029e+03  3.59399314e+02 -7.77196342e-05  6.22083557e+04],586,813.715817927362
33,33,[-1.52093633e+03  3.59399310e+02 -7.90095646e-05  4.54383020e+04],540,814.4890704471886
34,34,[-1.87984938e+03  3.59399312e+02 -7.84282433e-05  3.68122745e+04],471,814.5824893057618
35,35,[-1.60903871e+03  3.59399318e+02 -7.47939490e-05  8.11217253e+04],131,813.9851230917817
36,36,[-1.74251767e+03  3.59399314e+02 -8.34183119e-05  7.23073474e+04],420,814.761968836006
37,37,[-2.06879167e+03  3.59399310e+02 -8.08566374e-05  4.40112052e+04],719,815.3692831131685
38,38,[-1.77667987e+03  3.59399311e+02 -7.62119377e-05  4.37407691e+04],279,814.7714276531375
39,39,[-1.88780211e+03  3.59399410e+02 -7.88147960e-05  2.50088811e+05],590,815.1643319536403
40,40,[-1.73928997e+03  3.59399313e+02 -9.00603293e-05  5.01268690e+04],311,814.0050158054761
41,41,[-1.89021577e+03  3.59399324e+02 -7.22845145e-05  9.06608211e+04],348,815.0838013666606
42,42,[-1.74613798e+03  3.59399322e+02 -7.28045018e-05  7.93094324e+04],632,814.7804903521459
43,43,[-1.54331230e+03  3.59399313e+02 -8.76474990e-05  8.20223683e+04],181,812.126680367256
44,44,[-2.12980535e+03  3.59399308e+02 -7.20252921e-05  7.77184062e+04],551,811.8915964798241
45,45,[-1.72029695e+03  3.59399307e+02 -8.45882976e-05  5.73316098e+04],704,814.0855542462155
46,46,[-1.97057216e+03  3.59399319e+02 -7.84929359e-05  7.15587930e+04],768,814.0646880957703
47,47,[-2.05377401e+03  3.59399316e+02 -9.07605772e-05  8.89474390e+04],594,814.2742439226744
48,48,[-1.79244260e+03  3.59399313e+02 -7.12528335e-05  4.00538654e+04],522,815.2212246231201
49,49,[-1.74730057e+03  3.59399412e+02 -7.74057505e-05  2.64942142e+05],371,814.2716445337567
50,50,[-1.69297355e+03  3.59399303e+02 -6.70335251e-05  5.98023808e+04],221,813.1235567183165
51,51,[-1.99551666e+03  3.59399309e+02 -8.21129811e-05  4.58188952e+04],398,814.0348150980308
52,52,[-2.03157607e+03  3.59399277e+02 -7.92044677e-05  7.21861849e+04],385,813.8969370377049
53,53,[-2.01162189e+03  3.59399612e+02 -7.60249758e-05  7.01170436e+05],591,814.3078899231955
54,54,[-2.02299340e+03  3.59399424e+02 -8.08812916e-05  2.47493637e+05],587,815.332262416115
55,55,[-1.88794442e+03  3.59399323e+02 -7.21820131e-05  5.31114835e+04],149,813.3571575324207
56,56,[-1.79214081e+03  3.59399321e+02 -8.87209590e-05  1.46262765e+05],415,814.5118561976019
57,57,[-2.05940059e+03  3.59399311e+02 -8.60006732e-05  4.38241286e+04],364,814.811212364853
58,58,[-1.84531649e+03  3.59399407e+02 -7.61799409e-05  2.60538688e+05],263,814.1033589542311
59,59,[-1.85264437e+03  3.59399314e+02 -7.76447233e-05  6.46432440e+04],743,814.5450170938835
60,60,[-1.55940594e+03  3.59399321e+02 -7.23211142e-05  1.44851144e+05],347,815.1472919425569
61,61,[-1.65265497e+03  3.59399306e+02 -8.02558536e-05  5.52390592e+04],528,814.6889528904354
62,62,[-2.03184012e+03  3.59399307e+02 -8.64518677e-05  4.70330805e+04],810,815.0305252536918
63,63,[-1.99206985e+03  3.59399421e+02 -7.18449161e-05  8.59034527e+05],633,814.0537618259606
64,64,[-1.85372193e+03  3.59399309e+02 -8.17126684e-05  4.92233899e+04],198,814.7652240128028
65,65,[-1.99680553e+03  3.59399309e+02 -7.08620446e-05  4.70435366e+04],700,813.6236121381902
66,66,[-1.75341810e+03  3.59399420e+02 -7.69154855e-05  3.01588513e+05],68,815.0724785761763
67,67,[-1.77378520e+03  3.59399303e+02 -7.76550471e-05  6.01067677e+04],239,814.8355970513371
68,68,[-1.63515263e+03  3.59399313e+02 -7.65859685e-05  6.44680668e+04],521,815.569237838631
69,69,[-1.92657832e+03  3.59399403e+02 -8.51892999e-05  2.56664520e+05],157,814.25871805669
70,70,[-1.83087160e+03  3.59399314e+02 -8.61669235e-05  3.71145535e+04],173,814.5046414208613
71,71,[-1.97116334e+03  3.59399312e+02 -8.06569430e-05  6.21677769e+04],737,814.4213653646607
72,72,[-2.15094512e+03  3.59399311e+02 -7.79765147e-05  4.50010973e+04],619,814.6716426960409
73,73,[-1.79038497e+03  3.59399443e+02 -8.63309976e-05  3.34357715e+05],193,813.3988322612569
74,74,[-1.69060986e+03  3.59399312e+02 -8.70855320e-05  4.25257195e+04],605,812.1699387507782
75,75,[-1.81456725e+03  3.59399324e+02 -8.85169778e-05  1.28349860e+05],785,814.9526411822196
76,76,[-1.79633120e+03  3.59399555e+02 -7.87920952e-05  8.97981147e+05],572,815.4816025438914
77,77,[-1.81853277e+03  3.59399311e+02 -8.71013404e-05  4.42894288e+04],427,812.568145959235
78,78,[-1.72426773e+03  3.59399473e+02 -8.48816215e-05  7.03478208e+05],537,813.9186645622573
79,79,[-1.71307821e+03  3.59399313e+02 -8.00494859e-05  4.09655703e+04],226,814.7584512188705
80,80,[-1.97409000e+03  3.59399381e+02 -8.18206786e-05  2.04693308e+05],538,814.4578554521088
81,81,[-1.76883818e+03  3.59399324e+02 -9.25371058e-05  1.15817535e+05],532,813.3158833227604
82,82,[-1.68033484e+03  3.59399259e+02 -9.94532890e-05  8.60224671e+04],513,811.8775162403606
83,83,[-1.76035957e+03  3.59399697e+02 -8.54388966e-05  6.07865928e+05],256,813.5034344010418
84,84,[-1.95784188e+03  3.59399378e+02 -8.18655286e-05  1.92744850e+05],76,814.5537384635834
85,85,[-1.88776271e+03  3.59399400e+02 -8.16029366e-05  2.52327709e+05],720,815.2602203317879
86,86,[-1.99793963e+03  3.59399314e+02 -7.58064382e-05  3.65891353e+04],735,814.1440759742871
87,87,[-1.70760342e+03  3.59399312e+02 -8.44247570e-05  4.89943267e+04],362,814.6132445817054
88,88,[-1.67467775e+03  3.59399310e+02 -7.61774499e-05  5.45004818e+04],254,815.2112875305014
89,89,[-1.99589276e+03  3.59399305e+02 -7.93138372e-05  4.04903476e+04],224,814.6974293840123
90,90,[-1.62225866e+03  3.59399317e+02 -7.17137033e-05  6.03442346e+04],608,814.8122515768291
91,91,[-2.06089188e+03  3.59399326e+02 -8.16214175e-05  1.57337704e+05],600,814.4209776641458
92,92,[-2.06666994e+03  3.59399314e+02 -7.53351997e-05  3.79803345e+04],330,814.1596916887538
93,93,[-1.83463275e+03  3.59399401e+02 -8.80732052e-05  2.47717639e+05],692,814.3197914597445
94,94,[-1.57005095e+03  3.59399318e+02 -8.64729962e-05  9.18673758e+04],213,815.2501514375073
95,95,[-1.62361226e+03  3.59399309e+02 -7.30248517e-05  4.90691238e+04],6,813.9957372436351
96,96,[-1.86199842e+03  3.59399309e+02 -8.04338663e-05  4.71911446e+04],402,814.9096089171568
97,97,[-1.85092288e+03  3.59399306e+02 -7.81561227e-05  5.56431099e+04],505,814.7928890583667
98,98,[-2.03871181e+03  3.59399315e+02 -7.87078571e-05  5.24145178e+04],179,814.13610711143
99,99,[-2.05168365e+03  3.59399384e+02 -8.57221473e-05  4.19046101e+05],208,815.2317228373626
100,100,[-1.83441337e+03  3.59399308e+02 -7.90749658e-05  5.18490606e+04],441,814.2447029545974
101,101,[-2.10872536e+03  3.59399324e+02 -6.57683158e-05  8.96951640e+04],610,813.0125629947024
102,102,[-1.70772780e+03  3.59399312e+02 -7.52742499e-05  4.35132921e+04],723,815.3724624905636
103,103,[-1.66135767e+03  3.59399319e+02 -7.75210920e-05  6.46984335e+04],613,815.2063493341811
104,104,[-1.81781836e+03  3.59399433e+02 -7.71922615e-05  2.30325593e+05],450,814.0784986497014
105,105,[-1.85878632e+03  3.59399319e+02 -7.46914276e-05  9.44696901e+04],136,815.1971338308537
106,106,[-1.98090563e+03  3.59399310e+02 -7.98960288e-05  4.64811641e+04],426,815.3819222041119
107,107,[-1.93855305e+03  3.59399309e+02 -7.39517749e-05  5.06109913e+04],134,815.2197119258567
108,108,[-1.82416932e+03  3.59399309e+02 -7.67418991e-05  4.90389687e+04],629,815.0549255135782
109,109,[-1.77901667e+03  3.59399323e+02 -7.48394274e-05  8.07076608e+04],293,814.0900468593427
110,110,[-1.97343116e+03  3.59399310e+02 -7.63897486e-05  4.70658540e+04],439,815.0237485060924
111,111,[-1.92422680e+03  3.59399310e+02 -8.17732766e-05  3.19702191e+04],202,814.5499041376289
112,112,[-1.68446379e+03  3.59399415e+02 -6.84571830e-05  2.75282651e+05],106,815.1297194715415
113,113,[-1.92630928e+03  3.59399309e+02 -7.29992561e-05  5.03824716e+04],142,814.4767743977405
114,114,[-1.94035449e+03  3.59399314e+02 -8.50233859e-05  6.16232874e+04],529,814.7462205546177
115,115,[-1.77308136e+03  3.59399310e+02 -7.63403699e-05  4.71634793e+04],648,814.6408999718515
116,116,[-1.81259587e+03  3.59399311e+02 -7.53088115e-05  4.27278972e+04],435,815.3575300382242
117,117,[-2.10335196e+03  3.59399312e+02 -7.67907005e-05  4.08170221e+04],616,814.8150499287518
118,118,[-1.81326033e+03  3.59399309e+02 -7.48204705e-05  4.77135760e+04],102,815.1776466312423
119,119,[-1.97028832e+03  3.59399413e+02 -7.65907027e-05  2.70409436e+05],154,814.8131032236814
120,120,[-1.73663998e+03  3.59399410e+02 -8.20892385e-05  2.75967128e+05],37,813.2110705511485
121,121,[-2.10257586e+03  3.59399310e+02 -7.69992615e-05  4.77692014e+04],323,814.6619031750541
122,122,[-2.24309982e+03  3.59399312e+02 -7.56226333e-05  4.19684064e+04],310,814.5932135871167
123,123,[-1.85985591e+03  3.59399466e+02 -6.64423000e-05  4.85268094e+05],240,813.0624152116607
124,124,[-1.53255391e+03  3.59399305e+02 -7.81878755e-05  9.18173183e+04],116,814.552219526956
125,125,[-2.04766704e+03  3.59399307e+02 -8.47628244e-05  4.08319075e+04],545,815.2919319629729
126,126,[-1.88004199e+03  3.59399409e+02 -8.63292325e-05  2.88990985e+05],390,814.8349258720277
127,127,[-2.22667283e+03  3.59399309e+02 -6.61290153e-05  5.56252112e+04],678,812.694759255585
128,128,[-1.83898646e+03  3.59399308e+02 -7.62876887e-05  5.29221014e+04],477,815.9580723666744
129,129,[-2.02351274e+03  3.59399305e+02 -7.69685674e-05  5.78816159e+04],444,815.0447689046019
130,130,[-1.87484535e+03  3.59399402e+02 -7.37696399e-05  2.68849025e+05],561,814.8508867178863
131,131,[-1.79482112e+03  3.59399311e+02 -7.44527400e-05  4.59988301e+04],215,815.7438875897825
132,132,[-1.83241675e+03  3.59399565e+02 -7.79023073e-05  2.53869918e+05],609,814.4646685787769
133,133,[-1.86897886e+03  3.59399318e+02 -7.92202133e-05  7.59090215e+04],397,814.7578362795003
134,134,[-1.76027743e+03  3.59399394e+02 -7.27772283e-05  2.30809991e+05],151,815.4012500908426
135,135,[-1.93199398e+03  3.59399313e+02 -8.41502965e-05  6.56412916e+04],191,814.8279626379697
136,136,[-1.75315487e+03  3.59399415e+02 -7.95673962e-05  3.05384551e+05],54,815.4035110775345
137,137,[-2.15511839e+03  3.59399311e+02 -7.00545108e-05  4.31511462e+04],734,814.4352819687797
138,138,[-1.62390440e+03  3.59399322e+02 -8.43118733e-05  1.20971477e+05],618,814.8538712616855
139,139,[-1.89303389e+03  3.59399403e+02 -7.45300310e-05  2.66116855e+05],236,814.4296852043304
140,140,[-1.69642016e+03  3.59399308e+02 -7.56126923e-05  5.21746516e+04],380,815.1455576849586
141,141,[-1.74822114e+03  3.59399301e+02 -9.28016755e-05  4.68192282e+04],386,813.2863443019244
142,142,[-1.71056156e+03  3.59399320e+02 -8.41258284e-05  1.05380158e+05],502,815.3807995706402
143,143,[-1.97058859e+03  3.59399306e+02 -9.29839650e-05  4.96024144e+04],492,814.2723860989264
144,144,[-1.73670657e+03  3.59399279e+02 -8.38721529e-05  2.76339817e+04],412,814.9674871947939
145,145,[-1.81503751e+03  3.59399310e+02 -8.72211057e-05  4.79800837e+04],161,814.0080718357364
146,146,[-1.50820082e+03  3.59399292e+02 -9.65853040e-05  7.86327000e+04],358,813.850614288822
147,147,[-1.84740865e+03  3.59399320e+02 -7.43143578e-05  6.57548736e+04],414,815.0652496040099
148,148,[-1.62819181e+03  3.59399311e+02 -8.02836418e-05  4.74416789e+04],125,814.7368456147678
149,149,[-1.90606757e+03  3.59399317e+02 -7.41643812e-05  6.30623876e+04],746,815.6175449126562
150,150,[-1.81051475e+03  3.59399403e+02 -7.97673561e-05  2.53072559e+05],354,815.2664039404883
151,151,[-1.87920371e+03  3.59399404e+02 -8.52193680e-05  2.78231429e+05],575,815.3335439600104
152,152,[-2.03514128e+03  3.59399317e+02 -8.85037201e-05  6.96987304e+04],803,813.9064846402306
153,153,[-2.01008903e+03  3.59399311e+02 -8.30807504e-05  4.34294552e+04],530,815.0430388242696
154,154,[-1.81110617e+03  3.59399326e+02 -7.42751937e-05  2.05915826e+05],266,815.3709839751547
155,155,[-1.67123045e+03  3.59399313e+02 -7.64890504e-05  6.26456014e+04],180,814.9755930526343
156,156,[-2.10148580e+03  3.59399308e+02 -9.11189115e-05  1.07273878e+05],165,812.9736234828741
157,157,[-1.87695277e+03  3.59399412e+02 -8.31053411e-05  3.35488078e+05],185,815.5466004823949
158,158,[-1.72855144e+03  3.59399306e+02 -8.78482058e-05  5.60363933e+04],726,813.528917442156
159,159,[-1.72680336e+03  3.59399312e+02 -8.13494588e-05  4.26789721e+04],507,812.6655987447984
160,160,[-1.83826027e+03  3.59399305e+02 -8.50474172e-05  5.89782019e+04],714,813.7235404744481
161,161,[-1.84616493e+03  3.59399317e+02 -7.45679960e-05  6.94793970e+04],150,815.3089125192314
162,162,[-1.92841437e+03  3.59399314e+02 -7.10978287e-05  3.42808621e+04],187,815.1764602405943
163,163,[-1.67116846e+03  3.59399306e+02 -7.79777465e-05  5.77028573e+04],628,815.0237997071438
164,164,[-1.82547627e+03  3.59399310e+02 -6.94406188e-05  4.66500726e+04],352,814.6648968411504
165,165,[-1.70961884e+03  3.59399304e+02 -7.52254049e-05  6.23969674e+04],607,815.273787189911
166,166,[-1.40419325e+03  3.59399312e+02 -8.95559960e-05  4.56084012e+04],85,808.6849184331872
167,167,[-1.76944860e+03  3.59399313e+02 -7.36076622e-05  4.17561150e+04],567,814.6935573135504
168,168,[-1.84684325e+03  3.59399312e+02 -8.54254546e-05  5.12858289e+04],516,815.0800657404152
169,169,[-2.12586781e+03  3.59399316e+02 -8.04244558e-05  6.59068889e+04],556,814.3054917309423
170,170,[-1.92023495e+03  3.59399307e+02 -8.62013479e-05  4.92971602e+04],684,815.913677698841
171,171,[-1.65416269e+03  3.59399397e+02 -7.85029544e-05  1.81691749e+05],291,814.3144681048615
172,172,[-2.19736730e+03  3.59399402e+02 -8.53919966e-05  3.37808745e+05],523,813.8153712523052
173,173,[-1.79844905e+03  3.59399325e+02 -8.77710386e-05  1.37376262e+05],94,815.5437431839212
174,174,[-2.05412643e+03  3.59399309e+02 -6.60082543e-05  4.52436674e+04],440,813.9403638034094
175,175,[-1.67786038e+03  3.59399326e+02 -8.34768022e-05  1.85952287e+05],603,814.4006118124526
176,176,[-2.03490325e+03  3.59399312e+02 -6.96254218e-05  4.44626078e+04],548,814.9954713406647
177,177,[-1.90657939e+03  3.59399390e+02 -8.08311673e-05  2.36342380e+05],99,815.1310994932771
178,178,[-1.87059560e+03  3.59399310e+02 -7.48303284e-05  4.87206670e+04],569,814.6480892002322
179,179,[-1.96573764e+03  3.59399315e+02 -7.40287204e-05  5.62768364e+04],8,815.4241469460865
180,180,[-2.19807847e+03  3.59399311e+02 -8.11487357e-05  4.57461200e+04],184,815.2771727511581
181,181,[-1.93516760e+03  3.59399430e+02 -7.93218416e-05  7.58706284e+05],604,815.6902394091169
182,182,[-1.16514871e+03  3.59399332e+02 -2.03758998e-04  4.14967468e+00],318,810.6038546866416
183,183,[-1.81009368e+03  3.59399286e+02 -9.41961474e-05  8.80819127e+04],243,814.6224230764179
184,184,[-1.98083660e+03  3.59399404e+02 -8.09080555e-05  2.92103443e+05],48,815.2266606258261
185,185,[-1.66715772e+03  3.59399309e+02 -7.75614002e-05  4.51800525e+04],107,815.2715162976899
186,186,[-1.85909027e+03  3.59399313e+02 -7.60907910e-05  7.08079132e+04],29,815.204049503293
187,187,[-1.85638881e+03  3.59399312e+02 -7.42155914e-05  6.86146563e+04],276,815.2661413859202
188,188,[-1.69585556e+03  3.59399296e+02 -7.49677295e-05  1.15519114e+05],197,814.6591362989676
189,189,[-1.83887125e+03  3.59399311e+02 -8.11292175e-05  4.55836781e+04],577,814.7352885943517
190,190,[-1.70215693e+03  3.59399316e+02 -7.76015873e-05  6.98489156e+04],772,814.8133627398487
191,191,[-1.70042162e+03  3.59399321e+02 -6.99750302e-05  8.30137046e+04],88,815.3331141373263
192,192,[-2.05462981e+03  3.59399501e+02 -6.68098768e-05  3.17659692e+05],425,813.8810569649838
193,193,[-1.79822300e+03  3.59399316e+02 -7.55322767e-05  9.65647668e+04],103,815.5298214713174
194,194,[-2.06232167e+03  3.59399311e+02 -6.83547228e-05  3.99574537e+04],788,814.1716305886304
195,195,[-1.64159626e+03  3.59399310e+02 -8.24499378e-05  4.76747172e+04],186,814.2670855541301
196,196,[-1.73885054e+03  3.59399309e+02 -7.57802890e-05  4.95129820e+04],290,815.9439303608168
197,197,[-1.85733960e+03  3.59399317e+02 -8.50223954e-05  1.03787363e+05],277,815.213123217794
198,198,[-1.82669669e+03  3.59399316e+02 -7.78510879e-05  5.58362044e+04],105,815.5734672644516
199,199,[-1.88128156e+03  3.59399307e+02 -8.38207815e-05  5.81430570e+04],716,814.5652661612213
200,200,[-2.04674885e+03  3.59399310e+02 -7.58066645e-05  4.96048751e+04],695,814.5169165681248
201,201,[-1.71129134e+03  3.59399312e+02 -7.02210389e-05  4.44424024e+04],284,815.0559025416669
202,202,[-1.90394711e+03  3.59399311e+02 -8.02224375e-05  6.06925314e+04],289,815.3855992099229
203,203,[-1.71635373e+03  3.59399311e+02 -7.43996050e-05  4.67271597e+04],241,815.1814501392245
204,204,[-1.81468462e+03  3.59399310e+02 -8.18268990e-05  4.83536670e+04],203,815.7638432442152
205,205,[-1.80096197e+03  3.59399539e+02 -6.98026074e-05  8.74900677e+05],118,815.1172965367434
206,206,[-1.82102564e+03  3.59399399e+02 -7.69452663e-05  2.39425311e+05],162,814.4384852673284
207,207,[-1.79598982e+03  3.59399419e+02 -7.61607931e-05  2.63689738e+05],282,815.1276100915226
208,208,[-1.88551579e+03  3.59399315e+02 -7.30864415e-05  8.05912633e+04],210,815.4213314511336
209,209,[-1.97814260e+03  3.59399409e+02 -7.60915152e-05  2.64255100e+05],349,814.0755545194637
210,210,[-2.03137868e+03  3.59399312e+02 -7.54521913e-05  4.36310222e+04],39,815.1655580047722
211,211,[-1.89528881e+03  3.59399317e+02 -7.25001869e-05  6.51695926e+04],431,815.101755765915
212,212,[-1.64613965e+03  3.59399468e+02 -6.91593516e-05  6.77881500e+05],506,814.2052644642238
213,213,[-2.11128712e+03  3.59399483e+02 -8.04768888e-05  3.46241278e+05],262,815.4440424231731
214,214,[-1.88953086e+03  3.59399311e+02 -7.99293513e-05  4.92899930e+04],394,815.021665382665
215,215,[-2.02006196e+03  3.59399309e+02 -8.44963698e-05  5.23756673e+04],417,815.3374033107236
216,216,[-1.84102390e+03  3.59399307e+02 -8.62830331e-05  5.80759874e+04],583,814.8993995344456
217,217,[-1.98499358e+03  3.59399308e+02 -7.95860937e-05  5.28995239e+04],694,814.9058984472591
218,218,[-2.14131897e+03  3.59399311e+02 -8.42593789e-05  4.63988211e+04],60,814.8219248641957
219,219,[-2.09223733e+03  3.59399313e+02 -7.45081847e-05  4.63923833e+04],140,814.5352501581347
220,220,[-1.71349882e+03  3.59399326e+02 -8.44988987e-05  1.48740845e+05],438,814.9404284993808
221,221,[-1.75263817e+03  3.59399312e+02 -7.53963932e-05  4.26513932e+04],707,815.6419694660589
222,222,[-1.82957066e+03  3.59399309e+02 -8.20797122e-05  5.10457158e+04],568,814.8377289822614
223,223,[-1.81962451e+03  3.59399314e+02 -7.85569716e-05  5.74919542e+04],697,814.8797010589846
224,224,[-1.85999770e+03  3.59399317e+02 -7.63577347e-05  5.64111334e+04],345,815.4584442057353
225,225,[-1.78904819e+03  3.59399318e+02 -7.81158604e-05  6.37741692e+04],245,814.836915051185
226,226,[-1.67815794e+03  3.59399312e+02 -8.09403832e-05  4.61881831e+04],177,815.5089011652697
227,227,[-1.89750341e+03  3.59399548e+02 -7.86838475e-05  5.85198510e+05],112,814.9890267421571
228,228,[-1.74699603e+03  3.59399312e+02 -7.94614728e-05  4.45216247e+04],292,815.9733719440854
229,229,[-1.74799292e+03  3.59399308e+02 -7.01802247e-05  5.43346323e+04],270,814.9848671059538
230,230,[-1.91713526e+03  3.59399307e+02 -8.09219027e-05  5.54065144e+04],207,814.876539884495
231,231,[-1.76495885e+03  3.59399322e+02 -7.28832598e-05  8.00690630e+04],466,814.6432799738952
232,232,[-1.72894950e+03  3.59399313e+02 -7.06081560e-05  4.35502559e+04],268,814.9163446464132
233,233,[-1.70899607e+03  3.59399327e+02 -8.39349249e-05  1.50271197e+05],22,814.5132941145738
234,234,[-1.79067239e+03  3.59399318e+02 -7.06242363e-05  6.38493655e+04],344,814.5889454422168
235,235,[-1.74899905e+03  3.59399310e+02 -8.08981013e-05  4.68498006e+04],7,815.9223470296224
236,236,[-1.74860710e+03  3.59399319e+02 -8.03213855e-05  6.50178860e+04],636,815.313149938616
237,237,[-1.88728163e+03  3.59399314e+02 -6.67590039e-05  4.05868506e+04],205,813.4732886663105
238,238,[-1.81057552e+03  3.59399411e+02 -8.25648431e-05  3.04990196e+05],706,814.760003604258
239,239,[-1.86954596e+03  3.59399311e+02 -8.16388295e-05  4.68000225e+04],341,815.5578436329017
240,240,[-1.77432949e+03  3.59399328e+02 -7.55967243e-05  2.44753517e+05],275,815.3575560080119
241,241,[-1.81371602e+03  3.59399316e+02 -7.53397703e-05  5.71816705e+04],340,815.1885846263942
242,242,[-1.58003858e+03  3.59399301e+02 -8.96625210e-05  8.63000885e+04],709,814.4701503792423
243,243,[-1.76783111e+03  3.59399310e+02 -8.42809067e-05  5.05248930e+04],773,815.2217793716693
244,244,[-2.08654325e+03  3.59399316e+02 -8.09836481e-05  5.33097710e+04],383,814.4546221109463
245,245,[-1.91576650e+03  3.59399394e+02 -7.75281992e-05  2.43894653e+05],211,815.1326598150509
246,246,[-1.64599141e+03  3.59399512e+02 -7.31854840e-05  6.21988995e+05],350,815.9371776189103
247,247,[-2.00211147e+03  3.59399312e+02 -7.94133595e-05  4.60278298e+04],370,814.09492279814
248,248,[-1.72910782e+03  3.59399310e+02 -8.87629702e-05  5.76397748e+04],524,814.5929122990229
249,249,[-1.91387184e+03  3.59399315e+02 -7.74999939e-05  5.10733460e+04],20,814.4470616419641
250,250,[-1.94043042e+03  3.59399307e+02 -8.26657581e-05  5.61220079e+04],635,814.9297268921487
251,251,[-1.97216159e+03  3.59399326e+02 -8.76393824e-05  1.65512834e+05],740,814.4999517900826
252,252,[-1.80666192e+03  3.59399406e+02 -7.53048323e-05  2.79297313e+05],41,815.7888259085961
253,253,[-1.90631468e+03  3.59399310e+02 -8.22948869e-05  4.95926243e+04],614,813.7354746923909
254,254,[-1.95954104e+03  3.59399320e+02 -7.85197083e-05  6.10748621e+04],338,815.4673300055814
255,255,[-1.68219911e+03  3.59399314e+02 -8.09427681e-05  7.76998171e+04],474,814.0629141874791
256,256,[-1.91675945e+03  3.59399578e+02 -7.73051841e-05  8.24715967e+05],168,815.4823556961331
257,257,[-1.78742314e+03  3.59399310e+02 -8.82062882e-05  5.15672802e+04],448,813.8571318603086
258,258,[-1.97671877e+03  3.59399457e+02 -8.26775855e-05  6.19054537e+05],66,814.9011706830486
259,259,[-1.87306857e+03  3.59399310e+02 -9.30328505e-05  5.13831966e+04],728,814.4794012641488
260,260,[-1.75899301e+03  3.59399310e+02 -7.71397968e-05  4.87916167e+04],307,814.9141271520485
261,261,[-1.88191503e+03  3.59399310e+02 -8.12221757e-05  5.17698686e+04],702,814.9435607169813
262,262,[-1.61846940e+03  3.59399327e+02 -8.82727386e-05  2.32843018e+05],452,815.1599753223472
263,263,[-1.69949787e+03  3.59399308e+02 -7.90484119e-05  5.54356230e+04],147,815.6066836508465
264,264,[-1.84166900e+03  3.59399311e+02 -6.48078382e-05  4.78720925e+04],753,813.8223593713127
265,265,[-1.96285720e+03  3.59399399e+02 -8.07589643e-05  2.85428687e+05],201,814.4313205544557
266,266,[-1.74805121e+03  3.59399313e+02 -8.71901940e-05  6.29439785e+04],801,815.2788946080259
267,267,[-1.71698934e+03  3.59399314e+02 -7.71407303e-05  5.78726631e+04],611,815.855256873984
268,268,[-1.72460063e+03  3.59399305e+02 -8.48239023e-05  6.19267153e+04],108,815.1260819836536
269,269,[-1.89818482e+03  3.59399322e+02 -6.89752764e-05  7.65648203e+04],351,814.7374604664628
270,270,[-1.90582898e+03  3.59399480e+02 -8.61242299e-05  9.56190067e+05],447,815.1277398810404
271,271,[-1.77869766e+03  3.59399525e+02 -9.01729480e-05  6.23651460e+05],361,814.3499657253308
272,272,[-1.98336545e+03  3.59399312e+02 -7.32431388e-05  4.59061686e+04],129,814.60537122073
273,273,[-2.02455522e+03  3.59399311e+02 -8.15616692e-05  4.91270832e+04],153,814.5840209284701
274,274,[-1.64397483e+03  3.59399307e+02 -7.86708967e-05  4.66641773e+04],499,815.0334151511428
275,275,[-1.93921171e+03  3.59399313e+02 -7.85695898e-05  4.39066144e+04],325,815.1139359483147
276,276,[-2.01789736e+03  3.59399482e+02 -8.39331270e-05  5.28138780e+05],274,815.2166165376722
277,277,[-1.56752569e+03  3.59399309e+02 -7.79938585e-05  5.97910287e+04],62,815.1984423553902
278,278,[-1.89417725e+03  3.59399314e+02 -8.46071660e-05  4.34703376e+04],25,813.8559864419566
279,279,[-1.67752639e+03  3.59399321e+02 -7.55458617e-05  7.60326940e+04],163,815.7124012834033
280,280,[-1.81965071e+03  3.59399330e+02 -7.66315281e-05  2.80453708e+05],110,814.9197645191034
281,281,[-1.67535767e+03  3.59399305e+02 -8.52248944e-05  7.27290374e+04],214,813.1384970326179
282,282,[-1.89698776e+03  3.59399406e+02 -8.21083589e-05  2.99776860e+05],497,815.1692822769146
283,283,[-1.47777161e+03  3.59399284e+02 -7.78476664e-05  9.08197214e+05],17,814.0460888439335
284,284,[-1.71615243e+03  3.59399313e+02 -7.43625639e-05  4.22169541e+04],623,815.192779372529
285,285,[-1.83508728e+03  3.59399319e+02 -7.92466275e-05  6.95217549e+04],584,815.9433581379126
286,286,[-1.79151981e+03  3.59399319e+02 -7.40168957e-05  5.89448186e+04],21,815.7712434612865
287,287,[-1.86139405e+03  3.59399311e+02 -7.63085772e-05  4.94655957e+04],585,814.5334618373196
288,288,[-1.65142014e+03  3.59399322e+02 -9.97890762e-05  1.39528875e+05],24,813.8363420190411
289,289,[-1.85706513e+03  3.59399311e+02 -7.42186936e-05  4.77574169e+04],756,815.189864657603
290,290,[-1.69921493e+03  3.59399310e+02 -7.83367914e-05  4.94873807e+04],322,815.2035421029202
291,291,[-1.75351307e+03  3.59399314e+02 -7.92994263e-05  4.84222070e+04],403,815.2555648651596
292,292,[-1.70402296e+03  3.59399327e+02 -8.19831593e-05  2.23890547e+05],176,815.1285039967918
293,293,[-1.95888062e+03  3.59399323e+02 -8.20367818e-05  8.83184139e+04],326,815.3936222016002
294,294,[-1.71031503e+03  3.59399317e+02 -7.41216188e-05  7.93812068e+04],227,814.9588141784109
295,295,[-1.87625315e+03  3.59399311e+02 -8.26583268e-05  5.03248554e+04],229,814.3104613889951
296,296,[-1.71776819e+03  3.59399314e+02 -8.73644822e-05  6.91405132e+04],662,813.9010868141011
297,297,[-1.47064647e+03  3.59399315e+02 -8.14228971e-05  6.85295433e+04],312,814.7267123432782
298,298,[-1.76190164e+03  3.59399317e+02 -8.33045556e-05  3.95373692e+04],329,814.8905343031205
299,299,[-1.91394167e+03  3.59399307e+02 -9.30975355e-05  6.21269712e+04],155,811.767598181124
300,300,[-1.72693473e+03  3.59399306e+02 -1.03724427e-04  6.10754035e+04],501,811.0284912565415
301,301,[-1.75222084e+03  3.59399437e+02 -7.08288946e-05  3.78002895e+05],534,814.7106300449883
302,302,[-1.77492978e+03  3.59399325e+02 -9.13452110e-05  1.32668668e+05],765,813.752679516673
303,303,[-1.62224890e+03  3.59399309e+02 -8.48485772e-05  5.44508791e+04],144,815.764276669833
304,304,[-1.69599320e+03  3.59399313e+02 -8.08460787e-05  4.56187441e+04],564,814.6486946747923
305,305,[-1.69938354e+03  3.59399317e+02 -8.33925334e-05  3.40387876e+04],360,814.3117699614285
306,306,[-1.95808028e+03  3.59399315e+02 -7.06341366e-05  6.51840915e+04],812,814.5417085256686
307,307,[-1.68436981e+03  3.59399302e+02 -8.24265255e-05  5.25983576e+04],595,815.0688760682685
308,308,[-1.50571487e+03  3.59399310e+02 -8.25231498e-05  5.11495173e+04],294,814.9360477931613
309,309,[-1.87223133e+03  3.59399311e+02 -7.54127943e-05  4.82991728e+04],627,814.6289686965013
310,310,[-1.79102323e+03  3.59399316e+02 -8.08221226e-05  6.46747411e+04],75,815.3629171489697
311,311,[-1.63118438e+03  3.59399309e+02 -7.44489946e-05  5.50404501e+04],411,815.7051233233984
312,312,[-1.90092805e+03  3.59399318e+02 -8.43872052e-05  8.19623869e+04],602,814.9791519994902
313,313,[-1.91771922e+03  3.59399309e+02 -8.61861071e-05  5.35982683e+04],615,814.4284258067687
314,314,[-1.71176043e+03  3.59399309e+02 -8.29422252e-05  5.50846324e+04],376,814.9387477436624
315,315,[-1.82478266e+03  3.59399313e+02 -7.50879527e-05  6.77679819e+04],261,813.3621792502081
316,316,[-1.85067578e+03  3.59399488e+02 -8.63448233e-05  5.30955536e+05],626,814.8337095626613
317,317,[-2.00791604e+03  3.59399323e+02 -8.30074081e-05  1.29937946e+05],621,813.7615708467083
318,318,[-1.66565062e+03  3.59399309e+02 -7.49564899e-05  5.44301839e+04],220,815.2226731972111
319,319,[-1.83734504e+03  3.59399309e+02 -8.81762061e-05  5.49424425e+04],711,814.672744478917
320,320,[-1.82597445e+03  3.59399307e+02 -9.67354863e-05  5.93613759e+04],314,814.2724470638336
321,321,[-1.48055777e+03  3.59399306e+02 -9.26331274e-05  6.03784583e+04],409,813.5246301429913
322,322,[-1.56894547e+03  3.59399306e+02 -8.20274080e-05  5.99091322e+04],308,815.0006975591934
323,323,[-1.66118762e+03  3.59399314e+02 -7.69013492e-05  7.89514541e+04],796,815.3677927854197
324,324,[-1.85910682e+03  3.59399405e+02 -7.75162136e-05  3.02480151e+05],784,815.7801636637811
325,325,[-1.96331691e+03  3.59399315e+02 -7.75702150e-05  6.63826718e+04],250,815.0345418878244
326,326,[-1.93195860e+03  3.59399311e+02 -8.92813438e-05  4.88031224e+04],408,814.9937793034502
327,327,[-1.99042249e+03  3.59399314e+02 -8.24125015e-05  5.24737240e+04],650,814.3620349033823
328,328,[-1.27835864e+03  3.59399321e+02 -6.54936873e-05  2.82829078e+04],731,810.5553605734007
329,329,[-2.02165765e+03  3.59399322e+02 -8.01698259e-05  1.01329484e+05],806,814.976499999445
330,330,[-1.85764479e+03  3.59399308e+02 -8.16588840e-05  5.74212744e+04],429,815.4477311226692
331,331,[-1.97797307e+03  3.59399478e+02 -8.46946519e-05  7.29515192e+05],335,814.8221312599463
332,332,[-1.75608122e+03  3.59399316e+02 -8.77227433e-05  5.93423341e+04],645,814.6975458713604
333,333,[-1.91504933e+03  3.59399297e+02 -8.39677418e-05  7.78194876e+04],280,814.6311555150983
334,334,[-2.09379800e+03  3.59399510e+02 -8.14939080e-05  5.91994863e+05],232,814.5963300162545
335,335,[-1.78402580e+03  3.59399321e+02 -8.38988904e-05  1.30173999e+05],541,814.9222332336085
336,336,[-1.67136420e+03  3.59399307e+02 -9.33696009e-05  5.99981365e+04],260,814.6473105893378
337,337,[-1.47390636e+03  3.59399311e+02 -7.94732970e-05  4.97026271e+04],96,814.0964704182328
338,338,[-1.82587114e+03  3.59399697e+02 -7.14235257e-05  7.37963183e+05],749,815.081246776607
339,339,[-1.81411559e+03  3.59399314e+02 -8.29497080e-05  6.73951814e+04],217,815.851180423012
340,340,[-1.75643067e+03  3.59399312e+02 -7.44512373e-05  4.72322708e+04],357,815.1129879182271
341,341,[-1.59707944e+03  3.59399287e+02 -8.62769149e-05  4.60488206e+04],458,815.11418414533
342,342,[-2.13609948e+03  3.59399310e+02 -8.57106489e-05  5.37850498e+04],258,813.6534876809402
343,343,[-1.61447263e+03  3.59399310e+02 -7.94129646e-05  5.14349654e+04],733,814.7910182855392
344,344,[-1.82250832e+03  3.59399313e+02 -7.97080955e-05  4.47285628e+04],216,815.1246486917952
345,345,[-1.87782749e+03  3.59399313e+02 -7.79264439e-05  4.26004356e+04],298,815.1333283233124
346,346,[-1.80607533e+03  3.59399311e+02 -8.07543979e-05  5.02340108e+04],546,814.7787364213689
347,347,[-1.76848147e+03  3.59399416e+02 -7.55742048e-05  2.94493405e+05],223,815.5869238169394
348,348,[-1.86871371e+03  3.59399310e+02 -7.85740916e-05  5.18078794e+04],705,815.6921814343328
349,349,[-1.92031994e+03  3.59399316e+02 -8.24887178e-05  5.83434868e+04],230,815.1647594319286
350,350,[-1.82990902e+03  3.59399313e+02 -9.16832403e-05  6.61629104e+04],384,815.0942225084767
351,351,[-1.95325913e+03  3.59399310e+02 -7.19753242e-05  3.67188984e+04],767,815.0541995296724
352,352,[-1.81106959e+03  3.59399309e+02 -8.48004677e-05  5.96309267e+04],559,815.2636350929488
353,353,[-1.61378297e+03  3.59399324e+02 -8.50684145e-05  2.52202452e+05],400,813.2658880829604
354,354,[-1.50051777e+03  3.59399312e+02 -7.74944262e-05  4.70587328e+04],713,815.2851944580718
355,355,[-1.93960021e+03  3.59399310e+02 -8.59103499e-05  5.31652244e+04],138,813.1907252930154
356,356,[-1.86113125e+03  3.59399309e+02 -7.47359129e-05  5.62402172e+04],419,814.5641886913056
357,357,[-1.98279309e+03  3.59399414e+02 -8.36761436e-05  7.00904271e+05],581,814.9029644814599
358,358,[-1.86071893e+03  3.59399316e+02 -7.41086158e-05  6.10324640e+04],794,815.3028358157261
359,359,[-2.21295767e+03  3.59399312e+02 -7.55571861e-05  4.38401579e+04],130,813.353323240312
360,360,[-1.96127726e+03  3.59399315e+02 -9.35580865e-05  6.03888279e+04],437,814.9638381887623
361,361,[-1.88637371e+03  3.59399307e+02 -7.94892413e-05  7.46157643e+04],442,815.0460103589369
362,362,[-1.74204530e+03  3.59399520e+02 -7.61052477e-05  7.41580762e+05],730,815.4695072852852
363,363,[-1.85286495e+03  3.59399318e+02 -9.20978635e-05  9.77033738e+04],222,814.7942068131766
364,364,[-1.73013333e+03  3.59399322e+02 -7.84434685e-05  6.64028064e+04],225,815.610668259454
365,365,[-1.77224948e+03  3.59399311e+02 -8.61213611e-05  1.07634679e+05],67,814.2393868142619
366,366,[-1.85967665e+03  3.59399524e+02 -8.82949137e-05  4.90604338e+05],126,814.3625741958208
367,367,[-1.78015851e+03  3.59399326e+02 -8.00101667e-05  1.51593481e+05],316,814.1863730424323
368,368,[-2.04209176e+03  3.59399316e+02 -6.91501769e-05  3.89372655e+04],775,814.5395633013444
369,369,[-1.81353090e+03  3.59399317e+02 -7.46893442e-05  7.50191392e+04],135,815.9253007288653
370,370,[-2.05270645e+03  3.59399312e+02 -8.27287770e-05  4.95898462e+04],811,815.0938354443252
371,371,[-1.59734473e+03  3.59399307e+02 -7.94804571e-05  6.03924812e+04],453,815.6561043442915
372,372,[-2.06877324e+03  3.59399310e+02 -7.80427695e-05  4.07159685e+04],331,814.2901918541908
373,373,[-1.84158723e+03  3.59399309e+02 -8.31448247e-05  5.78385389e+04],218,814.6662372732898
374,374,[-1.99730887e+03  3.59399312e+02 -8.93157541e-05  4.83664824e+04],669,813.927502919066
375,375,[-1.91917078e+03  3.59399312e+02 -8.41610123e-05  4.74646399e+04],696,814.0491819825503
376,376,[-1.92688967e+03  3.59399306e+02 -9.02400938e-05  4.70540914e+04],117,814.9457623125583
377,377,[-1.96278281e+03  3.59399312e+02 -6.91646913e-05  4.47220034e+04],691,814.3094925326982
378,378,[-1.79788193e+03  3.59399325e+02 -8.32303513e-05  1.07853604e+05],190,814.5588874830964
379,379,[-1.77547664e+03  3.59399310e+02 -7.80996092e-05  5.26122907e+04],119,814.7063372614206
380,380,[-1.88765199e+03  3.59399312e+02 -7.81978761e-05  4.70600033e+04],90,815.312845172818
381,381,[-1.99217649e+03  3.59399322e+02 -6.89787231e-05  6.19193392e+04],57,814.303703328578
382,382,[-1.72574996e+03  3.59399317e+02 -8.26015678e-05  1.10146980e+05],504,814.5195366288882
383,383,[-1.71679759e+03  3.59399320e+02 -7.88545918e-05  1.11398642e+05],770,815.1049078949766
384,384,[-1.98027756e+03  3.59399457e+02 -8.32636087e-05  8.11398396e+05],363,814.874731543164
385,385,[-1.81566429e+03  3.59399326e+02 -8.76174028e-05  1.70130685e+05],97,815.6235014984056
386,386,[-1.87155675e+03  3.59399311e+02 -8.12427561e-05  5.10797493e+04],535,815.3112787733974
387,387,[-1.96587116e+03  3.59399312e+02 -8.44846094e-05  5.70514463e+04],527,814.6585005180019
388,388,[-1.76374125e+03  3.59399311e+02 -8.89379670e-05  5.46177888e+04],343,813.5947366145668
389,389,[-1.73815088e+03  3.59399310e+02 -7.55833479e-05  5.31719485e+04],679,815.9444380626694
390,390,[-1.76055125e+03  3.59399459e+02 -8.38959303e-05  7.98075966e+05],392,815.3561237255196
391,391,[-1.83101470e+03  3.59399523e+02 -9.05038935e-05  6.13775916e+05],779,814.0028290431935
392,392,[-1.79683402e+03  3.59399329e+02 -7.96032047e-05  3.14982086e+05],781,814.7894501354667
393,393,[-2.20217463e+03  3.59399295e+02 -8.31589137e-05  7.17113597e+04],680,814.7432357803206
394,394,[-1.84130489e+03  3.59399311e+02 -8.18631451e-05  5.21037603e+04],42,815.1585665465475
395,395,[-1.86028870e+03  3.59399448e+02 -7.16123221e-05  2.88378934e+05],18,813.2476038419481
396,396,[-1.86151228e+03  3.59399308e+02 -9.04934924e-05  5.90379529e+04],346,814.2849701193493
397,397,[-1.62339054e+03  3.59399488e+02 -8.27828444e-05  6.23782211e+05],557,815.3354017985179
398,398,[-1.75284078e+03  3.59399514e+02 -8.47580161e-05  6.60408404e+05],38,815.6353081939142
399,399,[-1.63331970e+03  3.59399318e+02 -9.10132183e-05  8.58841461e+04],64,814.2491918454557
400,400,[-1.98110762e+03  3.59399311e+02 -8.23882228e-05  5.12302398e+04],467,814.8614347536962
401,401,[-1.86879685e+03  3.59399314e+02 -7.69348828e-05  7.45779397e+04],36,813.7342660220359
402,402,[-1.86753474e+03  3.59399325e+02 -9.00825364e-05  1.17379684e+05],744,815.435601329324
403,403,[-1.85080941e+03  3.59399310e+02 -8.68331006e-05  5.42332280e+04],238,814.9979425004037
404,404,[-1.99210430e+03  3.59399308e+02 -7.03455707e-05  3.90135861e+04],790,814.0849905732076
405,405,[-1.75026937e+03  3.59399312e+02 -9.89839346e-05  9.49860484e+04],454,813.5987898541599
406,406,[-1.60977894e+03  3.59399319e+02 -1.00185868e-04  1.15310265e+05],641,812.662353537773
407,407,[-2.14846750e+03  3.59399303e+02 -8.04394902e-05  3.87687718e+04],698,813.7769374938025
408,408,[-2.03651198e+03  3.59399312e+02 -7.47589525e-05  4.76859373e+04],79,814.9294328801464
409,409,[-1.59228860e+03  3.59399313e+02 -7.76482011e-05  4.78125660e+04],133,814.9369494034325
410,410,[-2.18599545e+03  3.59399313e+02 -8.05128274e-05  7.54332078e+04],642,810.9209967681594
411,411,[-1.55921203e+03  3.59399310e+02 -8.53958201e-05  5.55157062e+04],612,814.9515138875798
412,412,[-1.91818055e+03  3.59399308e+02 -7.39792647e-05  5.93235574e+04],472,815.3090715449947
413,413,[-1.89165923e+03  3.59399326e+02 -7.76305143e-05  1.98402464e+05],114,814.5791952073216
414,414,[-1.96484596e+03  3.59399513e+02 -7.56970623e-05  4.92710580e+05],393,815.2989694959206
415,415,[-1.92720477e+03  3.59399298e+02 -8.43630759e-05  1.26209823e+05],269,815.6145855253559
416,416,[-1.90542630e+03  3.59399317e+02 -8.62623892e-05  9.68601504e+04],148,814.5744632440482
417,417,[-1.65325222e+03  3.59399318e+02 -8.86318953e-05  7.22221285e+04],189,815.1561107498356
418,418,[-1.65830082e+03  3.59399313e+02 -8.22581947e-05  7.33382979e+04],297,814.0680809474741
419,419,[-1.96838897e+03  3.59399311e+02 -8.02039240e-05  5.19423225e+04],539,814.8535857451589
420,420,[-1.86895986e+03  3.59399313e+02 -7.75826447e-05  4.86664604e+04],463,815.7414610603868
421,421,[-1.78188696e+03  3.59399318e+02 -7.24072367e-05  9.82716621e+04],301,814.5376527469251
422,422,[-1.82646330e+03  3.59399313e+02 -7.61536263e-05  4.58716542e+04],379,815.9632909440603
423,423,[-1.87653894e+03  3.59399313e+02 -7.92406022e-05  4.44551156e+04],562,814.5602210835431
424,424,[-1.54133255e+03  3.59399310e+02 -8.69770986e-05  5.36757574e+04],747,813.9865665111422
425,425,[-1.85041469e+03  3.59399627e+02 -8.67095015e-05  7.11186733e+05],762,815.2079825794249
426,426,[-1.94324143e+03  3.59399308e+02 -7.89221838e-05  5.83635829e+04],332,815.402921898483
427,427,[-1.70950594e+03  3.59399306e+02 -8.16844372e-05  7.24666400e+04],89,815.5117338741088
428,428,[-2.04326231e+03  3.59399307e+02 -8.11263985e-05  4.95692515e+04],759,814.6880442457499
429,429,[-1.75955792e+03  3.59399311e+02 -7.70048826e-05  5.27950567e+04],738,814.9224931177453
430,430,[-1.75135300e+03  3.59399322e+02 -7.77537761e-05  9.14149556e+04],167,815.8395395301828
431,431,[-1.81280659e+03  3.59399312e+02 -7.47147686e-05  4.95802688e+04],61,815.1628783321785
432,432,[-1.46272238e+03  3.59399316e+02 -8.35608393e-05  6.55764976e+04],428,813.9681292750442
433,433,[-1.84383131e+03  3.59399310e+02 -8.17804464e-05  5.49799182e+04],780,814.3696430672782
434,434,[-1.78287521e+03  3.59399310e+02 -7.25148376e-05  5.62053924e+04],693,814.4781343726431
435,435,[-1.74835506e+03  3.59399311e+02 -7.79136056e-05  5.15116149e+04],15,815.3785490499505
436,436,[-1.46463446e+03  3.59399327e+02 -6.49628858e-05  1.13621669e+05],592,813.2369135717971
437,437,[-1.73119077e+03  3.59399311e+02 -7.40622260e-05  5.09567591e+04],319,814.8482651987008
438,438,[-1.99467459e+03  3.59399310e+02 -8.00220437e-05  5.19825765e+04],72,815.144680885425
439,439,[-1.78844316e+03  3.59399531e+02 -7.47163906e-05  6.19831525e+05],580,815.3865391559208
440,440,[-1.78642088e+03  3.59399314e+02 -7.28007875e-05  6.12733796e+04],491,815.2379970384791
441,441,[-1.55912459e+03  3.59399310e+02 -8.26613560e-05  5.61171431e+04],597,815.4131176504748
442,442,[-1.92402369e+03  3.59399311e+02 -8.20824933e-05  5.24482297e+04],553,814.8418487299724
443,443,[-1.76745066e+03  3.59399327e+02 -7.38106980e-05  2.27809287e+05],373,814.4408500364659
444,444,[-1.82377284e+03  3.59399312e+02 -7.62023672e-05  5.20635879e+04],164,815.3384500401987
445,445,[-1.88079544e+03  3.59399310e+02 -8.02085064e-05  5.62209040e+04],121,814.6551248531408
446,446,[-1.75105767e+03  3.59399319e+02 -7.46837599e-05  1.00511461e+05],188,814.6073526994351
447,447,[-1.82791623e+03  3.59399308e+02 -8.83310038e-05  6.16792222e+04],387,815.0494746775732
448,448,[-1.65160192e+03  3.59399309e+02 -8.02087830e-05  5.55979530e+04],445,815.0800251116027
449,449,[-2.18801795e+03  3.59399474e+02 -7.53607689e-05  6.76057176e+05],509,813.1242774666885
450,450,[-1.97781570e+03  3.59399312e+02 -8.38848775e-05  6.33359276e+04],763,815.406072928196
451,451,[-2.15904800e+03  3.59399422e+02 -7.36681699e-05  3.67425785e+05],304,814.1140517950068
452,452,[-1.86694345e+03  3.59399507e+02 -7.56989230e-05  7.50644359e+05],178,815.065891564372
453,453,[-1.90546825e+03  3.59399319e+02 -8.38948943e-05  9.83143236e+04],336,814.8235431230669
454,454,[-1.95705178e+03  3.59399314e+02 -8.02127675e-05  6.41683406e+04],774,814.7591708048888
455,455,[-1.94092707e+03  3.59399323e+02 -8.08866540e-05  1.13401444e+05],231,814.5497822827577
456,456,[-1.91395982e+03  3.59399310e+02 -8.36724073e-05  5.81527882e+04],115,814.6207971248158
457,457,[-1.87640453e+03  3.59399311e+02 -8.77647515e-05  5.38848678e+04],644,814.165068234297
458,458,[-1.76767242e+03  3.59399327e+02 -8.35485708e-05  2.00232546e+05],333,814.9015397592358
459,459,[-1.56427930e+03  3.59399326e+02 -7.57930734e-05  1.45406884e+05],574,810.7286250725297
460,460,[-1.59921375e+03  3.59399321e+02 -8.45272777e-05  8.13955990e+04],309,813.9922765503007
461,461,[-1.55227811e+03  3.59399307e+02 -9.53350120e-05  6.47647465e+04],544,813.5966271497115
462,462,[-1.86088384e+03  3.59399327e+02 -7.92184408e-05  2.19731129e+05],715,813.8531288851417
463,463,[-1.73874524e+03  3.59399305e+02 -8.33334071e-05  7.24393666e+04],183,814.7243210353323
464,464,[-1.79591389e+03  3.59399301e+02 -8.79620408e-05  4.84530511e+04],593,813.5604190591235
465,465,[-1.69202576e+03  3.59399317e+02 -6.88917325e-05  6.31256349e+04],456,814.5867318152547
466,466,[-1.78085373e+03  3.59399569e+02 -8.29506417e-05  8.37832100e+05],498,815.1274960226345
467,467,[-1.64346412e+03  3.59399327e+02 -8.66726385e-05  1.83045203e+05],87,814.7640804798722
468,468,[-1.77468403e+03  3.59399309e+02 -8.19584358e-05  5.87795684e+04],28,814.5838317401765
469,469,[-1.85048500e+03  3.59399547e+02 -9.75042538e-05  6.97595389e+05],446,812.5430297914874
470,470,[-1.93612553e+03  3.59399312e+02 -7.24167479e-05  4.87282354e+04],630,813.4497744286758
471,471,[-1.67078628e+03  3.59399298e+02 -7.97864670e-05  3.42905528e+04],272,815.7451705818198
472,472,[-1.88878624e+03  3.59399309e+02 -8.66815105e-05  5.74883699e+04],732,814.7518764891271
473,473,[-1.76237804e+03  3.59399319e+02 -9.17975477e-05  8.92137838e+04],742,814.4319792068818
474,474,[-1.92303582e+03  3.59399485e+02 -8.41249111e-05  7.84578501e+05],334,815.0805429631615
475,475,[-1.81774376e+03  3.59399515e+02 -9.25477275e-05  6.42923046e+05],122,814.27394861496
476,476,[-1.75169776e+03  3.59399316e+02 -8.02621916e-05  8.01445999e+04],637,813.5155853346129
477,477,[-1.88993632e+03  3.59399311e+02 -7.83300089e-05  5.30509247e+04],248,815.3490045315136
478,478,[-1.81042283e+03  3.59399317e+02 -8.42297808e-05  8.71967003e+04],816,813.6807042271532
479,479,[-1.67771029e+03  3.59399312e+02 -8.31243893e-05  4.83865711e+04],234,811.4807390876548
480,480,[-1.57857905e+03  3.59399312e+02 -7.99476597e-05  5.04264312e+04],465,813.0962252035615
481,481,[-1.77331501e+03  3.59399311e+02 -8.12832298e-05  5.25650739e+04],273,812.3100408049742
482,482,[-1.50731630e+03  3.59399312e+02 -8.34166208e-05  5.01141220e+04],468,814.4333358122543
483,483,[-1.74057430e+03  3.59399328e+02 -8.38469774e-05  1.04376246e+05],617,813.3216558098363
484,484,[-1.76483682e+03  3.59399308e+02 -8.83753538e-05  5.98506386e+04],34,814.3645081242961
485,485,[-1.83782479e+03  3.59399321e+02 -7.31138163e-05  1.03973794e+05],606,812.8525660328905
486,486,[-1.69308530e+03  3.59399303e+02 -8.66530641e-05  7.17826218e+04],776,813.4960150120231
487,487,[-1.64494542e+03  3.59399309e+02 -8.56903941e-05  5.97685408e+04],413,812.7793198914911
488,488,[-1.57928825e+03  3.59399319e+02 -1.01092765e-04  6.83923098e+04],560,808.1685584370022
489,489,[-1.75837776e+03  3.59399308e+02 -8.63348770e-05  6.33458022e+04],416,811.6951219448889
490,490,[-1.86020957e+03  3.59399325e+02 -6.30205689e-05  8.87108242e+04],514,811.6606418809979
491,491,[-1.63825816e+03  3.59399312e+02 -6.97379927e-05  5.18118710e+04],199,814.6688533721996
492,492,[-1.75821693e+03  3.59399322e+02 -8.13448927e-05  8.57882334e+04],690,815.3092122560237
493,493,[-1.63660061e+03  3.59399312e+02 -8.60083236e-05  6.16935609e+04],356,813.6613206464641
494,494,[-1.71144006e+03  3.59399303e+02 -7.92950539e-05  4.83057179e+04],423,813.2005912855986
495,495,[-1.63646266e+03  3.59399326e+02 -8.07059768e-05  2.42339069e+05],378,814.283528463553
496,496,[-1.74511284e+03  3.59399327e+02 -8.83166734e-05  1.12746212e+05],84,815.9631866862525
497,497,[-1.79482511e+03  3.59399314e+02 -7.97448815e-05  7.23532133e+04],124,815.0156071823242
498,498,[-1.92057852e+03  3.59399312e+02 -7.55267372e-05  5.00372929e+04],543,814.6147833578125
499,499,[-1.86262358e+03  3.59399320e+02 -8.56165981e-05  6.09065403e+04],741,815.0418464130755
500,500,[-1.70842002e+03  3.59399313e+02 -8.29524939e-05  4.79479298e+04],111,814.4288233796211
501,501,[-1.94190185e+03  3.59399477e+02 -7.76229070e-05  8.57916896e+05],455,814.9732173092277
502,502,[-1.87908329e+03  3.59399311e+02 -7.93025169e-05  5.24683677e+04],563,815.3112120985653
503,503,[-1.78799251e+03  3.59399406e+02 -8.52302715e-05  3.92989450e+05],59,814.2748916682913
504,504,[-1.77443121e+03  3.59399310e+02 -7.74524772e-05  5.33849616e+04],306,814.8094561290102
505,505,[-1.88034862e+03  3.59399323e+02 -8.57071919e-05  1.09463673e+05],368,815.4287852698429
506,506,[-1.65828808e+03  3.59399312e+02 -8.39324764e-05  6.38214537e+04],421,815.1621052663907
507,507,[-1.70516275e+03  3.59399328e+02 -8.50368629e-05  2.83698076e+05],219,815.2678732962747
508,508,[-1.56951755e+03  3.59399324e+02 -8.90685179e-05  1.05539005e+05],287,814.251776379646
509,509,[-1.78989932e+03  3.59399313e+02 -8.98542546e-05  4.75865774e+04],699,814.6494297004584
510,510,[-1.89288953e+03  3.59399309e+02 -1.01178975e-04  6.00724908e+04],570,813.7613668634249
511,511,[-2.12660292e+03  3.59399310e+02 -8.11547099e-05  5.35647460e+04],382,814.1015614307822
512,512,[-1.96730570e+03  3.59399316e+02 -8.60568922e-05  7.16772141e+04],200,814.4712934226579
513,513,[-1.67337573e+03  3.59399363e+02 -7.59008014e-05  1.87116993e+05],681,815.4910491321651
514,514,[-1.99169143e+03  3.59399309e+02 -8.76668998e-05  5.83180857e+04],233,814.573782620714
515,515,[-1.80042004e+03  3.59399321e+02 -9.47389468e-05  1.23921046e+05],56,813.5495275221782
516,516,[-2.01692135e+03  3.59399401e+02 -8.10058206e-05  3.26697243e+05],771,815.2586360477771
517,517,[-1.83303523e+03  3.59399508e+02 -8.71580753e-05  7.53457157e+05],70,814.4288929615609
518,518,[-1.72397475e+03  3.59399315e+02 -8.63041087e-05  6.30933062e+04],27,813.6893670620434
519,519,[-1.66587624e+03  3.59399310e+02 -7.56981713e-05  5.35641544e+04],251,814.1876412626237
520,520,[-1.72250120e+03  3.59399306e+02 -8.49484769e-05  7.12990934e+04],782,815.8069988798261
521,521,[-1.85201817e+03  3.59399566e+02 -7.75964447e-05  6.97793931e+05],33,815.5490132349846
522,522,[-1.96822858e+03  3.59399312e+02 -8.45223316e-05  5.31661415e+04],588,815.6572028494071
523,523,[-1.69377759e+03  3.59399311e+02 -7.83393027e-05  5.40431251e+04],259,815.2515958549336
524,524,[-1.72857283e+03  3.59399314e+02 -7.60041289e-05  4.53737342e+04],434,815.0895649161187
525,525,[-1.43811836e+03  3.59399324e+02 -8.31388313e-05  8.83960701e+04],113,814.3724625995254
526,526,[-1.57177381e+03  3.59399318e+02 -7.17137314e-05  5.60340105e+04],571,813.6359515379654
527,527,[-1.73518019e+03  3.59399320e+02 -7.09527465e-05  7.72144835e+04],512,814.79124793831
528,528,[-1.93628697e+03  3.59399568e+02 -8.44364624e-05  8.04328045e+05],242,815.5816474202229
529,529,[-1.75506800e+03  3.59399309e+02 -9.33461824e-05  5.94090598e+04],132,815.3804671832621
530,530,[-1.65127830e+03  3.59399320e+02 -6.92490654e-05  7.25178710e+04],5,815.2807483912209
531,531,[-1.63185823e+03  3.59399312e+02 -7.73354540e-05  5.08267631e+04],651,814.0121848180403
532,532,[-1.55740704e+03  3.59399307e+02 -7.74514916e-05  6.98224991e+04],80,815.4976969438095
533,533,[-1.70298873e+03  3.59399311e+02 -7.18902815e-05  5.28763100e+04],244,815.7802169281886
534,534,[-1.84108788e+03  3.59399506e+02 -7.91258051e-05  5.91442414e+05],800,814.9717182017316
535,535,[-1.61030236e+03  3.59399310e+02 -7.61310595e-05  5.59538823e+04],672,814.7913472302018
536,536,[-1.79029274e+03  3.59399517e+02 -7.12094633e-05  8.18566792e+05],249,815.9120696993589
537,537,[-1.90016233e+03  3.59399310e+02 -8.70377326e-05  5.76092669e+04],596,815.5100319046771
538,538,[-1.94634078e+03  3.59399312e+02 -7.42377530e-05  4.75786724e+04],688,815.501836992522
539,539,[-1.79919699e+03  3.59399323e+02 -6.59866720e-05  8.90578813e+04],703,814.7244074322426
540,540,[-2.06488183e+03  3.59399492e+02 -7.81622506e-05  7.38434596e+05],443,815.7505136341485
541,541,[-1.71403390e+03  3.59399538e+02 -7.64581203e-05  7.54952513e+05],206,814.9156466575901
542,542,[-1.95268928e+03  3.59399322e+02 -8.82464215e-05  1.10117907e+05],137,813.5999982497653
543,543,[-1.72790378e+03  3.59399322e+02 -8.56189021e-05  9.57156683e+04],482,814.5502530435023
544,544,[-1.80625490e+03  3.59399301e+02 -8.09032092e-05  1.09101432e+05],473,814.6237637360422
545,545,[-2.02948211e+03  3.59399311e+02 -8.04698773e-05  5.14626068e+04],265,815.3567984154027
546,546,[-1.74883756e+03  3.59399329e+02 -8.29075773e-05  3.38664929e+05],748,814.883849107096
547,547,[-1.90964463e+03  3.59399311e+02 -7.52244287e-05  5.14656321e+04],139,813.5216041275061
548,548,[-1.85210498e+03  3.59399314e+02 -7.42315341e-05  5.12350504e+04],517,815.2323958926282
549,549,[-1.78057258e+03  3.59399311e+02 -8.12212800e-05  5.72041043e+04],500,814.421494627709
550,550,[-1.96007433e+03  3.59399310e+02 -7.16844668e-05  5.85762145e+04],664,813.3299918254294
551,551,[-1.73147861e+03  3.59399314e+02 -8.21063377e-05  6.52337523e+04],313,815.68798004003
552,552,[-2.04021893e+03  3.59399311e+02 -7.58011709e-05  5.24109291e+04],549,814.3855795963185
553,553,[-1.71648242e+03  3.59399309e+02 -7.44807869e-05  5.97934648e+04],71,814.6663524142798
554,554,[-2.03574615e+03  3.59399311e+02 -9.08533557e-05  4.96994139e+04],91,813.8573208066153
555,555,[-1.78670338e+03  3.59399413e+02 -8.67381183e-05  3.02735404e+05],792,813.255864940365
556,556,[-1.74966693e+03  3.59399555e+02 -7.22211749e-05  8.14262522e+05],175,815.2571458110367
557,557,[-1.83220802e+03  3.59399311e+02 -8.70293695e-05  5.46506650e+04],802,814.7717661349714
558,558,[-1.53362820e+03  3.59399311e+02 -8.55678499e-05  5.28008111e+04],639,812.589685650283
559,559,[-2.06903243e+03  3.59399308e+02 -7.54315024e-05  4.60810313e+04],552,814.8665850430172
560,560,[-1.66105128e+03  3.59399318e+02 -7.99601542e-05  8.80311465e+04],754,814.5775770264715
561,561,[-1.85520793e+03  3.59399327e+02 -7.76767136e-05  2.15543141e+05],708,815.3380829272254
562,562,[-1.93067426e+03  3.59399518e+02 -7.93601209e-05  6.77719339e+05],525,814.7049532361286
563,563,[-1.91187664e+03  3.59399460e+02 -8.73791355e-05  8.55307949e+05],433,814.5493521506137
564,564,[-1.83618028e+03  3.59399312e+02 -6.94920689e-05  4.90503654e+04],484,814.966152737163
565,565,[-1.73573408e+03  3.59399313e+02 -8.06722495e-05  4.94505738e+04],787,815.8309408438238
566,566,[-1.80750198e+03  3.59399314e+02 -8.04314578e-05  6.01602687e+04],366,816.0930475057323
567,567,[-1.48841447e+03  3.59399317e+02 -7.66235091e-05  7.85525412e+04],327,815.2589501226159
568,568,[-1.73668488e+03  3.59399547e+02 -8.21232995e-05  7.44784686e+05],653,815.1402386706684
569,569,[-1.63990913e+03  3.59399316e+02 -7.44627769e-05  7.99486791e+04],643,815.2308371297785
570,570,[-1.61782634e+03  3.59399330e+02 -7.22832938e-05  2.50957423e+05],793,814.5234292116456
571,571,[-1.96250916e+03  3.59399732e+02 -7.56184170e-05  8.63921285e+05],271,814.4718589876218
572,572,[-1.72462867e+03  3.59399308e+02 -8.77255082e-05  6.14298819e+04],722,815.5125494066672
573,573,[-1.88690058e+03  3.59399362e+02 -7.73957168e-05  1.93223966e+05],682,814.2499496070969
574,574,[-1.97652760e+03  3.59399319e+02 -7.52253321e-05  8.70030361e+04],620,814.6307084228582
575,575,[-1.90468637e+03  3.59399503e+02 -7.25570619e-05  7.89004587e+05],778,815.2831168079359
576,576,[-1.89652856e+03  3.59399315e+02 -6.45613255e-05  6.01661874e+04],658,813.0399367465033
577,577,[-1.95418528e+03  3.59399619e+02 -7.96846928e-05  7.29470522e+05],93,815.2129335418811
578,578,[-2.12020724e+03  3.59399312e+02 -7.42269112e-05  5.29916257e+04],815,814.1711181730705
579,579,[-2.12112008e+03  3.59399314e+02 -8.42520054e-05  1.03983358e+05],171,813.1418739389478
580,580,[-1.96623120e+03  3.59399311e+02 -7.82656814e-05  5.45580313e+04],795,814.6708189870515
581,581,[-1.73820467e+03  3.59399314e+02 -8.86490223e-05  1.55398637e+05],777,814.8517446134272
582,582,[-2.04425021e+03  3.59399316e+02 -7.51697682e-05  7.98151120e+04],305,813.565826801976
583,583,[-2.00413463e+03  3.59399534e+02 -7.80125750e-05  6.03378866e+05],295,815.1508540271197
584,584,[-1.72635913e+03  3.59399310e+02 -7.16450842e-05  5.72156900e+04],377,815.0105026526613
585,585,[-1.94863902e+03  3.59399475e+02 -7.58555284e-05  7.12151215e+05],53,815.0039168536777
586,586,[-1.77981130e+03  3.59399312e+02 -8.05614161e-05  5.41534670e+04],634,815.7520571801792
587,587,[-1.83909443e+03  3.59399525e+02 -7.13745363e-05  7.71910998e+05],169,815.620224818866
588,588,[-1.87989648e+03  3.59399313e+02 -8.67659353e-05  4.79974765e+04],381,814.4807541154246
589,589,[-1.77230725e+03  3.59399315e+02 -7.21919494e-05  4.79662260e+04],372,816.2270031964558
590,590,[-1.78810188e+03  3.59399322e+02 -7.61803960e-05  8.52367439e+04],396,815.7097134897451
591,591,[-1.84454358e+03  3.59399310e+02 -8.10138008e-05  5.88207356e+04],495,815.6224961630901
592,592,[-1.75665730e+03  3.59399316e+02 -7.39833874e-05  4.34128690e+04],503,814.6745428943419
593,593,[-1.81522720e+03  3.59399322e+02 -6.72122921e-05  7.53242094e+04],47,814.622132610149
594,594,[-1.91558776e+03  3.59399315e+02 -7.55464686e-05  5.18145713e+04],475,815.6765207258677
595,595,[-1.72772345e+03  3.59399323e+02 -7.79769259e-05  9.85349765e+04],320,814.9605054992547
596,596,[-1.67563130e+03  3.59399311e+02 -7.03266153e-05  5.42009893e+04],143,814.4465467173853
597,597,[-2.09592031e+03  3.59399320e+02 -7.67106113e-05  1.27905262e+05],49,814.6685092600076
598,598,[-1.47635924e+03  3.59399289e+02 -9.37160360e-05  9.00309219e+04],195,813.5989102463379
599,599,[-1.69943320e+03  3.59399374e+02 -7.74302088e-05  1.92145789e+05],717,813.9623144233747
600,600,[-1.71099176e+03  3.59399312e+02 -8.19460190e-05  5.15568459e+04],69,815.4521676554305
601,601,[-1.90744114e+03  3.59399311e+02 -7.76619270e-05  5.76860059e+04],508,815.7596606786531
602,602,[-1.91491233e+03  3.59399326e+02 -7.49085183e-05  1.51990564e+05],573,814.9498910023774
603,603,[-1.76224146e+03  3.59399309e+02 -8.05920136e-05  6.11834886e+04],399,815.236972413316
604,604,[-1.89708144e+03  3.59399315e+02 -7.99519604e-05  6.33410820e+04],649,815.2257919258203
605,605,[-1.81190310e+03  3.59399325e+02 -6.99971136e-05  1.12798185e+05],100,815.5279910177668
606,606,[-1.86517141e+03  3.59399323e+02 -7.61711572e-05  9.74365581e+04],365,814.5810597755446
607,607,[-1.88926425e+03  3.59399316e+02 -7.26589180e-05  6.26140087e+04],701,815.2622040649753
608,608,[-1.61107449e+03  3.59399310e+02 -7.55624922e-05  6.02549928e+04],31,815.4568300877738
609,609,[-1.69965205e+03  3.59399314e+02 -7.47472243e-05  6.85330901e+04],212,815.3361525730038
610,610,[-1.78865207e+03  3.59399314e+02 -7.69767392e-05  4.87587437e+04],519,815.4116026676494
611,611,[-1.77616659e+03  3.59399314e+02 -7.27907866e-05  5.13257725e+04],367,815.0554173896027
612,612,[-1.83921430e+03  3.59399315e+02 -8.09919529e-05  5.41647709e+04],758,814.7520599027112
613,613,[-1.80956735e+03  3.59399313e+02 -7.71466520e-05  5.14717787e+04],194,815.4060917791734
614,614,[-1.84106080e+03  3.59399500e+02 -7.29947713e-05  6.81912046e+05],578,815.0835860006991
615,615,[-1.69711755e+03  3.59399302e+02 -8.36639516e-05  6.63326282e+04],0,814.9479128603721
616,616,[-1.74460305e+03  3.59399315e+02 -7.42515873e-05  6.64082543e+04],457,815.3774871744547
617,617,[-1.75539890e+03  3.59399310e+02 -7.21421827e-05  5.85468336e+04],789,814.5827253058146
618,618,[-1.78579941e+03  3.59399310e+02 -8.39275778e-05  6.02992661e+04],92,815.3266443554463
619,619,[-1.90076416e+03  3.59399311e+02 -7.65453178e-05  6.22337625e+04],725,815.5338892232427
620,620,[-2.01731935e+03  3.59399321e+02 -7.79442980e-05  8.84604915e+04],791,814.3388275862384
621,621,[-1.95912796e+03  3.59399464e+02 -7.30861429e-05  8.56734490e+05],86,814.9413211030117
622,622,[-1.46381860e+03  3.59399315e+02 -6.82701144e-05  4.62493432e+04],98,812.6283929641464
623,623,[-1.85871155e+03  3.59399327e+02 -7.73379147e-05  1.15053795e+05],736,815.0114787581855
624,624,[-2.47343764e+03  3.59399317e+02 -6.84765278e-05  5.83967419e+04],761,810.7102048132724
625,625,[-1.96945816e+03  3.59399322e+02 -7.57813934e-05  7.35808777e+04],676,814.031132880899
626,626,[-1.74277081e+03  3.59399319e+02 -7.77263697e-05  6.86231825e+04],451,814.9434893192187
627,627,[-1.81435310e+03  3.59399311e+02 -7.68671116e-05  5.70127477e+04],58,814.9549844363211
628,628,[-1.86498073e+03  3.59399312e+02 -8.42468678e-05  5.33653416e+04],511,815.264197744119
629,629,[-1.97877126e+03  3.59399315e+02 -7.94650876e-05  6.35721929e+04],337,815.3972736504072
630,630,[-1.54474884e+03  3.59399324e+02 -7.17374383e-05  7.46842057e+04],247,814.6062162266107
631,631,[-2.02788602e+03  3.59399533e+02 -9.09111813e-05  7.23156736e+05],646,813.3424758145497
632,632,[-1.83862945e+03  3.59399313e+02 -7.81752519e-05  4.79885521e+04],109,815.6914308522928
633,633,[-1.65771413e+03  3.59399313e+02 -7.85458108e-05  5.00282328e+04],721,815.5738129938491
634,634,[-1.80309186e+03  3.59399315e+02 -7.09225437e-05  6.37487714e+04],45,814.3061204909711
635,635,[-1.72223911e+03  3.59399326e+02 -7.40780694e-05  1.04659006e+05],677,815.0857476795427
636,636,[-1.78924997e+03  3.59399311e+02 -7.23263089e-05  5.62582744e+04],404,815.1198383602506
637,637,[-2.00929550e+03  3.59399442e+02 -7.96985312e-05  4.28092495e+05],104,814.5932027949394
638,638,[-1.92323370e+03  3.59399314e+02 -7.94311443e-05  4.83378907e+04],209,813.9657760640301
639,639,[-1.67702253e+03  3.59399313e+02 -7.95075318e-05  5.25157631e+04],418,814.3891949202281
640,640,[-1.54478224e+03  3.59399311e+02 -8.90954540e-05  5.62989534e+04],46,813.277630559459
641,641,[-1.81675742e+03  3.59399314e+02 -7.15455607e-05  4.94092114e+04],255,814.7590647176894
642,642,[-1.91218849e+03  3.59399314e+02 -7.08769360e-05  4.89219781e+04],63,814.7558087771504
643,643,[-1.80648579e+03  3.59399309e+02 -7.04823724e-05  6.42061733e+04],375,814.3585880843929
644,644,[-2.01857390e+03  3.59399527e+02 -8.01626342e-05  7.36330375e+05],283,814.633651839183
645,645,[-1.74332205e+03  3.59399356e+02 -7.25780402e-05  1.76291964e+05],51,814.9203268637506
646,646,[-1.86800591e+03  3.59399311e+02 -7.37385149e-05  5.63497064e+04],625,814.0937267239608
647,647,[-1.97942032e+03  3.59399546e+02 -7.99951724e-05  6.95359812e+05],809,815.9324171490412
648,648,[-1.87557951e+03  3.59399318e+02 -7.56013546e-05  8.68008433e+04],531,815.3798463137978
649,649,[-1.76414538e+03  3.59399310e+02 -7.37792062e-05  5.89330530e+04],145,814.2449977616634
650,650,[-2.04674449e+03  3.59399456e+02 -7.20396679e-05  5.57936151e+05],40,814.9259528229351
651,651,[-1.91837144e+03  3.59399312e+02 -6.85067110e-05  3.80232057e+04],391,814.4587959807074
652,652,[-1.96825373e+03  3.59399314e+02 -7.41421181e-05  5.08360926e+04],760,812.9497498046793
653,653,[-2.03861939e+03  3.59399508e+02 -7.40978611e-05  7.82468384e+05],724,814.3598479087804
654,654,[-1.90556287e+03  3.59399313e+02 -6.53196091e-05  5.21278195e+04],95,813.3486316826629
655,655,[-1.94534022e+03  3.59399405e+02 -7.20554432e-05  5.15836999e+05],460,813.7309979836155
656,656,[-2.09118943e+03  3.59399323e+02 -6.63477668e-05  6.07051508e+04],817,813.4115136550602
657,657,[-1.68948034e+03  3.59399312e+02 -7.06043653e-05  5.02935814e+04],424,813.3146979634768
658,658,[-1.84090555e+03  3.59399312e+02 -7.19570456e-05  5.34563406e+04],35,814.3281238963586
659,659,[-1.83014001e+03  3.59399319e+02 -7.44299652e-05  8.74612439e+04],432,813.8536153269698
660,660,[-2.02627779e+03  3.59399623e+02 -6.94358328e-05  2.02756236e+05],638,813.2918472668603
661,661,[-1.98259081e+03  3.59399495e+02 -6.96825722e-05  8.18484805e+05],599,812.9255511469997
662,662,[-1.88014447e+03  3.59399563e+02 -7.98508042e-05  7.38707241e+05],755,814.9809125340126
663,663,[-2.14683606e+03  3.59399694e+02 -6.67798404e-05  1.61056557e+06],174,811.9171799807946
664,664,[-1.86341379e+03  3.59399316e+02 -8.61196198e-05  7.80149982e+04],745,814.4287059612647
665,665,[-1.78016190e+03  3.59399311e+02 -7.27879168e-05  4.17504041e+04],710,813.6701725156771
666,666,[-1.75479732e+03  3.59399320e+02 -7.13868496e-05  7.89249219e+04],374,813.7021439038972
667,667,[-1.88178838e+03  3.59399507e+02 -6.97280159e-05  8.25718868e+05],78,812.1897095023751
668,668,[-1.53931424e+03  3.59399316e+02 -8.34272713e-05  4.96066774e+04],673,813.6364032569692
669,669,[-1.85461231e+03  3.59399310e+02 -9.30535397e-05  6.07538096e+04],152,814.8214806320555
670,670,[-1.90705240e+03  3.59399312e+02 -6.16606173e-05  5.41219314e+04],296,811.2425121794223
671,671,[-2.13972465e+03  3.59399309e+02 -8.21418093e-05  5.35222704e+04],52,813.6178177438848
672,672,[-1.70774337e+03  3.59399318e+02 -7.21573836e-05  6.40181995e+04],757,814.4481015747514
673,673,[-1.93152883e+03  3.59399311e+02 -7.35077615e-05  5.50269860e+04],192,813.9104018761606
674,674,[-2.08925124e+03  3.59399313e+02 -7.48511023e-05  4.39772073e+04],813,813.568659186749
675,675,[-1.45576281e+03  3.59399311e+02 -7.94693766e-05  5.51014079e+04],12,812.7665388202382
676,676,[-1.88176177e+03  3.59399448e+02 -8.21453753e-05  6.79822533e+05],554,814.1142405205187
677,677,[-1.66245177e+03  3.59399315e+02 -8.05765358e-05  6.27004225e+04],257,814.0852629135602
678,678,[-1.91355559e+03  3.59399316e+02 -7.47763876e-05  6.41570219e+04],278,815.3531362168723
679,679,[-1.87199038e+03  3.59399311e+02 -7.98800045e-05  5.69405989e+04],659,814.79092970214
680,680,[-1.85314097e+03  3.59399317e+02 -8.19772304e-05  9.89781974e+04],462,814.7820775680416
681,681,[-1.91029350e+03  3.59399310e+02 -7.58578034e-05  6.07912257e+04],146,814.5142964117562
682,682,[-1.79434464e+03  3.59399311e+02 -7.54271804e-05  5.54976070e+04],288,814.339247878634
683,683,[-1.87204611e+03  3.59399515e+02 -9.48038998e-05  6.25755790e+05],264,812.6091503920475
684,684,[-1.96624473e+03  3.59399515e+02 -8.75770001e-05  7.11832328e+05],727,815.2568349960584
685,685,[-1.90376373e+03  3.59399313e+02 -7.26207410e-05  4.99119394e+04],172,813.04231801578
686,686,[-1.86186973e+03  3.59399312e+02 -8.08206317e-05  5.40958860e+04],686,813.8142671285609
687,687,[-1.81502186e+03  3.59399511e+02 -1.14099098e-04  6.94963172e+05],1,811.3387839247655
688,688,[-1.87628049e+03  3.59399314e+02 -8.61404223e-05  4.32822284e+04],797,814.4458574828662
689,689,[-2.04991268e+03  3.59399314e+02 -6.71309002e-05  5.22357871e+04],407,813.1708017676083
690,690,[-1.79745974e+03  3.59399263e+02 -7.36931213e-05  1.98064192e+05],317,814.5652133584025
691,691,[-1.75534544e+03  3.59399311e+02 -7.70920493e-05  5.42142509e+04],510,814.814525945836
692,692,[-1.88151604e+03  3.59399316e+02 -7.24178113e-05  5.95900596e+04],302,815.4449248490598
693,693,[-1.85408110e+03  3.59399319e+02 -6.78982111e-05  5.44313133e+04],13,814.6829259825487
694,694,[-1.60745538e+03  3.59399310e+02 -7.67666511e-05  1.03694037e+05],805,815.150056190356
695,695,[-1.82955645e+03  3.59399315e+02 -7.13052329e-05  5.90183597e+04],253,815.1937904237628
696,696,[-1.77078307e+03  3.59399527e+02 -7.16933599e-05  7.60114846e+05],401,814.8192333605359
697,697,[-1.52202333e+03  3.59399315e+02 -7.97419331e-05  8.88228924e+04],712,815.1354215229999
698,698,[-1.68793311e+03  3.59399513e+02 -7.56229511e-05  6.18248519e+05],655,814.7586385892645
699,699,[-1.81334551e+03  3.59399439e+02 -7.24778653e-05  7.18167885e+05],160,814.5264225932588
700,700,[-1.78200183e+03  3.59399314e+02 -7.47045244e-05  5.32811226e+04],32,815.5709204367023
701,701,[-1.74079519e+03  3.59399326e+02 -8.16199695e-05  1.20885661e+05],666,814.225826197224
702,702,[-1.70367207e+03  3.59399499e+02 -8.24724138e-05  9.50391642e+05],30,815.0663784641323
703,703,[-1.90647120e+03  3.59399317e+02 -7.01837343e-05  4.71098288e+04],518,814.4424526153028
704,704,[-1.75598315e+03  3.59399313e+02 -8.10464946e-05  5.32390860e+04],478,815.6840562968782
705,705,[-1.94539321e+03  3.59399314e+02 -7.44658069e-05  4.77519404e+04],769,814.87952632291
706,706,[-1.76302575e+03  3.59399319e+02 -7.34724193e-05  5.33439229e+04],665,815.114240282087
707,707,[-1.79994865e+03  3.59399315e+02 -7.90586006e-05  6.07813653e+04],493,815.1417842720081
708,708,[-1.75518782e+03  3.59399560e+02 -7.34322556e-05  6.61151414e+05],342,814.3748651877793
709,709,[-1.85481048e+03  3.59399509e+02 -7.63501691e-05  7.98010679e+05],668,815.1110145892909
710,710,[-1.70494582e+03  3.59399313e+02 -8.30287143e-05  5.61980403e+04],526,813.9356193833752
711,711,[-1.83627834e+03  3.59399520e+02 -8.12195387e-05  7.66825461e+05],65,814.9403938712236
712,712,[-1.68721351e+03  3.59399310e+02 -7.48367918e-05  6.43304940e+04],671,813.7321365344503
713,713,[-1.72614345e+03  3.59399313e+02 -8.13368376e-05  9.41479203e+04],542,814.8578073582979
714,714,[-1.87692925e+03  3.59399311e+02 -8.83895198e-05  6.15558469e+04],598,815.2670045807039
715,715,[-1.90099588e+03  3.59399315e+02 -7.85187376e-05  6.33985129e+04],405,814.623538191237
716,716,[-1.78555777e+03  3.59399327e+02 -8.35633090e-05  1.75881474e+05],461,815.1963724989529
717,717,[-1.61402658e+03  3.59399313e+02 -8.04850009e-05  5.18437928e+04],388,814.2617864932399
718,718,[-1.96747640e+03  3.59399327e+02 -7.35855465e-05  9.41005953e+04],674,813.5453408074709
719,719,[-1.78511601e+03  3.59399564e+02 -8.23924304e-05  6.52632109e+05],582,815.7307760547797
720,720,[-1.84200740e+03  3.59399316e+02 -8.19956972e-05  6.10854927e+04],464,815.4759499923779
721,721,[-1.79720070e+03  3.59399322e+02 -6.50263370e-05  8.47353578e+04],515,814.0887442816351
722,722,[-1.84263170e+03  3.59399315e+02 -7.81520350e-05  4.62288020e+04],718,814.3456282049857
723,723,[-1.77674092e+03  3.59399312e+02 -8.14215830e-05  5.33942967e+04],766,815.4077911434184
724,724,[-1.84181122e+03  3.59399594e+02 -6.97712684e-05  6.49686190e+05],158,813.9961638710264
725,725,[-1.78039129e+03  3.59399313e+02 -9.05148664e-05  5.61436817e+04],321,814.1559435244818
726,726,[-1.84739243e+03  3.59399327e+02 -8.22289734e-05  2.58776795e+05],547,815.2697279556916
727,727,[-1.92271004e+03  3.59399516e+02 -7.29261036e-05  8.43549367e+05],476,813.8173061463945
728,728,[-1.42162902e+03  3.59399310e+02 -7.71454246e-05  6.00892000e+04],83,815.0690069759183
729,729,[-1.82081733e+03  3.59399312e+02 -8.18643812e-05  5.50765487e+04],486,815.9580386202982
730,730,[-1.71891577e+03  3.59399301e+02 -7.76174729e-05  7.55076120e+04],237,814.8398477958164
731,731,[-1.80475768e+03  3.59399486e+02 -7.82622878e-05  7.72905743e+05],14,814.9254788890207
732,732,[-2.05350089e+03  3.59399518e+02 -8.73479837e-05  8.01723823e+05],470,814.6026170703316
733,733,[-1.91096170e+03  3.59399329e+02 -8.29749771e-05  2.72316304e+05],656,814.9004141781418
734,734,[-1.98391556e+03  3.59399313e+02 -7.95744274e-05  6.17524719e+04],804,815.3315671053156
735,735,[-1.82643236e+03  3.59399465e+02 -8.31674295e-05  9.78886651e+05],73,815.4709852368093
736,736,[-1.83464067e+03  3.59399304e+02 -7.23218102e-05  7.36730075e+04],315,814.1267690134387
737,737,[-1.92137871e+03  3.59399415e+02 -8.10080143e-05  3.87669520e+05],55,815.5341322607981
738,738,[-1.83035121e+03  3.59399320e+02 -8.48729232e-05  8.96957917e+04],359,814.6945610010257
739,739,[-1.96230900e+03  3.59399312e+02 -7.14106197e-05  5.92457336e+04],654,813.2282929964928
740,740,[-1.75424158e+03  3.59399326e+02 -7.51063406e-05  1.85951731e+05],631,815.0853129513283
741,741,[-1.78909557e+03  3.59399327e+02 -8.15696575e-05  2.29869997e+05],814,814.5500095095775
742,742,[-1.91235668e+03  3.59399310e+02 -7.17119603e-05  5.07369811e+04],550,814.5970692977004
743,743,[-1.91947070e+03  3.59399491e+02 -7.93358778e-05  6.82773871e+05],483,815.6039233628466
744,744,[-2.02559582e+03  3.59399315e+02 -7.93593518e-05  4.48063617e+04],81,814.7615018698461
745,745,[-1.91229918e+03  3.59399514e+02 -7.79265988e-05  8.31902270e+05],657,813.936162293638
746,746,[-1.87029470e+03  3.59399311e+02 -7.75608334e-05  5.80817508e+04],660,815.2872023026493
747,747,[-1.92091130e+03  3.59399318e+02 -8.80214324e-05  7.23241036e+04],141,814.6983447563964
748,748,[-1.92684457e+03  3.59399308e+02 -8.40611163e-05  6.74518650e+04],640,814.4297683234608
749,749,[-1.92101458e+03  3.59399314e+02 -8.07079455e-05  5.42085816e+04],353,814.9068566951997
750,750,[-1.88582123e+03  3.59399459e+02 -9.66005840e-05  7.62242586e+05],555,809.2948370541249
751,751,[-1.73003326e+03  3.59399608e+02 -9.38777375e-05  8.66089813e+05],395,810.4525281709953
752,752,[-1.90315153e+03  3.59399316e+02 -6.50461224e-05  4.60677892e+04],752,813.2387943032529
753,753,[-1.82305191e+03  3.59399313e+02 -7.71391881e-05  5.41887565e+04],436,815.0619599992128
754,754,[-1.78707284e+03  3.59399327e+02 -7.77252393e-05  1.15738155e+05],739,814.3833137268482
755,755,[-1.68868877e+03  3.59399318e+02 -6.98736026e-05  6.41973006e+04],2,813.9527320600848
756,756,[-1.70302966e+03  3.59399312e+02 -7.43285763e-05  5.57535178e+04],120,815.002754202979
757,757,[-1.74389544e+03  3.59399435e+02 -7.07897335e-05  3.69903746e+05],494,813.8899378584792
758,758,[-1.54985921e+03  3.59399322e+02 -7.92213890e-05  1.68294704e+05],355,814.1840160435726
759,759,[-2.00463250e+03  3.59399560e+02 -8.29754607e-05  7.68442151e+05],689,814.6969361145375
760,760,[-1.89407431e+03  3.59399322e+02 -8.01381963e-05  1.20141687e+05],579,813.9976466066604
761,761,[-1.64759875e+03  3.59399314e+02 -8.23377863e-05  4.93926001e+04],281,814.1226462241464
762,762,[-1.66040671e+03  3.59399310e+02 -8.49218406e-05  6.07987824e+04],449,814.698327001556
763,763,[-1.82753625e+03  3.59399490e+02 -7.79127868e-05  8.17103781e+05],50,814.6490524941929
764,764,[-1.69875737e+03  3.59399312e+02 -8.89812912e-05  5.85048353e+04],480,812.7126908455951
765,765,[-1.75998825e+03  3.59399306e+02 -7.97422726e-05  6.55018227e+04],123,814.9710138157701
766,766,[-1.77476419e+03  3.59399328e+02 -6.80110327e-05  2.48732281e+05],685,813.534050210818
767,767,[-1.87585492e+03  3.59399310e+02 -7.74342394e-05  6.08086446e+04],576,814.8735315102666
768,768,[-1.72383938e+03  3.59399314e+02 -7.94857609e-05  4.94268798e+04],101,815.6782285352906
769,769,[-1.98859338e+03  3.59399315e+02 -7.61665507e-05  4.99969883e+04],156,813.6708750068914
770,770,[-1.92771541e+03  3.59399311e+02 -8.39340250e-05  5.84662583e+04],652,814.8048562040424
771,771,[-1.87153896e+03  3.59399315e+02 -9.26468369e-05  7.03356449e+04],661,814.5074958315997
772,772,[-1.83196586e+03  3.59399309e+02 -8.58581832e-05  6.24793463e+04],485,815.211436688532
773,773,[-1.91239831e+03  3.59399317e+02 -7.80327740e-05  6.61735147e+04],807,815.106050660943
774,774,[-1.94850397e+03  3.59399315e+02 -8.38015723e-05  7.01646203e+04],3,814.6469365908414
775,775,[-1.81617501e+03  3.59399311e+02 -8.67116433e-05  5.90475467e+04],808,814.8335311763377
776,776,[-1.78217629e+03  3.59399318e+02 -8.80726664e-05  8.70735391e+04],487,814.5802704651311
777,777,[-1.79695232e+03  3.59399315e+02 -8.18279390e-05  5.28788597e+04],675,814.3124099295895
778,778,[-1.86639024e+03  3.59399310e+02 -7.81778014e-05  6.09036509e+04],764,814.3312439906166
779,779,[-2.02452398e+03  3.59399405e+02 -8.81770644e-05  3.77071948e+05],127,814.789204517859
780,780,[-1.75234018e+03  3.59399530e+02 -8.58438701e-05  6.70968175e+05],159,814.6829750067989
781,781,[-1.88317195e+03  3.59399312e+02 -7.52307574e-05  5.12213911e+04],406,814.7878635554831
782,782,[-1.77034055e+03  3.59399311e+02 -8.43070145e-05  6.85252222e+04],622,814.4898974103863
783,783,[-1.74179635e+03  3.59399311e+02 -9.66940852e-05  5.64813809e+04],16,811.6274699492502
784,784,[-1.72460072e+03  3.59399311e+02 -7.13563362e-05  7.02309491e+04],683,814.9325399852796
785,785,[-1.96303233e+03  3.59399490e+02 -8.27352235e-05  8.04312102e+05],558,815.525582972445
786,786,[-1.86113459e+03  3.59399315e+02 -8.41034621e-05  5.00477560e+04],4,815.7725555611614
787,787,[-1.94782801e+03  3.59399310e+02 -8.21483250e-05  6.25104758e+04],77,814.3641701225627
788,788,[-1.66735990e+03  3.59399312e+02 -8.66257436e-05  5.65020204e+04],469,815.2044489775567
789,789,[-1.85750792e+03  3.59399312e+02 -9.43192723e-05  5.71425337e+04],481,814.1631876524718
790,790,[-1.84173552e+03  3.59399537e+02 -7.98044667e-05  7.36025248e+05],667,814.759283923545
791,791,[-1.97685925e+03  3.59399607e+02 -8.61481194e-05  7.29255258e+05],74,814.1524823858215
792,792,[-2.03864013e+03  3.59399327e+02 -7.72875116e-05  1.34501225e+05],798,814.4069291179618
793,793,[-1.94910653e+03  3.59399319e+02 -7.80615716e-05  6.90301148e+04],43,814.3534615043592
794,794,[-1.60392716e+03  3.59399321e+02 -7.87246491e-05  1.14277843e+05],799,814.8515979725347
795,795,[-1.98634098e+03  3.59399311e+02 -8.58409704e-05  5.52518061e+04],663,814.3143056608491
796,796,[-1.90768795e+03  3.59399518e+02 -8.65648037e-05  6.53789184e+05],44,814.9335351030772
797,797,[-1.58702573e+03  3.59399319e+02 -8.30677324e-05  8.40393156e+04],82,813.7795714613694
798,798,[-1.52419085e+03  3.59399313e+02 -9.11445649e-05  5.42143569e+04],299,812.1509874861036
799,799,[-1.85399020e+03  3.59399500e+02 -8.85440914e-05  6.26412364e+05],489,812.0103836605483
800,800,[-1.84898916e+03  3.59399542e+02 -6.91268546e-05  7.58540291e+05],490,814.4526813702903
801,801,[-1.76477294e+03  3.59399314e+02 -8.83646659e-05  9.40854290e+04],783,815.0555496093262
802,802,[-1.84665238e+03  3.59399314e+02 -8.70431480e-05  5.32421755e+04],479,814.3991541129519
803,803,[-1.69374657e+03  3.59399312e+02 -8.02395302e-05  6.32649681e+04],687,815.2827728309624
804,804,[-1.50337829e+03  3.59399310e+02 -8.97467336e-05  6.10602692e+04],670,813.4048573900516
805,805,[-1.73469403e+03  3.59399312e+02 -9.19010707e-05  5.90554840e+04],9,813.735789932286
806,806,[-1.82017394e+03  3.59399315e+02 -7.86506104e-05  5.35258681e+04],300,814.9251551535981
807,807,[-1.85002492e+03  3.59399314e+02 -9.44156933e-05  7.08089771e+04],410,812.8311834064051
808,808,[-1.77432992e+03  3.59399312e+02 -9.05512745e-05  5.55402997e+04],459,812.8032416550694
809,809,[-1.93421625e+03  3.59399442e+02 -7.84948487e-05  6.49679818e+05],624,814.028819269373
810,810,[-1.77858249e+03  3.59399323e+02 -8.08757809e-05  1.20940557e+05],182,815.5808487130003
811,811,[-1.77537583e+03  3.59399327e+02 -7.14041110e-05  1.02732277e+05],328,814.8271414640861
812,812,[-2.02847022e+03  3.59399533e+02 -8.51491142e-05  7.58675532e+05],751,814.9634354728993
813,813,[-1.60065251e+03  3.59399315e+02 -9.59268797e-05  8.82460612e+04],11,813.8784691421424
814,814,[-1.70019699e+03  3.59399327e+02 -9.14481686e-05  1.80685273e+05],10,813.3308853881608
815,815,[-1.96877337e+03  3.59399546e+02 -8.40593313e-05  7.51981824e+05],750,814.3196223440927
816,816,[-1.77483081e+03  3.59399319e+02 -8.19754755e-05  9.65235949e+04],166,814.5901803645378
817,817,[-1.96406125e+03  3.59399528e+02 -7.95766052e-05  7.07578139e+05],488,813.9889159516742
818,818,[-2.27134133e+03  4.01262008e+02 -4.30670671e-04 -1.15205823e+11],818,764.427909027398
