,0,1,2,3
0,0,[-1.53226983e+03  3.48387079e+02 -4.47847947e-05  4.42107597e+04],1092,2753.762496503551
1,1,[-1.45278816e+03  3.48387031e+02 -4.58627697e-05  1.23255377e+04],1289,2749.0099147626215
2,2,[-1.56560168e+03  3.48387050e+02 -6.12951065e-05  1.98568374e+04],1401,2754.0903982534865
3,3,[-1.45058251e+03  3.49385835e+02 -4.41088534e-05  1.22938749e+05],1548,2757.4999520663105
4,4,[-1.42345828e+03  3.35372237e+02 -4.35888783e-05  1.98369853e+04],2569,2756.922997285305
5,5,[-1.22136837e+03  3.86427134e+02 -7.39131705e-05  2.46370902e+04],1807,2756.6349429085303
6,6,[-1.37105134e+03  3.54393110e+02 -5.52338864e-05  1.98384816e+04],2699,2753.921749757739
7,7,[-1.60658400e+03  3.21367452e+02 -3.22289284e-05  1.98384827e+04],1808,2756.723298684424
8,8,[-1.34806085e+03  3.43379684e+02 -3.88284632e-05  1.98384816e+04],1586,2756.494161706419
9,9,[-1.36946458e+03  3.48386799e+02 -4.75309532e-05  4.36442177e+03],2591,2754.808438335741
10,10,[-1.57002257e+03  3.48387035e+02 -5.43065515e-05  1.39837855e+04],1298,2756.5198890491106
11,11,[-1.51688671e+03  3.48387050e+02 -5.69595717e-05  1.36581627e+04],1357,2756.2590529260387
12,12,[-1.54585123e+03  3.49387617e+02 -5.19371839e-05  2.74316312e+04],2506,2753.5825920444618
13,13,[-8.80307271e+02  3.90433654e+02 -6.08995522e-05  1.98322869e+04],1351,2755.632314759405
14,14,[-1.61203633e+03  3.40377295e+02 -4.77864876e-05  1.98324551e+04],1465,2756.1215750364777
15,15,[-1.27921659e+03  3.85428011e+02 -7.38815596e-05  1.98322869e+04],1656,2751.233939619393
16,16,[-1.42073933e+03  3.28364093e+02 -4.18651273e-05  1.98322869e+04],933,2745.1413115852324
17,17,[-1.39485240e+03  3.32368972e+02 -4.20903855e-05  1.98322869e+04],2615,2756.1139808805037
18,18,[-1.32799921e+03  3.60400154e+02 -4.81565889e-05  1.98322869e+04],1524,2750.6151323517906
19,19,[-1.41077299e+03  3.36373539e+02 -3.89941768e-05  1.98322869e+04],2340,2758.610977346281
20,20,[-1.25450398e+03  3.80422537e+02 -6.78935440e-05  1.98322871e+04],2092,2754.6159037346815
21,21,[-1.44873594e+03  3.37374529e+02 -4.12291749e-05  1.98322869e+04],1068,2756.9640825861384
22,22,[-1.59156757e+03  3.21363731e+02 -3.40007500e-05  1.98322869e+04],1318,2758.008159757379
23,23,[-1.24307042e+03  3.17353841e+02 -2.09666472e-05  1.98322869e+04],1778,2754.3391804122616
24,24,[-1.58144662e+03  3.23359808e+02 -3.84161327e-05  1.47921392e+06],1901,2751.725828572959
25,25,[-9.27300043e+02  4.00444720e+02 -1.19214082e-04  2.02845279e+04],2142,2754.4303502459497
26,26,[-1.45006062e+03  3.65405079e+02 -7.13798732e-05  2.02845279e+04],1331,2754.1661507397316
27,27,[-1.44911306e+03  3.40377135e+02 -4.60800365e-05  2.02845279e+04],1078,2753.268500219905
28,28,[-1.16368887e+03  3.74415852e+02 -5.47539783e-05  2.02845279e+04],1790,2753.3811260523744
29,29,[-1.42808939e+03  3.43379379e+02 -4.01801239e-05  2.02845279e+04],1274,2751.1606050993605
30,30,[-1.70017607e+03  3.22376284e+02 -4.14850553e-05  2.02845279e+04],2263,2757.357494546804
31,31,[-1.35428228e+03  3.81422819e+02 -7.94266269e-05  2.02845279e+04],928,2757.1208229978174
32,32,[-1.45334207e+03  3.48386823e+02 -5.97817219e-05  2.02845279e+04],1831,2753.0940087513054
33,33,[-1.16274352e+03  3.66406258e+02 -5.56989176e-05  2.02845279e+04],1554,2748.8965892806013
34,34,[-1.42276235e+03  3.85428146e+02 -9.56898762e-05  4.51882206e+04],1490,2753.327514661518
35,35,[-1.54141557e+03  3.80422655e+02 -7.76840276e-05  3.62253949e+04],1498,2756.6742154580406
36,36,[-1.47047918e+03  3.46384227e+02 -5.41711261e-05  2.02971421e+04],2029,2754.7531327472775
37,37,[-8.32729261e+02  3.86428841e+02 -4.26302856e-05  2.02971421e+04],1304,2758.1213988495365
38,38,[-1.18075446e+03  3.63403546e+02 -4.69673534e-05  2.02971421e+04],1749,2758.2448663054215
39,39,[-1.56976761e+03  3.22358195e+02 -3.95436918e-05  2.49326751e+04],1026,2754.594280964333
40,40,[-1.43504359e+03  3.45382674e+02 -4.15354266e-05  2.02985719e+04],2550,2757.401059314603
41,41,[-1.45342273e+03  3.52391289e+02 -4.40674997e-05  2.02985719e+04],2181,2759.3116088971865
42,42,[-1.37752255e+03  3.64404604e+02 -7.29161617e-05  2.02985719e+04],1191,2757.1879808943186
43,43,[-9.12985532e+02  3.91434616e+02 -6.32677848e-05  2.02985719e+04],1389,2756.4469462443717
44,44,[-1.62111109e+03  3.22361646e+02 -2.95624712e-05  2.02985719e+04],1748,2759.373781935927
45,45,[-8.22140239e+02  3.85427899e+02 -7.71765517e-05  2.02985719e+04],2106,2755.7551428794177
46,46,[-1.40836049e+03  3.46384804e+02 -5.61339502e-05  2.02985721e+04],1027,2755.78082499293
47,47,[-1.63610982e+03  3.23362460e+02 -3.86700361e-05  2.02986644e+04],1302,2757.5565688573024
48,48,[-8.43290829e+02  3.88431303e+02 -6.70597384e-05  2.02985719e+04],1261,2754.028178013906
49,49,[-1.25913358e+03  3.80422485e+02 -7.51505613e-05  2.02986358e+04],966,2750.5662631644022
50,50,[-1.34780939e+03  3.76417751e+02 -6.91202580e-05  2.02985719e+04],2043,2754.1983962040295
51,51,[-1.45405037e+03  3.26362253e+02 -3.25115837e-05  2.02985719e+04],1622,2758.4362904826557
52,52,[-8.17670376e+02  3.84426900e+02 -6.02860688e-05  2.02985719e+04],1056,2755.948305242725
53,53,[-1.38979802e+03  3.66405986e+02 -6.87052309e-05  2.02985719e+04],2650,2752.2044335309242
54,54,[-1.49008722e+03  3.53392613e+02 -5.30011874e-05  2.67184726e+04],1889,2755.4058088181787
55,55,[-1.24271692e+03  3.70411039e+02 -4.54002251e-05  2.03005430e+04],2588,2757.6207953023063
56,56,[-1.12931411e+03  3.39376857e+02 -3.11004800e-05  2.03005430e+04],1305,2756.0362882712925
57,57,[-1.25193176e+03  3.67407503e+02 -5.38827347e-05  2.03005430e+04],1984,2754.194170414608
58,58,[-1.38987696e+03  3.31367890e+02 -3.10950525e-05  2.03005430e+04],2504,2748.9150243217337
59,59,[-1.29366034e+03  3.81423619e+02 -7.69020536e-05  2.03012173e+04],1101,2755.7019144538845
60,60,[-1.47310165e+03  3.22358690e+02 -3.12985531e-05  2.03005433e+04],2602,2757.197139469985
61,61,[-1.47022726e+03  3.31367967e+02 -4.08095399e-05  2.03005433e+04],2481,2754.2861491564054
62,62,[-1.48560056e+03  3.22358736e+02 -3.12126172e-05  2.03005433e+04],2493,2749.786918762617
63,63,[-1.30666534e+03  3.67407732e+02 -5.51253977e-05  2.03005433e+04],1819,2758.9283800149565
64,64,[-1.44888189e+03  3.45383596e+02 -5.31511417e-05  2.03005432e+04],2074,2756.291379396398
65,65,[-1.24646902e+03  3.91432983e+02 -7.15750776e-05  2.03005433e+04],2528,2757.665112070475
66,66,[-1.48098911e+03  3.22359045e+02 -3.03719337e-05  2.03005433e+04],1904,2753.100854976467
67,67,[-1.00780110e+03  3.90433529e+02 -6.19660253e-05  2.03005433e+04],2351,2746.157517454563
68,68,[-1.41826351e+03  3.21357273e+02 -2.80617545e-05  2.03005433e+04],1398,2755.7221095169757
69,69,[-1.36334623e+03  3.91434844e+02 -8.55512292e-05  2.06152794e+04],2480,2758.188222943746
70,70,[-1.53206937e+03  3.61397965e+02 -6.38946925e-05  2.03219420e+04],1608,2754.022155779146
71,71,[-1.38744093e+03  3.74415691e+02 -7.13600646e-05  2.03006460e+04],932,2755.862219673823
72,72,[-1.42221053e+03  3.50389178e+02 -5.27402089e-05  2.03006459e+04],1824,2749.8198982600416
73,73,[-9.74539422e+02  3.93436871e+02 -4.84403100e-05  2.03006460e+04],2260,2752.8415886459334
74,74,[-1.43812715e+03  3.64395408e+02 -6.08044727e-05  2.03006460e+04],2091,2749.064525274976
75,75,[-1.25640039e+03  3.86428999e+02 -8.44303560e-05  2.03006460e+04],2112,2755.3936903960634
76,76,[-1.43510421e+03  3.29365695e+02 -3.89134797e-05  2.03006460e+04],2717,2756.4995901458747
77,77,[-1.18467053e+03  3.46384711e+02 -3.85909383e-05  2.03006460e+04],2641,2757.3854612543005
78,78,[-1.42384496e+03  3.49388187e+02 -4.93161944e-05  2.94779935e+04],962,2751.775109410281
79,79,[-8.80166895e+02  3.89432369e+02 -6.16749431e-05  2.03034431e+04],1332,2752.3039120348276
80,80,[-1.36357578e+03  3.75415467e+02 -6.98268981e-05  2.03034431e+04],1060,2755.367777075929
81,81,[-1.45968792e+03  3.40377922e+02 -4.49058412e-05  2.03034431e+04],2475,2758.1867221513276
82,82,[-1.45709565e+03  3.33369946e+02 -4.06747956e-05  2.03034431e+04],1450,2757.5542084016824
83,83,[-1.20859715e+03  3.47385816e+02 -3.91511501e-05  2.03034431e+04],2093,2754.6769453543875
84,84,[-1.17218237e+03  3.45383421e+02 -3.53675134e-05  2.03034431e+04],556,2750.0412350493675
85,85,[-1.28583175e+03  3.22358775e+02 -2.11035250e-05  2.03034431e+04],1235,2756.129261963746
86,86,[-1.22162746e+03  3.59399157e+02 -4.46193357e-05  2.03034431e+04],1141,2758.4162225628793
87,87,[-1.62462681e+03  3.25361168e+02 -3.54558334e-05  2.03034431e+04],2604,2758.5128084349067
88,88,[-1.22144133e+03  3.55394494e+02 -4.16442763e-05  2.03034431e+04],2705,2757.9479727922444
89,89,[-9.32634158e+02  3.91434649e+02 -4.81977225e-05  2.03034431e+04],2609,2754.145355223955
90,90,[-8.91810473e+02  3.93436782e+02 -2.74713964e-05  2.03034431e+04],1517,2754.70425395773
91,91,[-1.58232784e+03  3.22359381e+02 -3.64140130e-05  2.03034431e+04],1571,2757.820759417515
92,92,[-1.18981319e+03  3.47385638e+02 -4.30130493e-05  2.03034431e+04],2424,2758.395151983006
93,93,[-8.15845881e+02  3.82424605e+02 -6.62770859e-05  2.03034431e+04],937,2747.306545138236
94,94,[-8.12988073e+02  3.82424634e+02 -6.42791610e-05  2.03034431e+04],2377,2752.7138858089857
95,95,[-1.51406645e+03  3.22363317e+02 -2.79409676e-05  2.03034431e+04],2730,2758.8713836187144
96,96,[-1.16716982e+03  3.87430314e+02 -6.96377038e-05  2.03034431e+04],1137,2755.133702407559
97,97,[-1.37187240e+03  3.35372269e+02 -4.40957457e-05  2.03034431e+04],1055,2753.346798570369
98,98,[-1.52154536e+03  3.20372839e+02 -3.24337842e-05  2.03034431e+04],1627,2758.2458054072795
99,99,[-1.45929281e+03  3.68408424e+02 -7.07828091e-05  2.03034431e+04],2192,2748.6163202517982
100,100,[-1.19143452e+03  3.50389137e+02 -4.24798717e-05  2.03034431e+04],1585,2754.286581960734
101,101,[-1.35147372e+03  3.41376176e+02 -3.51088678e-05  2.03034431e+04],1841,2758.769339893913
102,102,[-1.23139691e+03  3.53392216e+02 -4.48771228e-05  2.03034431e+04],1352,2759.071744494015
103,103,[-1.10946754e+03  3.41378713e+02 -2.80322719e-05  2.03034431e+04],1613,2757.8798045226836
104,104,[-8.35691557e+02  3.83425704e+02 -5.72837904e-05  2.03034431e+04],1598,2755.550245083655
105,105,[-1.36630964e+03  3.21357340e+02 -2.33707917e-05  2.03034431e+04],1178,2758.353060767849
106,106,[-1.45999291e+03  3.38375746e+02 -5.10143358e-05  2.03034431e+04],2083,2751.0417143728696
107,107,[-1.21042910e+03  3.50388938e+02 -4.09238963e-05  2.03034431e+04],1751,2752.287129210116
108,108,[-1.48603087e+03  3.22359950e+02 -3.18364531e-05  2.03034431e+04],162,2758.127693526738
109,109,[-1.40016244e+03  3.54388597e+02 -5.27508913e-05  2.03034431e+04],1962,2755.0023141049933
110,110,[-1.29966393e+03  3.60400029e+02 -5.84442006e-05  2.03034431e+04],2505,2750.7773635097537
111,111,[-1.65222087e+03  3.23357762e+02 -3.86379490e-05  2.03034431e+04],1265,2743.8687334637716
112,112,[-1.40189254e+03  3.56395376e+02 -5.66528821e-05  2.03034431e+04],1983,2754.39067390081
113,113,[-1.38109542e+03  3.53392624e+02 -5.14216746e-05  3.12600261e+04],1967,2747.2442517624227
114,114,[-1.08072014e+03  3.76417451e+02 -7.64646182e-05  2.03067472e+04],1406,2746.236896977137
115,115,[-1.49947523e+03  3.33369938e+02 -4.46061547e-05  2.03067472e+04],953,2753.310037692725
116,116,[-1.47294747e+03  3.55394194e+02 -5.81858174e-05  2.03067472e+04],1187,2755.4303424381787
117,117,[-1.44002854e+03  3.77419305e+02 -7.10400592e-05  2.03067673e+04],2365,2755.1460477057194
118,118,[-1.25580982e+03  3.69409750e+02 -4.79060952e-05  2.03067472e+04],1104,2752.5982726694815
119,119,[-1.41607379e+03  3.46384334e+02 -3.74356262e-05  2.03067472e+04],2080,2758.3466570140044
120,120,[-1.28600497e+03  3.62402194e+02 -4.62802682e-05  2.03067472e+04],2007,2757.649614078813
121,121,[-1.49646370e+03  3.28364222e+02 -4.27011980e-05  2.03067472e+04],1295,2755.093403885335
122,122,[-1.51673487e+03  3.24360335e+02 -3.14941508e-05  1.39538185e+04],2268,2753.7366081559107
123,123,[-1.38896277e+03  3.18353992e+02 -2.37170381e-05  2.03048366e+04],1133,2760.1800452653442
124,124,[-1.26449765e+03  3.73364835e+02 -5.09352939e-05  2.03154638e+04],1570,2756.4323006700097
125,125,[-1.20657760e+03  3.71412431e+02 -5.93833792e-05  2.03048398e+04],2376,2755.6145523495898
126,126,[-1.22777271e+03  3.44382248e+02 -3.49070846e-05  2.03048398e+04],562,2756.750992843178
127,127,[-1.48502163e+03  3.23364630e+02 -3.26034441e-05  2.03048398e+04],1084,2758.4892350698733
128,128,[-1.46748610e+03  3.47385939e+02 -5.34012449e-05  2.14798614e+04],1353,2755.2051921251973
129,129,[-1.36821698e+03  3.44373249e+02 -3.31985485e-05  2.03051925e+04],1646,2756.1028555460134
130,130,[-1.23764071e+03  3.74415736e+02 -5.54465406e-05  2.03051925e+04],2387,2759.360118432634
131,131,[-1.45176871e+03  3.60398524e+02 -5.17306745e-05  2.03064348e+04],2348,2758.9558828750373
132,132,[-1.30496586e+03  3.89431754e+02 -6.93789009e-05  2.02955910e+04],1623,2746.6490687996848
133,133,[-9.35985344e+02  3.88431334e+02 -5.01579464e-05  2.03051900e+04],2497,2756.356442890239
134,134,[-1.62899963e+03  3.21357798e+02 -3.62697238e-05  2.03052194e+04],1449,2759.3990494638897
135,135,[-1.32623063e+03  3.77418674e+02 -7.07202834e-05  2.03051900e+04],2145,2749.772870890543
136,136,[-1.21989602e+03  3.53392374e+02 -5.89832545e-05  2.03051900e+04],2168,2755.463501513566
137,137,[-1.25876619e+03  3.70411319e+02 -4.97921949e-05  2.03051900e+04],1640,2757.590073336804
138,138,[-1.53390615e+03  3.22358598e+02 -3.14386816e-05  2.03051900e+04],2118,2758.3244647755682
139,139,[-9.57827608e+02  3.89432456e+02 -5.18833800e-05  2.03051900e+04],1360,2757.771375225252
140,140,[-1.63549500e+03  3.23321982e+02 -3.62671802e-05  2.03051900e+04],1549,2756.288551764313
141,141,[-1.17169384e+03  3.42379937e+02 -3.28985835e-05  2.03051900e+04],1990,2757.802366805077
142,142,[-8.70772392e+02  3.87430213e+02 -6.66485645e-05  2.03051900e+04],1653,2758.258588471599
143,143,[-1.52458712e+03  3.22359358e+02 -2.74663741e-05  2.03051900e+04],2146,2758.4537837666994
144,144,[-1.60249796e+03  3.23340500e+02 -3.51115640e-05  2.03051909e+04],840,2756.735097798628
145,145,[-1.28391832e+03  3.67406659e+02 -5.48035456e-05  2.03051900e+04],2640,2758.614316194439
146,146,[-1.42049110e+03  3.33369658e+02 -3.75102624e-05  2.03051900e+04],2673,2755.0565657020175
147,147,[-1.59104295e+03  3.20359136e+02 -3.70298847e-05  2.03051900e+04],1682,2756.6655094950197
148,148,[-1.54193762e+03  3.21358617e+02 -3.03554121e-05  2.03051900e+04],1242,2757.8145335750805
149,149,[-1.46630256e+03  3.30366549e+02 -3.91856188e-05  2.03051900e+04],1668,2757.637515992356
150,150,[-1.22048849e+03  3.48386652e+02 -4.52924393e-05  2.03051900e+04],1099,2754.2706616873984
151,151,[-8.59162941e+02  3.84426871e+02 -6.92393354e-05  2.03051900e+04],2009,2754.5927648542215
152,152,[-8.94727817e+02  3.88431308e+02 -5.11700829e-05  2.03051900e+04],1299,2758.369606838731
153,153,[-1.39340600e+03  3.47370566e+02 -3.50419246e-05  2.03051900e+04],1862,2757.1168379675805
154,154,[-1.55109624e+03  3.21358070e+02 -3.22004944e-05  2.03051900e+04],2167,2752.0509377387525
155,155,[-1.51190556e+03  3.22378006e+02 -3.12917583e-05  2.03051900e+04],1100,2756.8809065833207
156,156,[-1.23005437e+03  3.82424530e+02 -6.06144252e-05  2.03051900e+04],1617,2758.9704273624493
157,157,[-1.30912553e+03  3.69410233e+02 -5.95207200e-05  2.03051900e+04],740,2750.627914057418
158,158,[-1.55654722e+03  3.23361622e+02 -3.42717491e-05  2.03051900e+04],1975,2757.5369449338987
159,159,[-1.40320543e+03  3.52385212e+02 -4.86717020e-05  2.03051900e+04],917,2759.402800480035
160,160,[-1.30446282e+03  3.65405947e+02 -6.69983378e-05  2.42565326e+04],2469,2749.6717231413377
161,161,[-8.98555643e+02  3.87430249e+02 -5.25636796e-05  2.03063650e+04],377,2755.8176894901953
162,162,[-1.66367727e+03  3.21360521e+02 -3.14907910e-05  2.03063650e+04],1065,2760.7101870850183
163,163,[-1.42974319e+03  3.50388862e+02 -5.72938143e-05  2.03063650e+04],2629,2757.320920441045
164,164,[-1.25683231e+03  3.79421303e+02 -8.87828303e-05  2.03063650e+04],2610,2749.8894519536307
165,165,[-1.39424712e+03  3.86429178e+02 -7.69434631e-05  2.03063686e+04],1234,2756.3592460047835
166,166,[-1.39600949e+03  3.67407274e+02 -5.15910444e-05  2.03063650e+04],1243,2758.6578696560873
167,167,[-1.29213449e+03  3.71412229e+02 -6.28318139e-05  2.03063650e+04],2496,2748.668759170647
168,168,[-1.28740022e+03  3.79421351e+02 -7.14277120e-05  2.03063650e+04],806,2753.621065181158
169,169,[-1.21943709e+03  3.50388769e+02 -3.47202205e-05  2.03063650e+04],2628,2759.6906187955237
170,170,[-1.23037361e+03  3.86418777e+02 -6.07518606e-05  2.03063700e+04],1888,2757.7510850675303
171,171,[-1.28131364e+03  3.51390063e+02 -4.48702228e-05  2.03063650e+04],451,2754.29828207684
172,172,[-1.27549695e+03  3.75416343e+02 -6.38190472e-05  2.03063650e+04],350,2754.3717851367287
173,173,[-1.29256019e+03  3.65405648e+02 -4.59399643e-05  2.03063650e+04],1054,2751.676813295707
174,174,[-9.38106370e+02  3.88431186e+02 -5.14755368e-05  2.03063650e+04],1880,2756.048595569379
175,175,[-1.26362736e+03  3.58397954e+02 -4.60819393e-05  2.03063650e+04],1802,2758.0955770561122
176,176,[-1.34802634e+03  3.92435383e+02 -7.92772863e-05  2.03063650e+04],2646,2756.2470279164436
177,177,[-1.57593161e+03  3.30366756e+02 -3.81128272e-05  2.03073627e+04],2063,2755.015346971124
178,178,[-1.21520766e+03  3.54393465e+02 -4.26219549e-05  2.03063653e+04],2642,2757.543295325161
179,179,[-1.46549736e+03  3.29365393e+02 -3.51250280e-05  2.03063653e+04],888,2753.937986881505
180,180,[-1.14154222e+03  3.39376890e+02 -2.22438396e-05  2.03063653e+04],1230,2758.628028420491
181,181,[-1.61101702e+03  3.21358717e+02 -2.94997553e-05  2.03063653e+04],901,2759.0284403177716
182,182,[-1.51162339e+03  3.30366713e+02 -3.90160623e-05  2.03063653e+04],1830,2758.8384085128714
183,183,[-1.35280281e+03  3.92435963e+02 -8.33019530e-05  2.28455953e+04],1930,2756.035740991575
184,184,[-1.34673803e+03  3.54393717e+02 -4.19137538e-05  2.76548033e+04],2423,2752.2402120863453
185,185,[-1.21338942e+03  3.49387945e+02 -4.30367163e-05  2.03092846e+04],2502,2756.799559040558
186,186,[-1.17120995e+03  3.38375715e+02 -2.59975647e-05  2.03092846e+04],478,2748.3145702497477
187,187,[-1.34382442e+03  3.20358009e+02 -2.28331831e-05  2.03092846e+04],1692,2756.411969038369
188,188,[-8.31872562e+02  3.81423518e+02 -5.44564057e-05  2.03092846e+04],1795,2757.8270392929053
189,189,[-1.26820796e+03  3.87429136e+02 -7.73542421e-05  2.03342854e+04],488,2756.488985825918
190,190,[-8.66174795e+02  3.82424650e+02 -5.91891936e-05  2.03092919e+04],1466,2748.495124070681
191,191,[-9.39417998e+02  3.89432409e+02 -4.49989514e-05  2.03092919e+04],715,2754.1085378526477
192,192,[-1.23825838e+03  3.54393622e+02 -5.96536520e-05  2.03092919e+04],1777,2746.360466929611
193,193,[-9.47293459e+02  3.90433549e+02 -5.13367410e-05  2.03092919e+04],2687,2751.734064864024
194,194,[-1.54744623e+03  3.22358897e+02 -3.03417779e-05  2.03092919e+04],2014,2756.4648573334152
195,195,[-1.31759043e+03  3.53392389e+02 -4.60675745e-05  2.03092919e+04],1349,2756.9918950673073
196,196,[-1.19472235e+03  3.89431309e+02 -6.38838906e-05  2.03092919e+04],1296,2743.0965652863806
197,197,[-1.50716790e+03  3.83425996e+02 -8.32266275e-05  2.98953638e+04],759,2755.455972444237
198,198,[-1.44610122e+03  3.20356665e+02 -2.36489428e-05  2.03121114e+04],2580,2760.056426351677
199,199,[-1.29179852e+03  3.70411431e+02 -5.48704951e-05  2.03121113e+04],1719,2756.6550547638503
200,200,[-1.23780625e+03  3.51390363e+02 -4.12884528e-05  2.03121112e+04],1779,2754.6601059709024
201,201,[-9.01122095e+02  3.84426886e+02 -7.04534669e-05  2.03121114e+04],2191,2750.5868955722526
202,202,[-1.40181373e+03  3.22358678e+02 -2.50754102e-05  2.03121114e+04],2598,2757.297533929007
203,203,[-1.37098107e+03  3.58397750e+02 -4.47830766e-05  2.03881316e+04],2653,2756.3189826368216
204,204,[-9.63045309e+02  3.90433409e+02 -4.66095549e-05  2.03121337e+04],1124,2757.0893599516894
205,205,[-1.30967302e+03  3.83423935e+02 -7.21115146e-05  2.03121337e+04],2600,2757.2377681097673
206,206,[-9.07202952e+02  3.87430246e+02 -6.99882276e-05  2.03121337e+04],1587,2753.4891400758415
207,207,[-1.67597086e+03  3.22358210e+02 -3.27564937e-05  3.28751001e+04],2139,2752.4136549729965
208,208,[-1.57412001e+03  3.21362359e+02 -3.02130440e-05  2.03158191e+04],1710,2759.733680595257
209,209,[-1.48609180e+03  3.48385009e+02 -3.78480706e-05  2.03158179e+04],758,2758.972896794671
210,210,[-1.44908160e+03  3.29365648e+02 -2.82136478e-05  2.03158179e+04],1467,2757.45823383166
211,211,[-1.27104363e+03  3.81422363e+02 -7.08003089e-05  2.03158179e+04],2751,2758.806833967501
212,212,[-1.23612169e+03  3.80419683e+02 -7.87494609e-05  2.03155850e+04],1366,2748.615179470647
213,213,[-1.28612912e+03  3.60400107e+02 -6.12086829e-05  2.03158178e+04],1127,2751.6526973776195
214,214,[-1.31041599e+03  3.72412861e+02 -5.79965486e-05  2.03158178e+04],1241,2757.8565813951327
215,215,[-1.35217265e+03  3.89432662e+02 -8.23803770e-05  2.95076053e+04],2337,2756.513754161163
216,216,[-1.57351693e+03  3.25361292e+02 -3.88440405e-05  2.03185070e+04],2255,2755.782492582337
217,217,[-1.54011323e+03  3.22358262e+02 -3.18983726e-05  2.03184345e+04],2286,2755.3308635357976
218,218,[-1.26896983e+03  3.62402163e+02 -4.57734900e-05  2.03185070e+04],957,2753.6545792755187
219,219,[-1.37739264e+03  3.21357262e+02 -2.96104914e-05  2.03185070e+04],938,2754.060794027106
220,220,[-1.23792740e+03  3.65404430e+02 -5.81718748e-05  2.03185070e+04],2313,2752.856180455586
221,221,[-1.44391184e+03  3.65402131e+02 -6.00133632e-05  2.03318137e+04],1202,2753.7068014153665
222,222,[-1.45079865e+03  3.60399939e+02 -4.75873920e-05  2.03185109e+04],1720,2753.3138721423916
223,223,[-1.31502159e+03  3.89426011e+02 -8.00175843e-05  2.03185109e+04],1382,2757.891611091178
224,224,[-9.78941559e+02  3.89432388e+02 -6.67162188e-05  2.03185109e+04],1552,2758.1361653613835
225,225,[-1.33405977e+03  3.70410851e+02 -6.40615238e-05  2.03185109e+04],1605,2757.532072859476
226,226,[-1.46608595e+03  3.32368785e+02 -4.37373860e-05  2.03185109e+04],1128,2756.3339564436415
227,227,[-1.27130327e+03  3.79421339e+02 -6.67148576e-05  2.03185109e+04],2156,2756.232980869895
228,228,[-1.56882233e+03  3.22358203e+02 -2.57639004e-05  3.00823351e+04],1448,2757.764044690792
229,229,[-1.42368715e+03  3.19356124e+02 -2.51452054e-05  2.03213566e+04],1284,2756.113749167845
230,230,[-1.27123536e+03  3.77418430e+02 -5.88420485e-05  2.03213566e+04],1268,2755.4188659514225
231,231,[-1.35435837e+03  3.83425808e+02 -8.56706547e-05  2.03809099e+04],1704,2753.2458747284554
232,232,[-1.24239222e+03  3.61401286e+02 -4.73751810e-05  2.03213740e+04],555,2757.4074087902404
233,233,[-1.42007519e+03  3.85428208e+02 -9.02871172e-05  2.65514931e+04],913,2758.4746106930693
234,234,[-9.91746375e+02  3.87430148e+02 -5.83540259e-05  2.03231872e+04],2556,2750.8749202844774
235,235,[-1.40853987e+03  3.84427073e+02 -8.05093118e-05  2.38322440e+04],2349,2756.026902875139
236,236,[-9.50362325e+02  3.86429142e+02 -4.84630716e-05  2.03242078e+04],1578,2756.4391543035304
237,237,[-1.51252371e+03  3.22358246e+02 -2.91673347e-05  2.03241885e+04],541,2754.5365831584504
238,238,[-1.32679388e+03  3.71412258e+02 -7.37274508e-05  2.03242078e+04],642,2754.2336697538117
239,239,[-1.46831159e+03  3.32369045e+02 -4.25422932e-05  2.03242078e+04],554,2757.8362424115235
240,240,[-1.47710910e+03  3.56395717e+02 -5.64689905e-05  2.03242078e+04],123,2752.6146180664873
241,241,[-1.30664766e+03  3.78419744e+02 -6.86419679e-05  2.03242078e+04],2129,2756.6875497463516
242,242,[-8.94889296e+02  3.84426913e+02 -6.68681785e-05  2.03242078e+04],803,2753.1636209003964
243,243,[-1.35679502e+03  3.44381712e+02 -3.50784886e-05  2.03242078e+04],1756,2751.565331707147
244,244,[-9.20098295e+02  3.85428015e+02 -7.20620660e-05  2.03242078e+04],1138,2754.6881780026165
245,245,[-8.50478284e+02  3.80422403e+02 -6.26540278e-05  2.03242078e+04],473,2756.741512326068
246,246,[-1.33532554e+03  3.63403277e+02 -6.27411801e-05  2.03242078e+04],2368,2752.0323451252025
247,247,[-1.52200132e+03  3.67408168e+02 -6.15278188e-05  2.31954184e+04],1085,2756.4764160706545
248,248,[-1.43709861e+03  3.53391923e+02 -5.31435460e-05  2.03250303e+04],532,2754.465988410475
249,249,[-1.26290698e+03  3.49387750e+02 -3.79035423e-05  2.03250401e+04],1306,2754.957245292524
250,250,[-1.51073576e+03  3.22358529e+02 -2.94931578e-05  2.03250401e+04],1361,2758.9792690210597
251,251,[-1.54925180e+03  3.32368968e+02 -4.46013420e-05  2.03250401e+04],2109,2755.5036755524143
252,252,[-8.68765263e+02  3.81423606e+02 -6.30126217e-05  2.03250401e+04],2206,2758.6684044951644
253,253,[-1.26014865e+03  3.49387926e+02 -4.22560649e-05  2.03250401e+04],446,2751.795643183138
254,254,[-1.29259322e+03  3.86428994e+02 -7.23367396e-05  2.03437909e+04],423,2753.0030784373175
255,255,[-1.49648118e+03  3.51379715e+02 -4.76299681e-05  2.03250455e+04],1373,2758.7417832513675
256,256,[-9.86295166e+02  3.95439257e+02 -1.20597049e-04  2.03250457e+04],1991,2757.5854915008667
257,257,[-1.25472466e+03  3.78420144e+02 -7.13023322e-05  2.03250455e+04],872,2755.589427516326
258,258,[-1.33717408e+03  3.88431534e+02 -7.32421832e-05  2.25006033e+04],1968,2751.6540167237576
259,259,[-1.35110915e+03  3.21359062e+02 -2.22780458e-05  2.03256741e+04],2644,2755.6816792151117
260,260,[-9.05240508e+02  3.85428038e+02 -5.89352840e-05  2.03256741e+04],931,2758.4971016098975
261,261,[-1.26941159e+03  3.51390287e+02 -4.71439523e-05  2.03256740e+04],2494,2758.1946046267285
262,262,[-9.04927128e+02  3.83425656e+02 -6.29046922e-05  2.03256741e+04],1868,2755.3742075973087
263,263,[-1.27481821e+03  3.75415203e+02 -6.24011640e-05  2.03256741e+04],2725,2756.6722366714075
264,264,[-1.35103923e+03  3.65405083e+02 -6.21036787e-05  2.03256741e+04],902,2759.563003723817
265,265,[-8.86434982e+02  3.83425798e+02 -6.44220378e-05  2.03256741e+04],1526,2756.190710664247
266,266,[-8.30035777e+02  3.79421290e+02 -5.84174932e-05  2.03256741e+04],2560,2757.68659837285
267,267,[-1.30468543e+03  3.59399072e+02 -4.97868687e-05  2.03256741e+04],1607,2758.6855934158148
268,268,[-9.33779594e+02  3.87430262e+02 -5.85571521e-05  2.03256741e+04],1838,2754.6230021508195
269,269,[-1.23980305e+03  3.86418643e+02 -6.35175965e-05  2.03256663e+04],412,2755.575457175516
270,270,[-1.32000888e+03  3.74415690e+02 -7.29056305e-05  2.03256741e+04],1392,2753.461035799013
271,271,[-1.38011805e+03  3.78419884e+02 -7.18976275e-05  2.03256741e+04],2066,2757.168205117731
272,272,[-1.48970705e+03  3.41376049e+02 -3.56698825e-05  2.03256741e+04],2163,2759.8948249149475
273,273,[-1.34767609e+03  3.88430052e+02 -7.63109140e-05  2.03256643e+04],1715,2756.921911621404
274,274,[-9.18302704e+02  3.87430243e+02 -6.56376200e-05  2.03256741e+04],2089,2749.3404197831937
275,275,[-1.32405001e+03  3.62401866e+02 -5.92910765e-05  2.03256741e+04],1842,2757.083635632467
276,276,[-1.29007263e+03  3.50389066e+02 -4.83577242e-05  2.03256741e+04],2524,2757.0763991364015
277,277,[-1.51027048e+03  3.58398166e+02 -5.38448212e-05  2.99280483e+04],1010,2754.7766098766815
278,278,[-9.60921987e+02  3.87430214e+02 -5.00699724e-05  2.03284334e+04],1136,2758.2425095719905
279,279,[-9.34902542e+02  3.88431335e+02 -5.71834216e-05  2.03284334e+04],2680,2757.771097580774
280,280,[-1.31304058e+03  3.59398690e+02 -5.39028663e-05  2.03284334e+04],1593,2759.997445822358
281,281,[-1.51347088e+03  3.49387255e+02 -5.73279075e-05  2.03284334e+04],198,2749.579479953206
282,282,[-1.36510809e+03  3.43380656e+02 -3.00806419e-05  2.03284441e+04],1457,2755.1999542172803
283,283,[-1.32807966e+03  3.56395682e+02 -4.56600994e-05  2.03284334e+04],1190,2759.6374595885395
284,284,[-1.26913929e+03  3.67408106e+02 -5.30508980e-05  2.03284336e+04],2638,2758.325168869445
285,285,[-1.31346611e+03  3.80421416e+02 -9.51993820e-05  2.03284500e+04],1350,2752.418382940343
286,286,[-1.33922420e+03  3.50389178e+02 -4.72541716e-05  2.03284334e+04],1064,2757.5975611734534
287,287,[-1.32538501e+03  3.82423142e+02 -6.94671833e-05  2.03081924e+04],2655,2759.182437292543
288,288,[-1.37579150e+03  3.65405715e+02 -6.05613827e-05  2.03284276e+04],2217,2755.048026806299
289,289,[-1.43839516e+03  3.65401022e+02 -6.27745744e-05  2.03284276e+04],2657,2757.0608812053347
290,290,[-9.15304384e+02  3.84426902e+02 -6.12852726e-05  2.03284276e+04],1718,2753.575217587552
291,291,[-8.81698947e+02  3.82424769e+02 -6.05905980e-05  2.03284277e+04],1079,2758.1407300630026
292,292,[-1.41445780e+03  3.45381286e+02 -3.71260433e-05  2.03284860e+04],2654,2759.5054370106945
293,293,[-1.50191850e+03  3.71410103e+02 -6.51542439e-05  2.03284276e+04],1451,2754.6327777310107
294,294,[-1.34168489e+03  3.84426450e+02 -6.98420197e-05  2.03284276e+04],2488,2755.5641555438124
295,295,[-1.44699898e+03  3.58396970e+02 -5.01909035e-05  2.03284446e+04],2364,2754.518004733101
296,296,[-1.38221923e+03  3.47385812e+02 -3.50273628e-05  2.03284276e+04],1015,2756.720361449171
297,297,[-1.28984738e+03  3.64404313e+02 -4.92102374e-05  2.03284276e+04],1116,2757.9345178365315
298,298,[-1.32199884e+03  3.70411454e+02 -6.04265468e-05  2.03284275e+04],2185,2754.8296905898123
299,299,[-1.25075699e+03  3.85427847e+02 -6.41782238e-05  2.03589217e+04],1775,2748.6614430345926
300,300,[-1.36993150e+03  3.21357180e+02 -2.38930110e-05  2.03284362e+04],378,2759.0039481411472
301,301,[-1.45754727e+03  3.20357350e+02 -2.80521870e-05  2.03284363e+04],280,2755.439599782135
302,302,[-1.36546965e+03  3.46384847e+02 -4.42763123e-05  2.95224461e+04],1966,2757.464522598643
303,303,[-1.31967335e+03  3.66406496e+02 -5.28456777e-05  2.03310594e+04],2253,2759.2319339298474
304,304,[-9.43059075e+02  3.88431411e+02 -6.13230493e-05  2.03310594e+04],1900,2757.312437134493
305,305,[-1.34099802e+03  3.77417613e+02 -7.25687599e-05  2.03310594e+04],1803,2757.8171147196067
306,306,[-1.45757014e+03  3.75417072e+02 -6.60291904e-05  2.50813262e+04],810,2757.548331733095
307,307,[-1.30095482e+03  3.83425842e+02 -7.36862052e-05  2.38774533e+04],2735,2759.6252101033206
308,308,[-1.36585081e+03  3.84427123e+02 -8.81096810e-05  9.34219675e+04],1225,2747.954922933037
309,309,[-1.29336635e+03  3.71412285e+02 -5.39085118e-05  2.03542402e+04],2196,2755.8452864750534
310,310,[-1.31347433e+03  3.44380806e+02 -3.05342363e-05  2.03542402e+04],786,2759.0455757539257
311,311,[-1.46655206e+03  3.70410702e+02 -7.34746136e-05  2.03542402e+04],2727,2756.712177749694
312,312,[-1.36729135e+03  3.65405352e+02 -6.27145054e-05  2.03542402e+04],741,2758.7340470404292
313,313,[-1.34383490e+03  3.64404309e+02 -4.79116787e-05  2.03542402e+04],831,2755.7370438882263
314,314,[-1.34778176e+03  3.84426573e+02 -7.01952162e-05  2.03542445e+04],2164,2756.585787781047
315,315,[-9.56217068e+02  3.88431357e+02 -7.11770826e-05  2.03542402e+04],1384,2757.3684076407926
316,316,[-1.36932979e+03  3.81422138e+02 -8.66629783e-05  2.03542402e+04],2581,2755.2187240755466
317,317,[-1.58995728e+03  3.19357697e+02 -3.00461733e-05  2.03542402e+04],2064,2758.7123924564426
318,318,[-9.49788546e+02  3.87430224e+02 -6.24025891e-05  2.03542402e+04],760,2758.557073742048
319,319,[-9.15888887e+02  3.83425800e+02 -6.40995498e-05  2.03542402e+04],343,2755.2657075810603
320,320,[-1.35002686e+03  3.49388110e+02 -4.08809767e-05  2.03542400e+04],1705,2756.3825657469365
321,321,[-1.50752057e+03  3.20357849e+02 -2.66076310e-05  1.82284102e+04],2765,2758.9880644077593
322,322,[-8.94971868e+02  3.82424588e+02 -6.89088934e-05  2.03536369e+04],879,2758.5376974047963
323,323,[-1.31101130e+03  3.83425699e+02 -9.40897450e-05  2.03536369e+04],1367,2755.0930148242724
324,324,[-9.06872380e+02  3.83425791e+02 -5.78666153e-05  2.03536369e+04],1969,2757.1228666927163
325,325,[-8.51452242e+02  3.80422466e+02 -7.51346557e-05  2.03536369e+04],1660,2757.8970651551226
326,326,[-1.41606321e+03  3.83425781e+02 -8.61649070e-05  2.03538801e+04],435,2756.817820683532
327,327,[-9.11053143e+02  3.83425797e+02 -5.86320769e-05  2.03536370e+04],2317,2758.1778768348327
328,328,[-9.14851040e+02  3.83425750e+02 -6.92191285e-05  2.03536370e+04],2161,2755.4414174413623
329,329,[-8.78932193e+02  3.81423564e+02 -6.93275252e-05  2.03536370e+04],2426,2757.706415233771
330,330,[-1.39008369e+03  3.64404552e+02 -5.26337755e-05  2.03536370e+04],1134,2759.4390552926934
331,331,[-1.56214582e+03  3.25361475e+02 -3.81149724e-05  2.03536305e+04],2539,2754.1581734615147
332,332,[-1.33673681e+03  3.81420379e+02 -8.12529153e-05  2.03536378e+04],1163,2756.7435153789365
333,333,[-1.32063421e+03  3.47385819e+02 -3.64802636e-05  2.03536370e+04],510,2750.9780700756764
334,334,[-9.78705337e+02  3.87430205e+02 -5.72429160e-05  2.03536370e+04],1325,2759.0809233801356
335,335,[-1.60319862e+03  3.26362061e+02 -3.76553184e-05  2.03536370e+04],2226,2754.3863853309417
336,336,[-1.57046999e+03  3.42315639e+02 -4.35596674e-05  2.03536370e+04],272,2758.1305328324615
337,337,[-1.42834442e+03  3.50387871e+02 -5.33794645e-05  2.03536370e+04],1456,2755.036827431323
338,338,[-1.47108564e+03  3.22358419e+02 -3.23667700e-05  2.03536370e+04],1780,2756.959489175539
339,339,[-9.80377133e+02  3.86429000e+02 -6.03135091e-05  2.03536370e+04],972,2758.568465889468
340,340,[-1.30555913e+03  3.55394598e+02 -5.62206004e-05  2.03536370e+04],2397,2755.607952196026
341,341,[-1.39496231e+03  3.55394824e+02 -4.81857510e-05  2.36762479e+04],2632,2753.5778672923852
342,342,[-1.24493293e+03  3.41378987e+02 -3.06358434e-05  2.03545745e+04],489,2758.9224723615894
343,343,[-1.48456353e+03  3.51390414e+02 -4.52799531e-05  2.89648048e+04],965,2759.9489574650365
344,344,[-1.23813387e+03  3.41379082e+02 -4.18858329e-05  2.03570027e+04],2736,2755.7012034681366
345,345,[-1.63666522e+03  3.24360408e+02 -3.61592414e-05  2.30307280e+04],1006,2754.6974867845915
346,346,[-1.23158562e+03  3.83398843e+02 -6.84461500e-05  2.03577563e+04],2184,2757.53538869492
347,347,[-1.43250820e+03  3.74412888e+02 -7.85968330e-05  2.03577563e+04],2618,2757.0079550083565
348,348,[-9.17233396e+02  3.82424687e+02 -5.71950954e-05  2.03577563e+04],502,2755.8300564969
349,349,[-1.35457963e+03  3.88431545e+02 -6.64358944e-05  2.72619446e+04],2267,2759.3165573646
350,350,[-1.33480989e+03  3.66406179e+02 -6.14105169e-05  2.03597000e+04],2594,2760.4335919953505
351,351,[-1.29714848e+03  3.61401185e+02 -6.44643459e-05  2.03597000e+04],1112,2747.2514647595517
352,352,[-9.35932939e+02  3.84426823e+02 -6.53488332e-05  2.03597000e+04],460,2751.709935088854
353,353,[-9.03802017e+02  3.82424756e+02 -6.27361368e-05  2.03597000e+04],524,2759.19437648883
354,354,[-1.29876181e+03  3.53392593e+02 -4.21499685e-05  2.03597002e+04],454,2759.372291708823
355,355,[-1.44697152e+03  3.39358434e+02 -3.69863651e-05  2.03597000e+04],1007,2752.2569090165
356,356,[-1.30116103e+03  3.86428339e+02 -8.69602440e-05  2.03597000e+04],1297,2756.70651504306
357,357,[-8.96404109e+02  3.81423404e+02 -7.50244883e-05  2.03597000e+04],898,2755.8179096433496
358,358,[-1.43560109e+03  3.22358667e+02 -2.59640660e-05  2.03597000e+04],1745,2756.077119345689
359,359,[-1.01738259e+03  3.88431342e+02 -5.87529251e-05  2.03597000e+04],1400,2758.866306530037
360,360,[-1.30437019e+03  3.43381292e+02 -4.06394596e-05  2.03597000e+04],2408,2757.8797284935313
361,361,[-1.31706674e+03  3.59398949e+02 -6.35681565e-05  2.03597000e+04],1288,2753.781751911463
362,362,[-1.37482847e+03  3.20361752e+02 -2.59328184e-05  2.03597000e+04],1689,2755.3100581637086
363,363,[-9.52298865e+02  3.86429075e+02 -7.91151412e-05  2.03597000e+04],512,2753.224849729334
364,364,[-1.30346671e+03  3.68409143e+02 -6.01296298e-05  2.03597000e+04],1801,2757.566146707713
365,365,[-1.40277384e+03  3.50301171e+02 -4.10632255e-05  2.03597000e+04],2476,2757.3698350208847
366,366,[-1.31042189e+03  3.86424625e+02 -7.12445158e-05  2.03597000e+04],1320,2757.9889856766786
367,367,[-1.18976812e+03  3.35372364e+02 -3.58614654e-05  2.03597000e+04],450,2755.1822801511503
368,368,[-8.58447603e+02  3.79421294e+02 -8.41311470e-05  2.03597000e+04],1259,2754.9249336251514
369,369,[-1.37511974e+03  3.56395664e+02 -6.43913441e-05  2.03597000e+04],2211,2757.229991971627
370,370,[-9.17155100e+02  3.82424661e+02 -5.90141548e-05  2.03597000e+04],942,2757.8669435205097
371,371,[-1.30588970e+03  3.79419002e+02 -7.20353463e-05  2.03597000e+04],2486,2759.3418181286106
372,372,[-1.31668013e+03  3.82423146e+02 -6.87321710e-05  2.03597000e+04],2299,2756.3044057766015
373,373,[-1.31563112e+03  3.86429323e+02 -7.45105296e-05  2.70938914e+04],409,2758.841076488393
374,374,[-1.38677580e+03  3.60399654e+02 -5.35938000e-05  2.03615832e+04],2172,2755.8850172092784
375,375,[-1.50401060e+03  3.51390383e+02 -5.22493144e-05  2.03615069e+04],1556,2755.492387387648
376,376,[-1.24777853e+03  3.84426233e+02 -5.61413157e-05  2.03615853e+04],900,2757.965051487585
377,377,[-1.04916912e+03  3.98442495e+02 -1.28204475e-04  2.03615832e+04],2333,2760.4636572790832
378,378,[-1.29832417e+03  3.49387620e+02 -4.24515624e-05  2.03615832e+04],1412,2760.000077177342
379,379,[-1.46871671e+03  3.55367886e+02 -4.39636624e-05  2.03615832e+04],722,2754.5083516307473
380,380,[-9.74444751e+02  3.86429233e+02 -5.97051594e-05  2.03615834e+04],208,2757.968564933429
381,381,[-9.47638394e+02  3.84426905e+02 -6.50674928e-05  2.03615832e+04],1379,2754.7967391593256
382,382,[-1.39210440e+03  3.62402397e+02 -6.97362070e-05  2.03615832e+04],2381,2752.796023751293
383,383,[-1.24292226e+03  3.42379853e+02 -3.17802544e-05  2.03615832e+04],2406,2754.194560986814
384,384,[-9.61328046e+02  3.85427976e+02 -4.94238862e-05  2.03615832e+04],2010,2758.0894789151816
385,385,[-9.21347947e+02  3.82424756e+02 -8.00896780e-05  2.03615832e+04],1937,2756.74267237026
386,386,[-1.35924778e+03  3.86429256e+02 -8.51981843e-05  2.04771774e+04],504,2754.4633758984264
387,387,[-8.64933823e+02  3.77419135e+02 -9.03776587e-05  2.03616154e+04],1438,2754.3468523051756
388,388,[-1.31852118e+03  3.55394382e+02 -4.94586121e-05  2.03616154e+04],1876,2750.4109295524963
389,389,[-1.31564321e+03  3.50389270e+02 -3.74026979e-05  2.03616138e+04],1283,2759.0228729659357
390,390,[-1.32272623e+03  3.54393248e+02 -3.94238239e-05  2.03616154e+04],802,2759.298074538019
391,391,[-1.41212938e+03  3.90429793e+02 -7.60436443e-05  2.03616166e+04],506,2757.2714587129344
392,392,[-1.36858349e+03  3.62402448e+02 -4.66774019e-05  2.03616154e+04],2682,2758.555205011289
393,393,[-9.96713843e+02  3.88431397e+02 -5.61034876e-05  2.03616154e+04],2110,2758.8165786865256
394,394,[-9.71309480e+02  3.85427983e+02 -6.64654706e-05  2.03616154e+04],2572,2758.198812130709
395,395,[-1.35875906e+03  3.80417354e+02 -6.91964720e-05  2.03616167e+04],2186,2751.498009739434
396,396,[-9.20082991e+02  3.82424684e+02 -6.12558780e-05  2.03616154e+04],1186,2747.003350473417
397,397,[-1.52506498e+03  3.22358198e+02 -2.86034364e-05  3.75940354e+04],987,2756.7956610117876
398,398,[-1.00920850e+03  3.94438091e+02 -1.34745058e-04  2.03664021e+04],983,2759.429392119396
399,399,[-1.46121759e+03  3.64404083e+02 -6.77162437e-05  2.03664021e+04],1641,2757.5547524471012
400,400,[-1.35692066e+03  3.56395645e+02 -4.94254686e-05  2.03664021e+04],434,2754.2377843902377
401,401,[-1.29145405e+03  3.85428024e+02 -6.02508462e-05  2.03664804e+04],2738,2757.9118136371058
402,402,[-1.39082310e+03  3.68406589e+02 -6.99275846e-05  2.03664022e+04],2190,2758.08935701268
403,403,[-9.53599879e+02  3.84426695e+02 -6.15261931e-05  2.03664022e+04],169,2754.7017154132227
404,404,[-1.32723250e+03  3.22358303e+02 -2.05269295e-05  2.03664020e+04],1262,2755.342018074394
405,405,[-1.43237363e+03  3.22358390e+02 -2.59786292e-05  2.03664022e+04],1354,2759.310493191085
406,406,[-1.45491435e+03  3.69408344e+02 -7.45193849e-05  2.03664022e+04],2413,2753.0561711397795
407,407,[-1.00489297e+03  3.95439206e+02 -7.69716481e-05  2.03664022e+04],1368,2752.8075928055405
408,408,[-1.58088192e+03  3.23361100e+02 -3.07814230e-05  2.03664326e+04],1177,2758.759367420435
409,409,[-9.60941571e+02  3.84426825e+02 -7.06879399e-05  2.03664022e+04],1606,2759.75167238561
410,410,[-1.47060365e+03  3.53392622e+02 -5.36298642e-05  2.22799632e+04],961,2753.9482514608626
411,411,[-9.72345878e+02  3.86428978e+02 -6.22442484e-05  2.03669318e+04],2136,2756.2087274342857
412,412,[-1.37510874e+03  3.52391221e+02 -4.44837073e-05  2.03669318e+04],2770,2760.0979569082238
413,413,[-1.36027357e+03  3.54393397e+02 -4.43263621e-05  2.03669318e+04],668,2757.167046709198
414,414,[-1.39710404e+03  3.87430244e+02 -9.35888849e-05  2.03673398e+04],2266,2754.875345001791
415,415,[-1.62666079e+03  3.23359347e+02 -3.35096899e-05  2.03665238e+04],2567,2757.9235724148125
416,416,[-1.49826303e+03  3.19358550e+02 -2.81794320e-05  2.03669318e+04],1958,2758.4198840322947
417,417,[-9.31510620e+02  3.82424409e+02 -5.72479755e-05  2.03669318e+04],283,2757.1926774272088
418,418,[-1.27441535e+03  3.52390876e+02 -4.20205163e-05  2.03669318e+04],561,2757.1048356351557
419,419,[-8.90066846e+02  3.80422429e+02 -5.14029550e-05  2.03669318e+04],1986,2753.262717242445
420,420,[-8.78665655e+02  3.79421308e+02 -6.14158941e-05  2.03669318e+04],307,2758.238059198802
421,421,[-1.41458053e+03  3.76415942e+02 -6.28900793e-05  2.03669318e+04],2271,2753.654876721825
422,422,[-1.39878993e+03  3.69409864e+02 -5.96283726e-05  2.03669318e+04],1878,2759.324792442751
423,423,[-1.46984669e+03  3.46384825e+02 -4.16815185e-05  2.76491136e+04],1941,2760.1539956458414
424,424,[-1.02505873e+03  3.87430230e+02 -5.17975603e-05  2.03689401e+04],2120,2757.2037535264903
425,425,[-9.41166992e+02  3.83425771e+02 -7.75789872e-05  2.03689401e+04],1260,2755.9789265169466
426,426,[-1.40695982e+03  3.63403512e+02 -5.34909924e-05  2.03689401e+04],2380,2755.2109625806734
427,427,[-1.47365313e+03  3.50330178e+02 -4.15101055e-05  2.03689401e+04],1553,2757.75414578576
428,428,[-1.38209464e+03  3.80420906e+02 -6.48443897e-05  2.03689401e+04],1273,2758.8281953383325
429,429,[-1.31780597e+03  3.86427086e+02 -8.08851866e-05  2.03689401e+04],1577,2755.198501889763
430,430,[-1.34537192e+03  3.85427544e+02 -7.35487723e-05  2.03689401e+04],1611,2755.3044340727524
431,431,[-1.32797012e+03  3.82561363e+02 -6.74596408e-05  2.03689401e+04],2249,2759.3392638550577
432,432,[-1.36241861e+03  3.62401554e+02 -5.14608625e-05  2.03689401e+04],2346,2758.949545828401
433,433,[-1.40723929e+03  3.59398854e+02 -4.99234926e-05  2.03689401e+04],1893,2755.4162505510276
434,434,[-1.36600402e+03  3.83425988e+02 -6.95553465e-05  3.19690869e+04],1151,2759.6980859536616
435,435,[-1.35801841e+03  3.85427876e+02 -7.13672264e-05  2.03721296e+04],1683,2759.912889341212
436,436,[-1.47630117e+03  3.22359171e+02 -2.84394533e-05  2.04237890e+04],667,2753.4273987265724
437,437,[-9.79094335e+02  3.86428859e+02 -6.20005758e-05  2.03721438e+04],1927,2755.800577458451
438,438,[-1.55893066e+03  3.21358776e+02 -3.27773908e-05  2.03721438e+04],2599,2754.4309826588697
439,439,[-1.36995571e+03  3.63403151e+02 -6.31470295e-05  2.03721438e+04],264,2759.2223493907477
440,440,[-1.48634166e+03  3.48386855e+02 -4.84439198e-05  2.03721438e+04],2614,2759.0709895228824
441,441,[-9.07786456e+02  3.81423539e+02 -5.18744312e-05  2.03721438e+04],2316,2756.676765334156
442,442,[-1.45731025e+03  3.66406458e+02 -5.68485683e-05  2.03721507e+04],765,2758.419343501157
443,443,[-1.64986276e+03  3.69410412e+02 -6.56158018e-05  2.29244745e+04],1985,2758.6559562921643
444,444,[-1.50787678e+03  3.39375357e+02 -4.32393527e-05  2.03728439e+04],1754,2758.290419917369
445,445,[-1.30984211e+03  3.84427106e+02 -6.45989486e-05  3.34437061e+04],2768,2759.243768256989
446,446,[-1.39376161e+03  3.67407446e+02 -6.16926206e-05  2.03764269e+04],2516,2760.154698783219
447,447,[-9.77014725e+02  3.84426667e+02 -6.51980347e-05  2.03764269e+04],1691,2755.2356763204098
448,448,[-1.35351039e+03  3.81423566e+02 -6.38579421e-05  2.03786181e+04],1132,2758.0737428597517
449,449,[-1.44569594e+03  3.39373888e+02 -3.28789590e-05  2.03764275e+04],1886,2754.3120646516977
450,450,[-9.49663236e+02  3.84426825e+02 -6.66039607e-05  2.03764275e+04],1933,2759.7754449615504
451,451,[-1.35638742e+03  3.79421542e+02 -6.66329944e-05  4.13087783e+04],2302,2760.4343851602957
452,452,[-9.96218496e+02  3.89432343e+02 -7.53366371e-05  2.03821561e+04],2559,2753.5872021016003
453,453,[-1.00689062e+03  3.87430144e+02 -4.69371233e-05  2.03821561e+04],2030,2747.9232037401794
454,454,[-1.30140604e+03  3.87430367e+02 -6.73442722e-05  2.49226362e+04],1040,2759.8078817623045
455,455,[-1.37428654e+03  3.55394761e+02 -4.90084305e-05  2.03833977e+04],2439,2759.2400247722703
456,456,[-1.42873904e+03  3.44382411e+02 -4.76990254e-05  2.03833977e+04],2733,2757.9845544620553
457,457,[-1.31002744e+03  3.47385290e+02 -3.76081091e-05  2.03833977e+04],1375,2756.8306508786222
458,458,[-1.37735469e+03  3.66404955e+02 -5.27846661e-05  2.03833977e+04],531,2753.8330280561504
459,459,[-1.55614878e+03  3.68408960e+02 -7.58183148e-05  2.03834076e+04],1814,2754.3841207941937
460,460,[-1.33241060e+03  3.85425857e+02 -6.63649220e-05  2.03833977e+04],2619,2759.8280701967656
461,461,[-1.00587952e+03  3.86429064e+02 -5.84836034e-05  2.03833977e+04],1324,2758.9974684678455
462,462,[-9.00730554e+02  3.80422502e+02 -9.16851036e-05  2.03833977e+04],764,2757.7225977628236
463,463,[-1.47198624e+03  3.49388179e+02 -4.91733949e-05  2.37282886e+04],873,2756.068990318201
464,464,[-1.47659914e+03  3.84427082e+02 -7.16865207e-05  1.99524113e+04],1198,2746.457583458215
465,465,[-9.61513227e+02  3.85427987e+02 -6.80526591e-05  2.03841923e+04],725,2759.126834882397
466,466,[-1.33707054e+03  3.83424298e+02 -7.04258553e-05  2.08335692e+04],292,2758.730440368211
467,467,[-1.47169302e+03  3.22359273e+02 -2.62607872e-05  2.03843148e+04],1912,2759.170495653763
468,468,[-1.43747274e+03  3.44366227e+02 -3.50115603e-05  2.03843148e+04],1721,2755.9572457397962
469,469,[-1.35691656e+03  3.83425768e+02 -6.81371792e-05  2.03845663e+04],1727,2758.858681239873
470,470,[-9.57595839e+02  3.84426835e+02 -6.65160974e-05  2.03843149e+04],745,2758.817958608357
471,471,[-1.00952199e+03  3.91434759e+02 -7.10661638e-05  2.03843149e+04],2613,2754.481169178438
472,472,[-1.45986402e+03  3.22358354e+02 -2.65053686e-05  2.03843148e+04],2537,2759.184572033378
473,473,[-1.36615349e+03  3.79420743e+02 -6.06702005e-05  2.03843149e+04],842,2760.1700840020703
474,474,[-9.41656021e+02  3.81423570e+02 -7.34233674e-05  2.03843149e+04],1588,2757.1880322129114
475,475,[-1.52422306e+03  3.59399244e+02 -6.25067393e-05  2.28445791e+04],1874,2758.4523470763284
476,476,[-1.23306118e+03  3.87430087e+02 -6.34742899e-05  2.03851450e+04],516,2755.8627181024945
477,477,[-9.79561756e+02  3.84426903e+02 -5.74504591e-05  2.03849838e+04],2251,2759.1074887520463
478,478,[-1.42756505e+03  3.81423612e+02 -5.79660760e-05  2.03854698e+04],2547,2760.3900888067465
479,479,[-1.55582748e+03  3.55394836e+02 -4.83775622e-05  2.50858568e+04],2203,2759.1349218282007
480,480,[-1.32619925e+03  3.84427088e+02 -7.45815941e-05  2.80968019e+04],1866,2748.6680293476197
481,481,[-1.38145941e+03  3.66406063e+02 -5.76622447e-05  2.03883542e+04],2284,2757.70961326862
482,482,[-1.21880322e+03  3.84422374e+02 -6.32573387e-05  2.03964425e+04],2130,2754.123516569719
483,483,[-9.55488689e+02  3.83425737e+02 -6.96531451e-05  2.03883564e+04],1181,2757.6804494396465
484,484,[-1.29715129e+03  3.86425061e+02 -7.17468644e-05  2.03883564e+04],2261,2752.0136145130596
485,485,[-9.54457055e+02  3.83425682e+02 -7.28013405e-05  2.03883564e+04],1374,2756.1480830641635
486,486,[-9.91589742e+02  3.86428987e+02 -6.41718389e-05  2.03883564e+04],2324,2754.075461346873
487,487,[-9.74151085e+02  3.85427980e+02 -5.56005558e-05  2.03883564e+04],1162,2754.2918431166054
488,488,[-1.63185063e+03  3.23364291e+02 -3.36087359e-05  2.03883564e+04],1468,2760.384177345891
489,489,[-9.73061364e+02  3.85427933e+02 -7.49110349e-05  2.03883564e+04],1011,2759.873657609475
490,490,[-1.33892756e+03  3.77419256e+02 -9.03590609e-05  2.09001190e+04],2495,2753.1036601411693
491,491,[-1.28544830e+03  3.84426449e+02 -7.04338468e-05  1.74261766e+04],1063,2758.712087777637
492,492,[-1.28977978e+03  3.86429150e+02 -5.66152493e-05  7.07506472e+03],1631,2757.575180550714
493,493,[-1.59751867e+03  3.21357095e+02 -3.11987889e-05  3.93191964e+04],2500,2755.404615627957
494,494,[-1.38620995e+03  3.57396734e+02 -5.92632614e-05  2.03892133e+04],1223,2751.1780903562376
495,495,[-1.26412807e+03  3.57396976e+02 -5.28679116e-05  2.03892134e+04],2622,2746.8409771179918
496,496,[-1.40975400e+03  3.42379232e+02 -3.29461176e-05  2.03892133e+04],2574,2759.385125629024
497,497,[-9.87112880e+02  3.85427968e+02 -1.01531037e-04  2.03892133e+04],1108,2755.0174030993476
498,498,[-1.02043655e+03  3.92435809e+02 -1.44776455e-04  2.03892133e+04],1964,2751.822691448629
499,499,[-1.36821707e+03  3.83425524e+02 -7.19859643e-05  2.03892133e+04],330,2757.8547810659024
500,500,[-8.90284366e+02  3.78420099e+02 -1.06002545e-04  2.03892133e+04],2645,2756.4713667141864
501,501,[-1.47246479e+03  3.59398953e+02 -4.77004804e-05  2.03892153e+04],2489,2758.851253409872
502,502,[-1.00138146e+03  3.87430262e+02 -7.62575073e-05  2.03892133e+04],2002,2759.836138526306
503,503,[-1.40301621e+03  3.87429227e+02 -7.47209520e-05  2.03892133e+04],2111,2756.557299894828
504,504,[-9.35226817e+02  3.83425655e+02 -6.21282079e-05  2.03892133e+04],881,2759.722838449017
505,505,[-1.46351756e+03  3.89432677e+02 -8.66296879e-05  5.44337478e+04],398,2758.3419253880443
506,506,[-1.33210192e+03  3.82424826e+02 -7.54762938e-05  2.05571151e+04],1216,2759.7087191752526
507,507,[-9.70968166e+02  3.84426885e+02 -9.53185521e-05  2.03984375e+04],1089,2753.895563174
508,508,[-1.01717550e+03  3.88431370e+02 -7.40525141e-05  2.03984375e+04],1115,2751.0202699281817
509,509,[-1.41106299e+03  3.49387351e+02 -3.98974990e-05  2.03984375e+04],159,2756.4124689124724
510,510,[-1.30928694e+03  3.89419150e+02 -7.15177652e-05  2.03984389e+04],1031,2759.898073075812
511,511,[-9.30718339e+02  3.81423554e+02 -5.94353089e-05  2.03984375e+04],134,2758.3007876105785
512,512,[-9.60180791e+02  3.84426863e+02 -7.04545370e-05  2.03984375e+04],1839,2759.782916028369
513,513,[-1.31329561e+03  3.87429799e+02 -8.71868051e-05  2.03984375e+04],693,2753.621460178354
514,514,[-1.03436273e+03  3.96440054e+02 -8.51480448e-05  2.03984375e+04],1432,2750.833287522225
515,515,[-9.93497714e+02  3.86428987e+02 -8.08408996e-05  2.03984375e+04],1694,2751.510892031541
516,516,[-1.38354015e+03  3.86429012e+02 -6.32234936e-05  2.05112824e+04],496,2759.4857451493103
517,517,[-1.01041251e+03  3.86429035e+02 -5.73064359e-05  2.03984678e+04],2037,2757.5537768821496
518,518,[-9.21003050e+02  3.80422455e+02 -7.03778839e-05  2.03984678e+04],878,2753.1354715355506
519,519,[-1.30759251e+03  3.84427113e+02 -6.67524819e-05  9.36930945e+04],1197,2758.2170261210053
520,520,[-9.81365023e+02  3.85427942e+02 -7.53045428e-05  2.04181601e+04],1982,2756.7158368187816
521,521,[-1.03746845e+03  3.87430320e+02 -6.80057628e-05  2.04181601e+04],865,2754.9678434038933
522,522,[-1.43654055e+03  3.52391319e+02 -5.63778743e-05  2.04181601e+04],44,2751.383124847958
523,523,[-1.38069699e+03  3.51390391e+02 -5.10469827e-05  2.04181599e+04],354,2755.9287141633604
524,524,[-1.02677993e+03  3.88431080e+02 -6.02043036e-05  2.04181601e+04],1579,2759.8178788696273
525,525,[-1.30534159e+03  3.20356226e+02 -2.22601385e-05  2.04181601e+04],862,2755.7255965418562
526,526,[-1.38344228e+03  3.52391298e+02 -4.45664764e-05  2.04181601e+04],714,2756.027461740382
527,527,[-9.77479994e+02  3.84426929e+02 -5.22473339e-05  2.04181601e+04],757,2756.7566978562713
528,528,[-1.44455239e+03  3.56395629e+02 -5.31071172e-05  2.04181601e+04],130,2759.16242481345
529,529,[-1.02828660e+03  3.87430233e+02 -7.07163131e-05  2.04181601e+04],1865,2758.440313694599
530,530,[-1.30277964e+03  3.71410454e+02 -5.89637083e-05  2.04181601e+04],2008,2754.285393005592
531,531,[-9.55028290e+02  3.82424673e+02 -5.98913000e-05  2.04181601e+04],1335,2759.520005331206
532,532,[-1.50595096e+03  3.68408595e+02 -6.10106030e-05  2.04181601e+04],1416,2760.1606194334868
533,533,[-1.34702770e+03  3.73413604e+02 -6.41095975e-05  2.04181601e+04],1895,2757.0733583269766
534,534,[-1.29504343e+03  3.45383301e+02 -3.20974174e-05  2.04181601e+04],371,2756.5584645784124
535,535,[-1.01265764e+03  3.86428792e+02 -5.85048361e-05  2.04181601e+04],2285,2758.379655150684
536,536,[-1.31118737e+03  3.46384466e+02 -4.48400681e-05  2.04181601e+04],431,2756.3034308256883
537,537,[-1.25159250e+03  3.82424716e+02 -6.00544045e-05  2.04185778e+04],958,2757.473705965899
538,538,[-1.31488209e+03  3.46384751e+02 -3.51997462e-05  1.65240002e+04],2723,2755.7426720733765
539,539,[-9.90640713e+02  3.84426709e+02 -7.32367435e-05  2.04171193e+04],847,2754.7962405990256
540,540,[-9.87059255e+02  3.83425803e+02 -6.49222614e-05  2.04171193e+04],2328,2759.009929564004
541,541,[-1.40327063e+03  3.53392441e+02 -4.78462306e-05  2.04171193e+04],906,2760.185285736662
542,542,[-1.53558540e+03  3.24359173e+02 -3.27843776e-05  2.04171193e+04],1378,2756.6541534773223
543,543,[-1.37288356e+03  3.84427068e+02 -8.33854185e-05  2.48222392e+04],850,2753.9985873076075
544,544,[-1.34472134e+03  3.82424148e+02 -6.17051686e-05  2.04184266e+04],2197,2757.763048438729
545,545,[-9.91551919e+02  3.84426850e+02 -6.59172473e-05  2.04182952e+04],422,2756.6030959237596
546,546,[-1.41966991e+03  3.48386655e+02 -5.18263247e-05  2.04182952e+04],1166,2754.7462772167783
547,547,[-1.47860920e+03  3.60399921e+02 -5.79856417e-05  2.04182952e+04],2713,2750.298090230844
548,548,[-9.34642768e+02  3.80422444e+02 -7.07294003e-05  2.04182952e+04],349,2754.07597156531
549,549,[-1.02571201e+03  3.88430987e+02 -5.42841570e-05  2.04182952e+04],1023,2758.4299696978987
550,550,[-1.37527391e+03  3.45383288e+02 -4.51558407e-05  2.04182952e+04],649,2759.283700712902
551,551,[-1.62752699e+03  3.24359729e+02 -3.59162707e-05  2.04183605e+04],41,2756.0411003697395
552,552,[-1.03116960e+03  3.85427952e+02 -5.73099603e-05  2.04182953e+04],405,2757.669569880333
553,553,[-1.01463599e+03  3.84426891e+02 -6.32171142e-05  2.04182953e+04],2634,2752.6029208923605
554,554,[-9.85295116e+02  3.85427820e+02 -6.15626343e-05  2.04182953e+04],875,2760.1821628627386
555,555,[-1.39228434e+03  3.78388373e+02 -6.35920002e-05  2.04182953e+04],1828,2760.1988784332607
556,556,[-1.36792333e+03  3.59398584e+02 -5.22776845e-05  2.04182953e+04],390,2760.8481872451916
557,557,[-9.99622203e+02  3.85427811e+02 -6.88851677e-05  2.04182953e+04],2402,2759.055839894252
558,558,[-1.01370148e+03  3.86429144e+02 -6.46865518e-05  2.04182953e+04],2672,2754.0514791502483
559,559,[-9.84701034e+02  3.83425685e+02 -6.90222302e-05  2.04182953e+04],2113,2756.6050102377762
560,560,[-1.38540332e+03  3.85428206e+02 -6.01943348e-05  2.94139891e+04],2546,2754.798336990085
561,561,[-1.01301216e+03  3.86429113e+02 -4.79211728e-05  2.04206858e+04],1437,2759.629663036311
562,562,[-1.43532336e+03  3.57396722e+02 -5.78748416e-05  2.04206858e+04],550,2760.644988209369
563,563,[-1.46381009e+03  3.61401291e+02 -5.35765138e-05  2.04206858e+04],1050,2758.2018248943396
564,564,[-1.33916077e+03  3.53391429e+02 -3.55629629e-05  2.04206858e+04],2022,2752.2362814436356
565,565,[-1.51220243e+03  3.22360085e+02 -2.95132903e-05  2.04206858e+04],1107,2758.673377501414
566,566,[-1.41006142e+03  3.47385871e+02 -4.63564735e-05  2.04206857e+04],1409,2759.0733007175277
567,567,[-1.38203275e+03  3.48385863e+02 -4.37957622e-05  2.04206858e+04],2648,2757.3333179407173
568,568,[-1.06624713e+03  3.96440336e+02 -1.10633270e-04  2.04206858e+04],2579,2756.0640921082927
569,569,[-1.38422788e+03  3.54345178e+02 -3.69902116e-05  2.04206894e+04],2241,2754.7838974481633
570,570,[-1.00524816e+03  3.84426813e+02 -5.43016324e-05  2.04206858e+04],2637,2748.7191031792545
571,571,[-9.61413155e+02  3.83425867e+02 -7.07655849e-05  2.04206858e+04],874,2737.4446892072283
572,572,[-1.06162569e+03  3.86429049e+02 -6.53123503e-05  2.04206858e+04],844,2723.2654974501365
573,573,[-1.07846665e+03  3.90433379e+02 -5.06318532e-05  2.04206858e+04],1224,2729.1852925568123
574,574,[-1.06892143e+03  3.90433350e+02 -4.35219153e-05  2.04206858e+04],1650,2741.5985924768033
575,575,[-1.39286382e+03  3.22358285e+02 -2.47057352e-05  2.04206743e+04],2702,2750.6663813858686
576,576,[-1.17497131e+03  3.82424522e+02 -5.13120347e-05  2.57285340e+04],2577,2755.5814215908435
577,577,[-9.14320008e+02  3.79421251e+02 -6.88883675e-05  2.04220904e+04],2287,2752.708466543981
578,578,[-1.27869837e+03  3.82424475e+02 -7.52059539e-05  2.04220973e+04],761,2755.7336200514715
579,579,[-9.71103931e+02  3.84426914e+02 -6.83931166e-05  2.04220904e+04],1604,2754.446327094429
580,580,[-1.40155864e+03  3.56395830e+02 -5.35848263e-05  2.04220904e+04],1312,2757.2670425195674
581,581,[-1.49205412e+03  3.21364523e+02 -2.38818179e-05  2.04220904e+04],445,2756.298827237964
582,582,[-1.32421541e+03  3.37374545e+02 -2.51180590e-05  2.04220904e+04],1396,2756.0961903256316
583,583,[-1.35106284e+03  3.85422776e+02 -8.05004234e-05  2.04220904e+04],455,2758.5836774111517
584,584,[-1.43537385e+03  3.77419154e+02 -6.71164704e-05  2.04220904e+04],1527,2757.9687808675762
585,585,[-1.02620471e+03  3.87430176e+02 -6.91071070e-05  2.04220904e+04],813,2754.116022230354
586,586,[-1.44408848e+03  3.83425850e+02 -7.07496033e-05  2.04749331e+04],1996,2757.6704405926216
587,587,[-1.59042542e+03  3.23360760e+02 -2.84395043e-05  2.04221043e+04],1863,2756.8588601790325
588,588,[-1.04998405e+03  3.95439197e+02 -7.42583816e-05  2.04221043e+04],2371,2757.9586910928474
589,589,[-1.44580617e+03  3.61401365e+02 -5.66895132e-05  2.04221043e+04],2188,2758.9517762530186
590,590,[-1.36554150e+03  3.82424810e+02 -7.51483530e-05  2.65601013e+04],909,2755.9941717620945
591,591,[-1.35276665e+03  3.80422657e+02 -6.80612747e-05  4.89698342e+04],303,2757.365325673178
592,592,[-1.05718896e+03  3.91434788e+02 -1.52263358e-04  2.04312466e+04],1370,2756.049433077397
593,593,[-9.65377540e+02  3.82424680e+02 -1.03296422e-04  2.04312466e+04],2236,2757.5297042114476
594,594,[-1.26405698e+03  4.02447118e+02 -8.38773752e-05  2.47070953e+04],1597,2758.826556566733
595,595,[-1.38868216e+03  3.84427080e+02 -7.61808585e-05  2.27983917e+04],439,2754.856283487092
596,596,[-1.39821300e+03  3.66404932e+02 -6.23137651e-05  2.04329957e+04],2262,2753.5187949553188
597,597,[-1.44706890e+03  3.79421511e+02 -6.93784062e-05  2.23851011e+04],2179,2751.0090576455505
598,598,[-1.53886659e+03  3.91433464e+02 -9.95891151e-05  2.04335111e+04],772,2754.86913276062
599,599,[-1.45307708e+03  3.86427980e+02 -8.38041149e-05  2.04334979e+04],2566,2756.9511107531903
600,600,[-1.62035589e+03  3.21360526e+02 -3.40501203e-05  2.04335094e+04],2134,2755.9728415056916
601,601,[-1.10276776e+03  4.01445927e+02 -1.04043682e-04  2.04335094e+04],2686,2751.703476608906
602,602,[-1.74392793e+03  3.22358515e+02 -4.22525368e-05  2.04335094e+04],2199,2755.476118529577
603,603,[-1.37018067e+03  3.50388430e+02 -4.51323108e-05  2.04335094e+04],729,2754.286711088797
604,604,[-9.50098036e+02  3.82424665e+02 -6.23003720e-05  2.04335094e+04],1826,2755.109305638914
605,605,[-1.31767606e+03  3.81421516e+02 -7.55843660e-05  2.05031181e+04],1363,2751.546226542586
606,606,[-1.04537062e+03  3.80406463e+02 -4.79281506e-05  2.04335289e+04],1088,2751.293189504773
607,607,[-9.87030921e+02  3.84426974e+02 -6.67038856e-05  2.04335277e+04],353,2755.0165299079817
608,608,[-9.53820740e+02  3.80422454e+02 -7.68042531e-05  2.04335277e+04],2470,2756.1821185959416
609,609,[-1.40934412e+03  3.82424477e+02 -8.37119076e-05  2.04336628e+04],955,2755.258070505971
610,610,[-1.05940511e+03  3.90433569e+02 -6.21899598e-05  2.04335277e+04],472,2756.88321506922
611,611,[-9.92026664e+02  3.84426883e+02 -6.13094816e-05  2.04335277e+04],2306,2759.0252247476537
612,612,[-9.64367910e+02  3.82424614e+02 -8.48772497e-05  2.04335277e+04],1632,2755.10150218055
613,613,[-1.15766649e+03  3.88431430e+02 -5.95041812e-05  2.04335277e+04],2065,2752.5830122997622
614,614,[-1.06315205e+03  3.86429014e+02 -6.76996453e-05  2.04335277e+04],287,2748.5659174098246
615,615,[-1.46582214e+03  3.22361344e+02 -3.19127157e-05  2.04377059e+04],2601,2755.8190559865643
616,616,[-1.60853008e+03  3.23360086e+02 -3.32960125e-05  2.04349828e+04],1844,2757.527676194141
617,617,[-1.43728011e+03  3.50389260e+02 -4.80237098e-05  2.04335279e+04],633,2756.7936897516947
618,618,[-1.03655503e+03  3.92435795e+02 -1.39844331e-04  2.04335292e+04],467,2753.0462298344933
619,619,[-1.27332767e+03  3.85428012e+02 -7.51249212e-05  2.04335292e+04],1609,2751.763776249709
620,620,[-1.01983413e+03  3.89432365e+02 -1.86985418e-04  2.04335292e+04],2416,2754.3907264616873
621,621,[-1.29013212e+03  3.82424866e+02 -6.99963313e-05  3.00385428e+04],2527,2756.570875466321
622,622,[-1.23517081e+03  3.84426947e+02 -7.92093122e-05  2.36296822e+04],528,2758.1308938155316
623,623,[-9.95362008e+02  3.84426973e+02 -7.19579771e-05  2.04368759e+04],2098,2757.6235338398596
624,624,[-1.08136431e+03  3.94438108e+02 -1.39285133e-04  2.04368759e+04],1730,2757.1780473932104
625,625,[-9.50848334e+02  3.81423425e+02 -6.89802420e-05  2.04368759e+04],1329,2757.771355401765
626,626,[-9.74592368e+02  3.82424578e+02 -5.40552833e-05  2.04368759e+04],650,2752.838150030745
627,627,[-1.03451002e+03  3.85428027e+02 -4.87604595e-05  2.04368759e+04],882,2752.6677319398136
628,628,[-1.01973290e+03  3.84426859e+02 -7.25091490e-05  2.04368759e+04],2590,2750.544102413699
629,629,[-1.36656688e+03  3.61401358e+02 -4.28814720e-05  2.04368759e+04],1487,2755.96008419049
630,630,[-1.02185126e+03  3.85428009e+02 -7.75899040e-05  2.04368759e+04],2373,2757.9354847564146
631,631,[-9.91465275e+02  3.83425675e+02 -5.44636652e-05  2.04368759e+04],1648,2759.1358038504727
632,632,[-1.32826353e+03  3.50387639e+02 -3.95987827e-05  2.04368759e+04],631,2756.8159233482943
633,633,[-1.01893498e+03  3.85427980e+02 -5.97458638e-05  2.04368759e+04],479,2759.1755803951787
634,634,[-1.45391898e+03  3.83425972e+02 -7.52463682e-05  2.79344084e+04],1651,2748.749439840082
635,635,[-1.55212464e+03  3.21362920e+02 -3.30009954e-05  2.04388299e+04],746,2752.5652467044197
636,636,[-1.36870789e+03  3.57396844e+02 -5.39182690e-05  2.04388299e+04],465,2754.119336232499
637,637,[-1.07606577e+03  3.86428975e+02 -5.90150625e-05  2.04388299e+04],1231,2756.407435733463
638,638,[-1.36375123e+03  3.84426493e+02 -6.99171252e-05  2.04388199e+04],924,2758.428343576329
639,639,[-1.02335434e+03  3.85428007e+02 -6.62477893e-05  2.04388299e+04],792,2756.8704795853128
640,640,[-1.42572080e+03  3.91434191e+02 -9.61274147e-05  2.04388299e+04],867,2755.274550543715
641,641,[-9.92528078e+02  3.85428029e+02 -6.53491237e-05  2.04388299e+04],1408,2749.584148711274
642,642,[-1.02740830e+03  3.86429046e+02 -6.88363869e-05  2.04388299e+04],477,2760.1839826988607
643,643,[-1.43239060e+03  3.52391190e+02 -5.38363214e-05  2.04388299e+04],2383,2758.0949984520216
644,644,[-1.35155710e+03  3.85428226e+02 -6.39403911e-05  4.51437144e+04],2084,2758.3707024460246
645,645,[-1.00395562e+03  3.83425747e+02 -6.55999907e-05  2.04452517e+04],1404,2747.2618219643
646,646,[-9.74310612e+02  3.82424759e+02 -6.52276168e-05  2.04452518e+04],1388,2755.2183696412185
647,647,[-1.02109357e+03  3.91434675e+02 -9.85587274e-05  2.04452517e+04],2121,2757.343704832834
648,648,[-1.28629840e+03  3.79421362e+02 -8.23591213e-05  2.73843700e+04],1377,2757.742382742078
649,649,[-9.89601640e+02  3.83425684e+02 -6.69019265e-05  2.04470536e+04],1192,2759.312461321228
650,650,[-1.07560343e+03  3.89432403e+02 -8.26974797e-05  2.04470536e+04],1045,2759.1497289628423
651,651,[-9.99174279e+02  3.83425681e+02 -7.61342766e-05  2.04470536e+04],334,2753.4123829598566
652,652,[-9.26688489e+02  3.79421319e+02 -6.60778628e-05  2.04470536e+04],1770,2749.29887149104
653,653,[-1.05736439e+03  3.93436932e+02 -1.50747374e-04  2.04470536e+04],789,2750.8497065642905
654,654,[-1.39271031e+03  3.85428219e+02 -6.99231768e-05  5.26328065e+04],1849,2758.267255657346
655,655,[-1.42401637e+03  3.82424730e+02 -7.15977207e-05  4.20790457e+04],566,2755.7910756232122
656,656,[-1.45477381e+03  3.86429308e+02 -7.14884358e-05  2.33564817e+04],2016,2748.2932475695616
657,657,[-1.29724881e+03  3.89432460e+02 -7.13593611e-05  2.04617536e+04],102,2758.271735599163
658,658,[-1.38042872e+03  3.64404654e+02 -6.41410446e-05  2.04617822e+04],440,2756.820278475036
659,659,[-1.42915530e+03  3.60399890e+02 -6.59021957e-05  2.04617536e+04],1693,2756.0380434628237
660,660,[-1.50617544e+03  3.40377579e+02 -3.84109934e-05  2.04617536e+04],2116,2751.547246757958
661,661,[-1.46941647e+03  3.85427870e+02 -8.82222488e-05  2.04639209e+04],1884,2756.7860083036708
662,662,[-1.36469320e+03  3.91433882e+02 -1.07795847e-04  2.04605781e+04],1123,2754.877062415136
663,663,[-1.21933398e+03  3.87430319e+02 -7.51543156e-05  2.04617539e+04],557,2756.8793558121815
664,664,[-1.45651697e+03  3.84425789e+02 -7.38904638e-05  2.04617545e+04],2329,2757.328540977132
665,665,[-9.78315789e+02  3.81423543e+02 -7.90330874e-05  2.04617539e+04],1308,2749.398053602307
666,666,[-1.42132232e+03  3.87430444e+02 -8.42051005e-05  3.51424857e+04],310,2758.455887496433
667,667,[-1.38472223e+03  3.95438751e+02 -8.89405019e-05  2.05207802e+04],1736,2759.5694408698014
668,668,[-1.48350792e+03  3.18354037e+02 -2.84002855e-05  2.04655939e+04],2555,2759.6598935463494
669,669,[-9.62768656e+02  3.81423467e+02 -7.89008748e-05  2.04655626e+04],1383,2756.3243272119616
670,670,[-9.99813420e+02  3.84426846e+02 -6.74242333e-05  2.04655626e+04],2728,2754.9018689645522
671,671,[-9.90949954e+02  3.84426847e+02 -8.92999520e-05  2.04655626e+04],181,2755.2310219437286
672,672,[-1.09814509e+03  3.93436974e+02 -1.45849246e-04  2.04655626e+04],2352,2755.849030931997
673,673,[-1.43112078e+03  3.84427084e+02 -8.13151851e-05  2.36806721e+04],2000,2751.187936857709
674,674,[-1.09315044e+03  3.92435778e+02 -1.68420228e-04  2.04663921e+04],2312,2748.003794366462
675,675,[-1.05669619e+03  3.87430235e+02 -6.48591665e-05  2.04663921e+04],611,2749.5891321037197
676,676,[-1.47576637e+03  3.20356971e+02 -2.85682584e-05  2.04663938e+04],389,2755.019310778959
677,677,[-1.31403455e+03  3.88431565e+02 -6.86734138e-05  3.22723211e+04],1021,2757.863465554107
678,678,[-1.06931704e+03  3.87430195e+02 -5.25341565e-05  2.04694349e+04],2710,2756.930996046767
679,679,[-1.00549014e+03  3.88431289e+02 -8.56311835e-05  2.04694349e+04],1229,2754.3024477975446
680,680,[-1.01682185e+03  3.84426914e+02 -6.82488750e-05  2.04694349e+04],1782,2751.9329481792643
681,681,[-1.06421062e+03  3.91434635e+02 -1.71528514e-04  2.04694349e+04],540,2749.7891690248816
682,682,[-9.51384951e+02  3.80422419e+02 -7.63166471e-05  2.04694349e+04],1857,2754.9484682747757
683,683,[-9.76590067e+02  3.82424755e+02 -6.83674852e-05  2.04694349e+04],2339,2756.173991429275
684,684,[-1.05417384e+03  3.91434554e+02 -1.57408414e-04  2.04694349e+04],1246,2753.725803750623
685,685,[-1.00327010e+03  3.83425804e+02 -7.94241845e-05  2.04694349e+04],2563,2755.6812230781993
686,686,[-1.34464971e+03  3.83425996e+02 -7.68060576e-05  4.55611763e+04],300,2754.082653437057
687,687,[-1.32446022e+03  3.84426619e+02 -7.60067172e-05  2.04759296e+04],827,2753.704481217815
688,688,[-9.66041132e+02  3.81423572e+02 -6.05656590e-05  2.04758869e+04],755,2758.0954036186663
689,689,[-9.56346410e+02  3.81423370e+02 -5.45631145e-05  2.04758869e+04],461,2757.5604486146703
690,690,[-1.38197893e+03  3.41379178e+02 -3.79531924e-05  2.04758879e+04],1491,2755.677357394701
691,691,[-1.36597200e+03  3.85428051e+02 -8.46908678e-05  2.04759082e+04],1786,2757.242928799964
692,692,[-1.00197670e+03  3.83425677e+02 -7.62170278e-05  2.04758869e+04],2079,2751.198739387954
693,693,[-1.04906274e+03  3.94438049e+02 -8.09975511e-05  2.04758869e+04],1703,2759.3944585276404
694,694,[-1.03220772e+03  3.85427929e+02 -5.19080550e-05  2.04758869e+04],717,2757.8762002680187
695,695,[-1.58396732e+03  3.57397053e+02 -4.98229710e-05  2.40428064e+04],321,2748.963218580837
696,696,[-1.15297955e+03  3.87430215e+02 -5.87731082e-05  2.04768019e+04],1861,2752.0801528101656
697,697,[-9.48096193e+02  3.79421400e+02 -7.40761663e-05  2.04768019e+04],2542,2754.976018225703
698,698,[-1.00713695e+03  3.83425695e+02 -6.96126929e-05  2.04768019e+04],1105,2757.183955929774
699,699,[-1.39989869e+03  3.18355823e+02 -2.41933847e-05  2.04768019e+04],250,2756.1376436909363
700,700,[-9.50288664e+02  3.82424692e+02 -9.61078859e-05  2.04768019e+04],1892,2757.6233156069816
701,701,[-1.40747205e+03  3.82424400e+02 -7.15660834e-05  2.04797082e+04],2362,2750.934931386743
702,702,[-1.57241895e+03  3.24360301e+02 -3.52014824e-05  2.04768014e+04],209,2750.5461728586706
703,703,[-1.04019009e+03  3.85428073e+02 -7.32698636e-05  2.04768027e+04],2270,2751.2400972789364
704,704,[-9.72711005e+02  3.81423638e+02 -6.52605031e-05  2.04768027e+04],2509,2754.503195253256
705,705,[-9.71662148e+02  3.81423557e+02 -5.83418801e-05  2.04768027e+04],156,2754.04927852305
706,706,[-1.00350215e+03  3.83425891e+02 -7.70131515e-05  2.04768027e+04],905,2755.607421628291
707,707,[-9.19275689e+02  3.79421347e+02 -5.56091338e-05  2.04768027e+04],1911,2755.3356362535583
708,708,[-1.00749895e+03  3.82424561e+02 -1.00252836e-04  2.04768027e+04],2361,2755.5169308895843
709,709,[-1.03679552e+03  3.84426920e+02 -5.68686281e-05  2.04768027e+04],1533,2756.2530269087315
710,710,[-1.45121185e+03  3.70411111e+02 -5.86085147e-05  2.04768027e+04],2401,2757.0611984200186
711,711,[-1.23889671e+03  3.84426921e+02 -6.08224342e-05  2.04768122e+04],131,2758.4130823160035
712,712,[-1.01280659e+03  3.86429157e+02 -8.05312189e-05  2.04768027e+04],1290,2758.880241945978
713,713,[-1.26241492e+03  3.82424470e+02 -6.42119062e-05  2.04768930e+04],589,2758.0254135343466
714,714,[-1.33270779e+03  3.54393683e+02 -3.82107657e-05  2.04768014e+04],1455,2759.3649480843587
715,715,[-1.05266492e+03  3.87430201e+02 -5.76749632e-05  2.04768027e+04],2523,2760.3647523979766
716,716,[-1.36582855e+03  3.45383081e+02 -4.04981795e-05  2.04768027e+04],432,2758.8041675583777
717,717,[-1.54629992e+03  3.57397019e+02 -4.61248044e-05  2.17861997e+04],1572,2758.988364438081
718,718,[-1.50597413e+03  3.90433769e+02 -7.17495804e-05  2.88456310e+04],739,2753.2245373338314
719,719,[-1.52108338e+03  3.19360613e+02 -2.29677699e-05  2.04792710e+04],1867,2758.6658359746516
720,720,[-1.43350273e+03  3.86428395e+02 -8.07326249e-05  2.04768978e+04],936,2754.714966300497
721,721,[-1.31413405e+03  3.43380710e+02 -3.39618051e-05  2.04792704e+04],2716,2756.9766508693747
722,722,[-1.44354164e+03  3.50388584e+02 -4.31772137e-05  2.04792704e+04],63,2759.7354240115774
723,723,[-1.02817976e+03  3.84426756e+02 -6.97291796e-05  2.04792704e+04],2151,2758.555123782544
724,724,[-1.37874381e+03  3.80422614e+02 -9.17920847e-05  2.33691512e+04],1747,2751.47224707728
725,725,[-1.03376546e+03  3.85428014e+02 -7.63356171e-05  2.04800063e+04],342,2759.5068984004724
726,726,[-1.43748251e+03  3.53392100e+02 -4.48636401e-05  2.04800063e+04],1518,2757.7829902565254
727,727,[-1.05898763e+03  3.86429220e+02 -7.05429578e-05  2.04800063e+04],1978,2749.9907141054196
728,728,[-1.55051942e+03  3.57397082e+02 -6.14739866e-05  3.97134703e+04],807,2754.2365212455015
729,729,[-1.36950326e+03  3.46384604e+02 -3.26525768e-05  2.04848991e+04],1701,2759.2051077721785
730,730,[-1.40551389e+03  3.23359445e+02 -2.21453313e-05  2.04848989e+04],851,2756.5113329834617
731,731,[-9.76993448e+02  3.81423375e+02 -6.22785410e-05  2.04848991e+04],1196,2751.8929243323005
732,732,[-1.45312701e+03  3.55394850e+02 -4.88409534e-05  2.56373398e+04],1649,2751.65518361994
733,733,[-1.38190718e+03  3.80422141e+02 -7.08613633e-05  2.04857978e+04],2633,2754.185064830463
734,734,[-9.43398781e+02  3.80422338e+02 -5.78427671e-05  2.04862083e+04],712,2757.9557051685947
735,735,[-1.39245973e+03  3.72412551e+02 -6.03256934e-05  2.04862083e+04],1871,2754.682111668771
736,736,[-1.61479445e+03  3.79421514e+02 -8.44756918e-05  2.67583672e+04],95,2755.224509051201
737,737,[-1.24193369e+03  3.94437839e+02 -7.66033992e-05  2.04878007e+04],2518,2755.565688905556
738,738,[-1.11865200e+03  3.88431329e+02 -6.33718362e-05  2.04878007e+04],2133,2754.9210307741646
739,739,[-1.42795467e+03  3.57396577e+02 -5.06458242e-05  2.04878007e+04],359,2758.948505397938
740,740,[-1.35205008e+03  3.83425968e+02 -8.23437787e-05  2.80577832e+04],2370,2760.494062350382
741,741,[-1.38386527e+03  3.80422156e+02 -7.10827110e-05  2.04893861e+04],1809,2759.9675933155736
742,742,[-1.03664863e+03  3.85428070e+02 -5.97475334e-05  2.04897204e+04],469,2757.7219728387645
743,743,[-1.01795790e+03  3.84426813e+02 -5.15819751e-05  2.04897204e+04],501,2757.842031936523
744,744,[-1.44991724e+03  3.62401872e+02 -5.35314082e-05  2.04897204e+04],2157,2755.6815359529655
745,745,[-1.06389023e+03  3.86429076e+02 -7.40773623e-05  2.04897204e+04],1669,2759.490676651122
746,746,[-1.37535932e+03  3.47385693e+02 -4.33061266e-05  2.04897204e+04],2252,2759.1274440642414
747,747,[-1.49769690e+03  3.77417792e+02 -7.05397145e-05  2.04897204e+04],2105,2754.0951910593776
748,748,[-9.92696041e+02  3.84426980e+02 -6.80970040e-05  2.04897204e+04],373,2755.169910829128
749,749,[-1.39098633e+03  3.84427073e+02 -6.70129797e-05  2.64021063e+04],2036,2757.361920622983
750,750,[-1.08024473e+03  3.87430217e+02 -5.07926224e-05  2.04912165e+04],182,2758.5938979722937
751,751,[-1.38538784e+03  3.93437116e+02 -1.02058689e-04  3.93605428e+04],1555,2754.1524925375365
752,752,[-9.84874731e+02  3.81423544e+02 -6.81676227e-05  2.04959887e+04],428,2754.722737949178
753,753,[-1.32873552e+03  3.82422710e+02 -7.43492533e-05  2.16031908e+04],594,2757.5971311232224
754,754,[-1.02566769e+03  3.86429134e+02 -6.18719638e-05  2.04962686e+04],2731,2758.624461075788
755,755,[-1.42899336e+03  3.23359864e+02 -2.28099551e-05  2.04962686e+04],2216,2759.001949899466
756,756,[-1.41466396e+03  3.85427262e+02 -6.91713441e-05  2.04962686e+04],470,2752.21647953941
757,757,[-1.07133476e+03  3.86429100e+02 -6.36952202e-05  2.04962686e+04],1113,2759.3636698599876
758,758,[-1.02463646e+03  3.85428094e+02 -6.31302153e-05  2.04962686e+04],393,2760.29011365749
759,759,[-1.38727882e+03  3.46384315e+02 -4.13027425e-05  2.04962686e+04],1858,2760.3500093513835
760,760,[-1.38282862e+03  3.76416816e+02 -5.63753654e-05  2.04961898e+04],1618,2759.95139650184
761,761,[-1.00716411e+03  3.84426848e+02 -6.73518709e-05  2.04962686e+04],811,2759.2512075100167
762,762,[-1.12808753e+03  3.97441465e+02 -1.43833817e-04  2.04962686e+04],1999,2758.4869094172363
763,763,[-1.40830066e+03  3.86424901e+02 -9.10277503e-05  2.04965131e+04],2418,2752.1381584072924
764,764,[-1.05261412e+03  3.86429070e+02 -6.41583475e-05  2.04962686e+04],2141,2759.5120552963085
765,765,[-1.62011702e+03  3.22358196e+02 -3.29372868e-05  3.49798361e+04],2108,2759.559159364411
766,766,[-1.49351412e+03  3.82424843e+02 -7.68695841e-05  2.09844671e+04],211,2757.0692890057126
767,767,[-1.36548471e+03  3.85428185e+02 -7.02491499e-05  2.08405843e+04],2137,2755.5195251430564
768,768,[-1.25512695e+03  3.81421765e+02 -7.14219097e-05  2.05000723e+04],2595,2749.686641811644
769,769,[-1.02321439e+03  3.84426848e+02 -5.05943116e-05  2.05001266e+04],716,2758.2018447830083
770,770,[-1.39697624e+03  3.71411878e+02 -5.91180039e-05  2.05004309e+04],1483,2757.9713201919344
771,771,[-1.01036499e+03  3.83425791e+02 -5.27190089e-05  2.05001266e+04],1059,2757.5907217707368
772,772,[-1.01644484e+03  3.83425765e+02 -7.41846521e-05  2.05001266e+04],2171,2759.2192307776368
773,773,[-1.02853645e+03  3.84426900e+02 -6.69546668e-05  2.05001266e+04],1547,2758.2885947750137
774,774,[-1.55083246e+03  3.22361008e+02 -3.01093170e-05  2.05001266e+04],824,2758.6484658518198
775,775,[-1.10394847e+03  3.90433499e+02 -7.56001137e-05  2.05001266e+04],1307,2756.992514865409
776,776,[-1.03878962e+03  3.84426873e+02 -5.34187809e-05  2.05001266e+04],1110,2753.881463876574
777,777,[-1.37154069e+03  3.81420853e+02 -7.29872019e-05  2.05001266e+04],793,2757.2870181549365
778,778,[-9.44981154e+02  3.80422513e+02 -5.58062944e-05  2.05001266e+04],1860,2754.6862322207708
779,779,[-1.48857578e+03  3.53392277e+02 -5.35555284e-05  2.05001266e+04],819,2754.835613754461
780,780,[-1.15448878e+03  3.99443649e+02 -1.30539594e-04  2.05001266e+04],2578,2756.883977566396
781,781,[-1.39963371e+03  3.70405269e+02 -5.23907342e-05  2.05001266e+04],870,2757.4485195425445
782,782,[-1.00470975e+03  3.83425621e+02 -6.72197603e-05  2.05001266e+04],1532,2758.1534862019707
783,783,[-1.43903936e+03  3.59399117e+02 -6.21625758e-05  2.05001266e+04],101,2752.4531652361525
784,784,[-1.34205241e+03  3.85426874e+02 -7.61113171e-05  2.06398550e+04],2479,2752.4150389861975
785,785,[-1.26692940e+03  3.21357340e+02 -1.97157584e-05  2.05001617e+04],1482,2757.67572535133
786,786,[-1.01684067e+03  3.83425801e+02 -8.88744409e-05  2.05001617e+04],1399,2759.973177929695
787,787,[-9.86819511e+02  3.81423589e+02 -7.12060263e-05  2.05001617e+04],1506,2756.5099694725463
788,788,[-1.26137410e+03  3.96440462e+02 -7.39879815e-05  5.67022877e+04],408,2758.4555243609207
789,789,[-1.00664984e+03  3.83425774e+02 -7.46390835e-05  2.05092326e+04],2085,2759.073985726581
790,790,[-1.44868218e+03  3.86429280e+02 -9.23513073e-05  2.77054087e+04],1852,2758.3642227931564
791,791,[-1.39052259e+03  3.19355121e+02 -2.62217870e-05  2.05110348e+04],2061,2757.305792444277
792,792,[-1.05394824e+03  3.89432103e+02 -6.70090830e-05  2.05110348e+04],2050,2759.1106290257726
793,793,[-1.65851241e+03  3.23365041e+02 -3.43975559e-05  2.05110348e+04],255,2758.7883965030082
794,794,[-1.07172125e+03  3.85428062e+02 -7.34174311e-05  2.05110348e+04],1271,2752.9110229284292
795,795,[-1.37494592e+03  3.61400752e+02 -5.17611973e-05  2.05110348e+04],312,2757.7683808580996
796,796,[-1.04137000e+03  3.84426913e+02 -5.93174453e-05  2.05110348e+04],2012,2755.985336593693
797,797,[-1.53873429e+03  3.21374835e+02 -2.83132652e-05  2.05110348e+04],466,2750.4579487044934
798,798,[-1.38510018e+03  3.87429619e+02 -7.99228242e-05  2.05110348e+04],2761,2757.4683375966156
799,799,[-1.12589083e+03  3.94438110e+02 -1.37704377e-04  2.05110348e+04],1599,2756.200603997055
800,800,[-1.41118941e+03  3.76417957e+02 -8.04405533e-05  2.05110348e+04],1347,2752.6817462026074
801,801,[-9.72482713e+02  3.80422507e+02 -6.93157571e-05  2.05110348e+04],1410,2755.5490166839318
802,802,[-1.03270062e+03  3.84427075e+02 -6.21899782e-05  2.05110717e+04],2596,2759.710116068964
803,803,[-1.08558986e+03  3.85427848e+02 -5.18385541e-05  2.05110348e+04],317,2760.172953937605
804,804,[-1.00562550e+03  3.82424633e+02 -8.36177011e-05  2.05110348e+04],491,2757.261778580934
805,805,[-1.02026881e+03  3.83425783e+02 -6.35873104e-05  2.05110348e+04],1222,2757.1886942245883
806,806,[-1.10633826e+03  3.96440149e+02 -7.23533907e-05  2.05110348e+04],2692,2760.441468501706
807,807,[-9.43078115e+02  3.78420236e+02 -8.52208878e-05  2.05110348e+04],1193,2758.8929416779174
808,808,[-1.05061862e+03  3.84426853e+02 -6.26456215e-05  2.05110348e+04],2269,2753.8600102053247
809,809,[-1.00251536e+03  3.83425741e+02 -8.35732577e-05  2.05110348e+04],1402,2756.8605442059593
810,810,[-1.36710108e+03  3.80353792e+02 -7.43818242e-05  2.05110348e+04],1445,2759.9836109090534
811,811,[-1.05608659e+03  3.89432455e+02 -7.88356200e-05  2.05110348e+04],267,2758.813361491117
812,812,[-1.03263492e+03  3.85427983e+02 -9.38850210e-05  2.05110348e+04],1017,2757.380293924366
813,813,[-1.01334453e+03  3.83425745e+02 -9.19670688e-05  2.05110348e+04],1829,2759.2370070236834
814,814,[-1.04027599e+03  3.84426590e+02 -7.09758671e-05  2.05110348e+04],1523,2757.4677503877438
815,815,[-1.05848660e+03  3.85428085e+02 -7.61928526e-05  2.05110348e+04],565,2756.003185154416
816,816,[-1.44770935e+03  3.84425105e+02 -9.10901862e-05  2.05110371e+04],1853,2754.046969863309
817,817,[-1.05819104e+03  3.85427997e+02 -6.44000436e-05  2.05110348e+04],2623,2750.3408027352266
818,818,[-1.04268628e+03  3.85428033e+02 -6.69368598e-05  2.05110348e+04],252,2755.7519877761342
819,819,[-9.99683142e+02  3.82424653e+02 -9.16375472e-05  2.05110348e+04],1358,2758.785292210256
820,820,[-1.49023907e+03  3.84426967e+02 -7.75625326e-05  4.20424437e+04],836,2754.872006808241
821,821,[-1.03716792e+03  3.85428013e+02 -5.66353645e-05  2.05163869e+04],2501,2757.7297959826997
822,822,[-1.61425033e+03  3.23359302e+02 -3.18082465e-05  4.03932098e+04],719,2757.7564538351294
823,823,[-1.09376929e+03  3.87430066e+02 -6.47730101e-05  2.05213253e+04],1681,2755.9998951260823
824,824,[-1.06788534e+03  3.86429210e+02 -6.28679799e-05  2.05213253e+04],1397,2758.791299718671
825,825,[-9.63241179e+02  3.80422551e+02 -6.14827478e-05  2.05213254e+04],2025,2757.1372551523646
826,826,[-1.40006363e+03  3.92433780e+02 -9.46852165e-05  2.05213887e+04],166,2757.1617426368716
827,827,[-1.41848269e+03  3.77419121e+02 -5.73704969e-05  2.05213253e+04],443,2759.0023316089582
828,828,[-1.47333393e+03  3.85428213e+02 -7.67639248e-05  3.03949084e+04],2482,2757.138677740525
829,829,[-1.04865379e+03  3.89432206e+02 -7.46239738e-05  2.05237747e+04],1049,2752.427446571724
830,830,[-1.01434423e+03  3.85427982e+02 -7.40789346e-05  2.05237747e+04],1816,2756.6943603425516
831,831,[-1.50760212e+03  3.22362702e+02 -2.57472419e-05  2.05237747e+04],774,2759.967028498449
832,832,[-9.84012588e+02  3.81423516e+02 -8.43069774e-05  2.05237747e+04],2391,2758.3366648142373
833,833,[-1.37101531e+03  3.79421471e+02 -7.39029489e-05  2.07901067e+04],1872,2758.5350298637077
834,834,[-1.02069868e+03  3.83425693e+02 -5.78301649e-05  2.05238407e+04],1058,2758.3473039810706
835,835,[-1.28595565e+03  3.66406430e+02 -3.64630462e-05  2.05238407e+04],180,2754.897512869543
836,836,[-1.39721286e+03  3.87430441e+02 -6.87729515e-05  3.90215109e+04],754,2758.667315989689
837,837,[-1.43726751e+03  3.52391448e+02 -4.36707437e-05  2.05284198e+04],1913,2756.8385928205894
838,838,[-1.08581653e+03  3.95439135e+02 -1.25715395e-04  2.05284204e+04],2183,2753.3842848117138
839,839,[-1.47866188e+03  3.85428221e+02 -7.32191514e-05  5.13015211e+04],1418,2758.162894126811
840,840,[-1.04790194e+03  3.85428032e+02 -5.47729905e-05  2.05360338e+04],145,2760.5679406710897
841,841,[-1.11258411e+03  3.92435765e+02 -1.62069900e-04  2.05360338e+04],1724,2757.8344382345285
842,842,[-1.13481244e+03  3.95439155e+02 -1.42115064e-04  2.05360338e+04],19,2759.4878463462665
843,843,[-1.37993783e+03  3.88430807e+02 -7.53004493e-05  2.05360351e+04],2367,2758.462337066943
844,844,[-1.04826348e+03  3.86428882e+02 -7.11317742e-05  2.05360338e+04],1189,2759.25879987531
845,845,[-1.14435729e+03  3.92435814e+02 -1.67983688e-04  2.05360338e+04],2584,2756.7386256451828
846,846,[-1.39543757e+03  3.84426782e+02 -7.63897609e-05  2.05368435e+04],2011,2756.127129881646
847,847,[-1.02411414e+03  3.83425779e+02 -6.51622002e-05  2.05360340e+04],750,2759.3369030880863
848,848,[-1.10485778e+03  3.95439103e+02 -1.32569716e-04  2.05360340e+04],1690,2755.072196990186
849,849,[-1.23773970e+03  3.36373261e+02 -2.87927943e-05  2.05360340e+04],2454,2758.2490381054954
850,850,[-1.43892318e+03  3.87430372e+02 -7.32860202e-05  1.19426404e+04],583,2759.3296511190897
851,851,[-1.06214942e+03  3.86428988e+02 -7.17324562e-05  2.05339137e+04],1464,2758.8887249933996
852,852,[-1.05471046e+03  3.85427970e+02 -8.38614298e-05  2.05339137e+04],2322,2756.341933987464
853,853,[-1.34533290e+03  3.64402845e+02 -5.44389382e-05  2.05339137e+04],2759,2757.389884393797
854,854,[-1.04901471e+03  3.84426828e+02 -6.12992656e-05  2.05339137e+04],2160,2757.9567499983186
855,855,[-1.38962032e+03  3.42380173e+02 -4.37547565e-05  2.05339137e+04],2294,2757.998897765703
856,856,[-1.36629232e+03  3.47385566e+02 -4.58481857e-05  2.05339137e+04],339,2757.423671580793
857,857,[-1.05623539e+03  3.84426816e+02 -5.33728356e-05  2.05339137e+04],2180,2755.24324122213
858,858,[-1.45732956e+03  3.70411251e+02 -7.03990706e-05  2.05339137e+04],2044,2757.2818870633346
859,859,[-1.07504684e+03  3.83425724e+02 -6.39025143e-05  2.05339137e+04],2114,2756.66329388813
860,860,[-1.10152261e+03  3.87430126e+02 -7.84486728e-05  2.05339137e+04],318,2757.5800031241783
861,861,[-1.27102238e+03  3.81423696e+02 -4.50364392e-05  1.99716770e+04],392,2758.502009213481
862,862,[-1.38226748e+03  3.73414830e+02 -5.65625516e-05  2.27999402e+04],723,2759.36799176746
863,863,[-1.41219321e+03  3.84426867e+02 -8.30779407e-05  2.05344478e+04],1322,2750.2915316315134
864,864,[-1.00989081e+03  3.82424741e+02 -6.13612339e-05  2.05343329e+04],999,2756.9669355341844
865,865,[-1.00693963e+03  3.82424517e+02 -6.10589061e-05  2.05343329e+04],2393,2759.375203560855
866,866,[-1.44492299e+03  3.63403535e+02 -5.76922909e-05  2.05343329e+04],1200,2757.211203802232
867,867,[-1.52502964e+03  3.50389292e+02 -4.51144076e-05  2.38674833e+04],1665,2759.1105406868464
868,868,[-1.43603610e+03  3.83425571e+02 -9.41193078e-05  2.05355303e+04],2090,2757.394655196327
869,869,[-1.07518245e+03  3.87430191e+02 -6.57397448e-05  2.05351519e+04],994,2756.929422107625
870,870,[-1.53822872e+03  3.21357299e+02 -3.38179164e-05  2.05351519e+04],322,2758.778600669123
871,871,[-1.06325209e+03  3.85428030e+02 -7.93552611e-05  2.05351519e+04],1855,2757.8926130513983
872,872,[-1.04102796e+03  3.83425862e+02 -6.81963436e-05  2.05351519e+04],833,2760.131157561381
873,873,[-9.94427013e+02  3.80422656e+02 -7.68671033e-05  2.05351939e+04],1158,2759.508866345906
874,874,[-1.40337784e+03  3.54393208e+02 -4.84185272e-05  2.05351519e+04],2170,2759.258972613304
875,875,[-1.50399516e+03  3.53360523e+02 -4.75015747e-05  2.05351519e+04],1336,2759.3049102913865
876,876,[-1.09377429e+03  3.88431494e+02 -6.25927223e-05  2.05351569e+04],2150,2755.8736301710023
877,877,[-1.47912049e+03  3.19355385e+02 -2.85441483e-05  2.05351519e+04],2625,2758.024707392023
878,878,[-1.40661322e+03  3.52390484e+02 -4.38922940e-05  2.05351519e+04],1109,2759.383042311286
879,879,[-1.03313424e+03  3.84426822e+02 -6.62234687e-05  2.05351519e+04],2291,2759.9404216226335
880,880,[-1.10406872e+03  3.89432386e+02 -7.36559130e-05  2.05351519e+04],1145,2752.719332337992
881,881,[-1.33668159e+03  3.84427113e+02 -6.52811769e-05  6.22657555e+04],2038,2759.430158848748
882,882,[-1.02922638e+03  3.84426797e+02 -7.25314992e-05  2.05453700e+04],1905,2759.1435326056103
883,883,[-1.05139289e+03  3.91434658e+02 -8.16534452e-05  2.05453700e+04],87,2756.0211809438524
884,884,[-1.01544273e+03  3.82424469e+02 -6.00091578e-05  2.05453700e+04],1785,2752.5025044381127
885,885,[-1.45209110e+03  3.60400168e+02 -5.31822447e-05  2.05453700e+04],1069,2755.470968231667
886,886,[-1.32034949e+03  3.73413451e+02 -7.54808463e-05  2.05453700e+04],2350,2753.805335319506
887,887,[-1.46121589e+03  3.18354560e+02 -2.81948883e-05  2.05453700e+04],1269,2755.1288017399957
888,888,[-1.34398088e+03  3.83424543e+02 -5.96576521e-05  2.05453700e+04],1201,2760.4080668629426
889,889,[-1.44773844e+03  3.42378837e+02 -4.18397166e-05  2.05454477e+04],861,2756.621587340531
890,890,[-1.05517989e+03  3.87430248e+02 -1.74420117e-04  2.05453700e+04],1516,2752.333915897237
891,891,[-9.66863115e+02  3.80422469e+02 -5.97200328e-05  2.05453700e+04],1752,2756.9595342042157
892,892,[-1.00840944e+03  3.82424644e+02 -5.60120805e-05  2.05453700e+04],260,2757.756489844773
893,893,[-1.57459954e+03  3.52391247e+02 -4.19600716e-05  2.05453700e+04],2359,2755.3434571837597
894,894,[-1.60338986e+03  3.56395937e+02 -4.30394909e-05  2.54308880e+04],127,2756.975642862386
895,895,[-1.43647064e+03  3.51390407e+02 -3.07705888e-05  1.67892853e+04],762,2757.7860241485264
896,896,[-1.23865932e+03  3.23359324e+02 -1.84153224e-05  2.05456422e+04],1365,2757.3989149721056
897,897,[-1.58015980e+03  3.50389269e+02 -4.23125504e-05  2.47906562e+04],1550,2757.848472746544
898,898,[-1.61676902e+03  3.22361881e+02 -2.75934830e-05  2.05466810e+04],1531,2759.792483948307
899,899,[-1.50441039e+03  3.23360116e+02 -2.82464870e-05  2.05467957e+04],233,2757.2663594510877
900,900,[-1.02029794e+03  3.82424690e+02 -8.35366873e-05  2.05466810e+04],2403,2759.737453817146
901,901,[-1.49569337e+03  3.51390323e+02 -3.79737831e-05  2.05466783e+04],979,2760.399209903675
902,902,[-1.31379061e+03  3.93436933e+02 -8.37823846e-05  4.71722537e+04],2194,2760.1173914591504
903,903,[-1.52082606e+03  3.21357099e+02 -3.84629539e-05  2.53776661e+04],1845,2751.904097769015
904,904,[-1.31040242e+03  3.23359421e+02 -2.10683761e-05  2.05543416e+04],1637,2754.375583752978
905,905,[-9.69108502e+02  3.80422158e+02 -5.65506078e-05  2.05543422e+04],843,2758.9698381781977
906,906,[-1.49088225e+03  3.58397315e+02 -5.56158817e-05  2.05543422e+04],1928,2759.3301507218816
907,907,[-1.00495768e+03  3.82424685e+02 -9.45825467e-05  2.05543422e+04],666,2754.2728073112153
908,908,[-1.50945376e+03  3.19368519e+02 -2.59593570e-05  2.05543422e+04],1417,2757.6817620753163
909,909,[-1.54844844e+03  3.20365754e+02 -2.57816848e-05  2.05543422e+04],788,2759.232266035503
910,910,[-1.58179261e+03  3.36373059e+02 -4.35038132e-05  2.05543502e+04],143,2757.604373634872
911,911,[-1.37690074e+03  3.80422472e+02 -6.55593605e-05  2.05544275e+04],475,2754.350828762193
912,912,[-1.34286750e+03  3.19358535e+02 -2.25777245e-05  2.05543422e+04],1723,2752.01473433224
913,913,[-1.10551949e+03  3.95438902e+02 -7.09824237e-05  2.05543422e+04],1172,2760.1895959224203
914,914,[-1.03739952e+03  3.90433446e+02 -7.93578016e-05  2.05543422e+04],2583,2755.055931364396
915,915,[-1.34315335e+03  3.79421528e+02 -8.15512039e-05  2.40722952e+04],916,2752.7698888076848
916,916,[-1.04172434e+03  3.85427863e+02 -6.72487631e-05  2.05551965e+04],2707,2758.441534225144
917,917,[-1.36658771e+03  3.47381147e+02 -3.69251582e-05  2.05551965e+04],2429,2760.473894848359
918,918,[-1.44982674e+03  3.65405691e+02 -7.23417639e-05  2.05551965e+04],529,2757.748809669399
919,919,[-1.06878264e+03  3.86429250e+02 -6.74584615e-05  2.05551968e+04],2309,2754.8547525818985
920,920,[-1.06226563e+03  3.89432273e+02 -1.36569084e-04  2.05551965e+04],51,2752.02831501149
921,921,[-1.08806011e+03  3.78420219e+02 -3.17004952e-04  2.05551965e+04],2551,2715.5202631914935
922,922,[-1.53158093e+03  3.86429302e+02 -6.70389165e-05  2.28723377e+04],1658,2754.845164312466
923,923,[-1.34246804e+03  3.82424789e+02 -7.05902926e-05  3.34407457e+04],1877,2756.3246388582143
924,924,[-1.19463546e+03  3.84427022e+02 -5.56109222e-05  2.10821093e+04],549,2759.1175395492974
925,925,[-1.24568191e+03  3.85428195e+02 -5.71706378e-05  2.66511255e+04],1500,2752.2724628756655
926,926,[-1.58525748e+03  3.74415956e+02 -8.25485321e-05  2.59705697e+04],1856,2758.184109186401
927,927,[-1.61148604e+03  3.20360815e+02 -2.94577932e-05  2.05617939e+04],2320,2757.8216832061707
928,928,[-1.47848980e+03  3.54393671e+02 -4.87947459e-05  2.05617923e+04],638,2761.3197268742847
929,929,[-1.17439888e+03  3.73410858e+02 -6.00755821e-05  2.05617939e+04],2187,2748.7740275938195
930,930,[-9.23375456e+02  3.51390218e+02 -1.88440466e-05  2.05617939e+04],1851,2745.1645817647013
931,931,[-1.63168200e+03  3.23362025e+02 -2.89700180e-05  2.05617939e+04],416,2760.1219378207816
932,932,[-1.38915745e+03  3.82406881e+02 -6.25260417e-05  2.05617949e+04],442,2760.930443585474
933,933,[-1.04435063e+03  3.83425728e+02 -6.39996931e-05  2.05617939e+04],86,2761.455199509795
934,934,[-1.28307888e+03  3.84356214e+02 -5.55274046e-05  2.05620584e+04],711,2755.8692323641053
935,935,[-1.36340318e+03  3.51384514e+02 -3.23269984e-05  2.05617940e+04],2242,2751.226994984171
936,936,[-1.52404544e+03  3.21357124e+02 -2.68022156e-05  2.40247622e+04],1215,2758.941101154253
937,937,[-1.37036455e+03  3.48386521e+02 -3.42799851e-05  2.05626307e+04],1569,2760.7852848449993
938,938,[-1.42808550e+03  3.47376483e+02 -3.75648586e-05  2.05626307e+04],2484,2760.2552106696266
939,939,[-1.32114117e+03  3.86429076e+02 -7.59976651e-05  2.05626307e+04],92,2747.9511048283375
940,940,[-1.90083968e+03  3.38375482e+02 -3.51832559e-05  2.05626307e+04],996,2732.61008358637
941,941,[-1.36974297e+03  3.48371392e+02 -3.36681681e-05  2.05626307e+04],1334,2757.836060251082
942,942,[-1.09980802e+03  3.86429158e+02 -5.21778453e-05  2.05626307e+04],1714,2759.767235215101
943,943,[-1.41916273e+03  3.45383593e+02 -3.32157790e-05  2.05626307e+04],1573,2753.7794781470648
944,944,[-1.36082426e+03  3.23361744e+02 -1.61377105e-05  2.05626391e+04],2314,2754.791797911103
945,945,[-1.08553084e+03  3.91434718e+02 -8.54567079e-05  2.05626307e+04],1735,2756.4633608904155
946,946,[-1.04150719e+03  3.83425759e+02 -6.06247644e-05  2.05626307e+04],1811,2752.8664373663532
947,947,[-1.02779169e+03  3.83425737e+02 -8.81995677e-05  2.05626307e+04],535,2758.289813518372
948,948,[-1.25506571e+03  3.53391953e+02 -3.64879104e-05  2.05626307e+04],1846,2757.588297953967
949,949,[-1.07309563e+03  3.85428000e+02 -6.84401745e-05  2.05626307e+04],1458,2757.593645721254
950,950,[-1.37717775e+03  3.80422628e+02 -7.31606076e-05  2.46245139e+04],644,2757.229428424017
951,951,[-9.85901511e+02  3.82424700e+02 -7.51849901e-05  2.05636087e+04],152,2748.386074675962
952,952,[-1.34874467e+03  3.87426503e+02 -5.34422261e-05  2.05636131e+04],1981,2755.111682151615
953,953,[-1.42854067e+03  3.51390375e+02 -3.62673441e-05  2.05636066e+04],790,2760.680359440319
954,954,[-1.38082566e+03  3.42375476e+02 -2.99446658e-05  2.05636087e+04],1144,2755.593861080472
955,955,[-1.07761176e+03  3.85428036e+02 -6.58923477e-05  2.05636087e+04],2135,2759.1855289992345
956,956,[-1.05283533e+03  3.85427991e+02 -6.47599060e-05  2.05636087e+04],1330,2757.5953370982775
957,957,[-1.42467671e+03  3.22359275e+02 -2.40932759e-05  2.05636087e+04],1647,2760.2588480708873
958,958,[-1.33203041e+03  3.84427056e+02 -6.05841524e-05  2.17658226e+04],105,2759.3372948415777
959,959,[-1.51912692e+03  3.20367301e+02 -2.44228286e-05  2.05638976e+04],2126,2753.587427018014
960,960,[-1.40521252e+03  3.24360452e+02 -2.27827603e-05  2.05638846e+04],834,2755.0091202315116
961,961,[-1.36296503e+03  3.87430422e+02 -5.94453922e-05  2.68099763e+04],2212,2759.6747011441735
962,962,[-9.74372782e+02  3.80422383e+02 -5.16713438e-05  2.05653977e+04],2229,2760.865704022527
963,963,[-1.37169804e+03  3.41379053e+02 -3.45519149e-05  2.05653977e+04],119,2754.8424353248347
964,964,[-1.54948162e+03  3.21357262e+02 -2.62703385e-05  2.05653977e+04],2744,2757.8036514134747
965,965,[-1.52626399e+03  3.72413221e+02 -6.08929186e-05  2.05653977e+04],505,2759.871725357716
966,966,[-1.01071858e+03  3.82424535e+02 -4.62114244e-05  2.05653977e+04],832,2761.140405184322
967,967,[-1.26791859e+03  3.16362599e+02 -1.37399496e-05  2.05654410e+04],2769,2755.188671430802
968,968,[-1.14450061e+03  3.70411354e+02 -1.38180096e-04  2.05655298e+04],284,2707.5397401553305
969,969,[-1.02386961e+03  3.65405710e+02 -4.41036692e-05  2.05653977e+04],138,2733.0070557960134
970,970,[-1.49259149e+03  3.55394787e+02 -5.06355378e-05  2.05653969e+04],1435,2755.3998709726907
971,971,[-1.48286231e+03  3.23359520e+02 -2.08284278e-05  2.05653977e+04],2483,2755.0705301434696
972,972,[-1.07063433e+03  3.85428016e+02 -5.35835136e-05  2.05653977e+04],973,2759.8878139179733
973,973,[-1.14816161e+03  3.98442325e+02 -1.11324366e-04  2.05653977e+04],1615,2758.3202516290858
974,974,[-1.01958336e+03  3.81423644e+02 -7.49196116e-05  2.05653977e+04],2576,2753.6037076721777
975,975,[-9.58047368e+02  3.78420294e+02 -6.06389067e-05  2.05653977e+04],2336,2746.1493798682254
976,976,[-1.67667133e+03  3.92435785e+02 -8.77005548e-05  2.05653977e+04],1907,2729.816206389831
977,977,[-1.29309578e+03  3.91434850e+02 -1.12205342e-04  2.24513393e+04],1205,2748.4902675484
978,978,[-1.12863903e+03  3.92435885e+02 -1.33021710e-04  2.05658489e+04],1541,2746.2028748414837
979,979,[-1.48255167e+03  3.85425796e+02 -6.92859765e-05  2.05679020e+04],2366,2758.468736543628
980,980,[-1.54458796e+03  3.67179500e+02 -2.91010494e-05  2.05658494e+04],1612,2743.145151712715
981,981,[-1.37661066e+03  3.83420373e+02 -1.29209855e-05  2.05658494e+04],2307,2696.101364998146
982,982,[-9.57103684e+02  3.77419201e+02 -5.00202787e-05  2.05658494e+04],511,2749.4393711693324
983,983,[-1.42124861e+03  3.84426459e+02 -6.20275842e-05  2.05658494e+04],2440,2759.6992540194515
984,984,[-1.53456735e+03  3.22358303e+02 -2.70115391e-05  2.05658489e+04],1301,2758.237682964568
985,985,[-1.12848211e+03  3.96440135e+02 -7.61035228e-05  2.05658494e+04],1183,2755.9418799494742
986,986,[-1.32191713e+03  3.81422851e+02 -4.81188074e-05  2.04569366e+04],1885,2751.4469331445343
987,987,[-1.39588384e+03  3.97441565e+02 -8.37749044e-05  5.32319491e+04],1180,2759.700551027343
988,988,[-1.09338646e+03  3.86429058e+02 -7.64217988e-05  2.05736196e+04],444,2754.540079800725
989,989,[-1.32240709e+03  3.89432437e+02 -5.12198366e-05  6.72361925e+03],947,2758.254142124157
990,990,[-1.00343398e+03  3.23363223e+02 -8.80182247e-06  2.05703157e+04],773,2748.031574968618
991,991,[-1.51924576e+03  3.22358182e+02 -2.36271781e-05  2.55611911e+04],1635,2751.493432777885
992,992,[-1.11556936e+03  4.05448892e+02 -2.14309408e-05  2.05715057e+04],1697,2739.701209313377
993,993,[-1.36309487e+03  3.87427485e+02 -5.77212229e-05  2.05709920e+04],2240,2754.57018519725
994,994,[-1.17585457e+03  3.88431383e+02 -4.32899363e-05  2.05715055e+04],1993,2758.5405289015534
995,995,[-1.68679946e+03  3.23372543e+02 -3.14820114e-05  1.31251236e+04],657,2757.5113077861733
996,996,[-1.09346440e+03  3.86429142e+02 -5.13912811e-05  2.05697318e+04],1184,2758.3946874508133
997,997,[-8.59225314e+02  3.22358523e+02 -5.85613391e-06  2.05697318e+04],1815,2752.718597502626
998,998,[-1.09525811e+03  3.88431334e+02 -5.41243864e-05  2.05697318e+04],654,2757.8296366608342
999,999,[-1.52956683e+03  3.56394588e+02 -3.79427465e-05  2.05697318e+04],1626,2758.5487504151233
1000,1000,[-1.38980621e+03  3.84426935e+02 -6.58935474e-05  3.05069476e+04],1943,2754.69746813367
1001,1001,[-1.10660425e+03  3.87430128e+02 -6.46993342e-05  2.05720961e+04],2534,2752.25907710265
1002,1002,[-1.28292575e+03  3.50388927e+02 -3.11475338e-05  2.05720961e+04],2250,2751.569447470461
1003,1003,[-2.12088169e+03  3.97441569e+02 -7.36243007e-05  3.30724976e+04],1655,2729.7622295371884
1004,1004,[-1.11667486e+03  3.95439233e+02 -1.38090787e-04  2.05750681e+04],1030,2751.0377224002173
1005,1005,[-1.31159897e+03  3.70409105e+02 -3.41875199e-05  2.05750681e+04],142,2752.879965394314
1006,1006,[-1.11694457e+03  3.87430172e+02 -5.60535222e-05  2.05750681e+04],989,2759.8590149141273
1007,1007,[-1.05026407e+03  3.82424753e+02 -8.88646897e-05  2.05750681e+04],849,2759.800925899981
1008,1008,[-1.11655771e+03  3.87430232e+02 -6.06555235e-05  2.05750681e+04],2734,2752.5401035953596
1009,1009,[-1.20192592e+03  3.98442476e+02 -1.21126449e-04  2.05750681e+04],1974,2754.8988377709406
1010,1010,[-1.15738799e+03  3.91434249e+02 -4.88569503e-05  2.05750681e+04],98,2760.069440071361
1011,1011,[-1.35607165e+03  3.88431512e+02 -6.17971043e-05  2.13977649e+04],38,2759.459437903669
1012,1012,[-1.56829859e+03  3.22375394e+02 -2.71653419e-05  2.05752762e+04],2223,2753.356785910318
1013,1013,[-1.13350001e+03  3.82422585e+02 -2.57057734e-05  2.05752633e+04],278,2750.830245755645
1014,1014,[-1.14293376e+03  3.95439145e+02 -1.30262506e-04  2.05752633e+04],2273,2756.0196319830375
1015,1015,[-1.43797331e+03  3.88426213e+02 -6.66050714e-05  2.05752633e+04],2355,2760.0147081794616
1016,1016,[-1.10786882e+03  3.85428040e+02 -5.17810969e-05  2.05752633e+04],420,2753.8048981905413
1017,1017,[-1.45844596e+03  3.64363687e+02 -4.30106298e-05  2.05752633e+04],984,2758.6844918933075
1018,1018,[-1.47339640e+03  3.88431382e+02 -4.60595983e-05  2.05752633e+04],1934,2757.627080966647
1019,1019,[-1.10993311e+03  3.89432412e+02 -4.51327589e-05  2.05752633e+04],1652,2757.568728284038
1020,1020,[-1.37666064e+03  3.21357665e+02 -2.25847020e-05  2.17949546e+04],2538,2757.138001623084
1021,1021,[-1.06690343e+03  3.86429022e+02 -6.60090703e-05  2.05755522e+04],1636,2759.0200314609447
1022,1022,[-1.46784292e+03  3.22358761e+02 -2.08607113e-05  2.05755522e+04],2697,2757.3557587313594
1023,1023,[-1.41713466e+03  3.19355119e+02 -2.30840285e-05  2.05755522e+04],1897,2759.316507751716
1024,1024,[-1.36758700e+03  3.48386656e+02 -2.88816874e-05  2.05755522e+04],519,2753.0807093720296
1025,1025,[-1.05890872e+03  3.86429154e+02 -4.58896017e-05  2.05755522e+04],2274,2754.9531208989642
1026,1026,[-1.08552318e+03  3.86429196e+02 -7.95772936e-05  2.05755522e+04],2649,2761.237230568319
1027,1027,[-1.11767173e+03  3.87430203e+02 -5.24639716e-05  2.05755522e+04],1908,2761.146570784575
1028,1028,[-1.14633238e+03  3.97441459e+02 -1.37016583e-04  2.05755522e+04],769,2751.1546984506244
1029,1029,[-1.09793474e+03  3.93436697e+02 -7.37815880e-05  2.05755522e+04],563,2757.062463811172
1030,1030,[-1.55661431e+03  3.19356048e+02 -2.76648419e-05  2.05755522e+04],394,2758.2596634490806
1031,1031,[-1.11299451e+03  3.87430243e+02 -5.20312427e-05  2.05755522e+04],2293,2759.400912377356
1032,1032,[-1.59188377e+03  3.83423093e+02 -5.73946394e-05  2.05755526e+04],261,2739.1179592027215
1033,1033,[-1.20651773e+03  3.93436796e+02 -4.26731512e-05  2.05755522e+04],2264,2733.0051284852248
1034,1034,[-1.04448369e+03  3.87430178e+02 -4.99401847e-05  2.05755522e+04],1390,2751.7285393126067
1035,1035,[-1.47356924e+03  3.21358264e+02 -2.32216802e-05  2.05755522e+04],1434,2756.0379051578234
1036,1036,[-1.09292031e+03  3.90433392e+02 -1.56256154e-04  2.05755522e+04],1286,2744.8992646294987
1037,1037,[-4.11324335e+03  3.96440185e+02 -1.63638066e-04  2.05694376e+04],69,2358.0039158833133
1038,1038,[-1.89651297e+03  3.73414586e+02 -2.68028728e-05  2.05755507e+04],81,2612.6691667507366
1039,1039,[-1.39802738e+03  3.23359423e+02 -2.65487126e-05  2.05755505e+04],1220,2756.2385137387478
1040,1040,[-1.53863977e+03  3.22360938e+02 -2.42072598e-05  2.05755599e+04],926,2759.5316363798506
1041,1041,[-1.36055880e+03  3.79421562e+02 -8.52858724e-05  6.86295319e+04],1337,2748.0763546041226
1042,1042,[-1.17074929e+03  3.98442535e+02 -1.15632550e-04  2.05868735e+04],2341,2740.339114768241
1043,1043,[-1.42650050e+03  3.88431517e+02 -5.87980108e-05  2.39678027e+04],327,2755.6974487053453
1044,1044,[-1.35498664e+03  3.88431483e+02 -5.08954188e-05  2.14460324e+04],2193,2756.798425894054
1045,1045,[-1.15354088e+03  3.97441227e+02 -1.28943861e-04  2.05878719e+04],1403,2759.080931126438
1046,1046,[-1.33865690e+03  3.24360416e+02 -1.84898176e-05  3.85668039e+04],1698,2751.174303532682
1047,1047,[-1.39431738e+03  3.87428337e+02 -4.95303320e-05  2.05921520e+04],2015,2754.299323870782
1048,1048,[-1.57609334e+03  3.24361385e+02 -1.94890942e-05  2.05921032e+04],1061,2747.0748271977504
1049,1049,[-1.20863918e+03  3.94436847e+02 -5.59393072e-05  2.27147669e+04],1864,2758.6530406108945
1050,1050,[-1.63243035e+03  3.24360584e+02 -2.67299495e-05  2.05926031e+04],839,2759.278202085958
1051,1051,[-1.23218448e+03  3.22358411e+02 -2.04089029e-05  2.05926919e+04],1610,2757.242489521196
1052,1052,[-1.23071865e+03  3.75414002e+02 -3.60867252e-05  2.05926163e+04],2165,2746.457514809428
1053,1053,[-1.05462411e+03  3.85428012e+02 -5.44991193e-05  2.05926025e+04],782,2757.9809583721267
1054,1054,[-1.36274063e+03  3.39376828e+02 -2.66019195e-05  2.05926025e+04],1960,2760.4298750968715
1055,1055,[-1.57761899e+03  3.23359316e+02 -2.40686476e-05  2.05926000e+04],291,2760.7648789764235
1056,1056,[-1.11976535e+03  3.87430214e+02 -5.65246760e-05  2.05926025e+04],1436,2761.1039068644277
1057,1057,[-1.41825937e+03  3.87430413e+02 -5.06758188e-05  2.50928238e+04],224,2756.0116056540146
1058,1058,[-1.33073792e+03  3.89432486e+02 -4.99148682e-05  3.21717696e+04],622,2758.6303083506555
1059,1059,[-1.54284464e+03  3.23359420e+02 -2.96022255e-05  2.05963737e+04],336,2758.7997447527273
1060,1060,[-1.17544256e+03  3.91434684e+02 -6.22794721e-05  2.05963761e+04],2400,2760.855727746927
1061,1061,[-1.02359397e+03  3.81423398e+02 -7.17890577e-05  2.05963761e+04],2166,2758.163990413131
1062,1062,[-1.38352144e+03  3.86428364e+02 -5.02808082e-05  2.05965993e+04],2200,2752.2275424522313
1063,1063,[-1.48639311e+03  3.22360322e+02 -2.11486769e-05  2.05963762e+04],108,2759.45645006629
1064,1064,[-1.32926121e+03  3.84425828e+02 -6.24355070e-05  2.05963481e+04],1195,2760.04475358113
1065,1065,[-1.42574359e+03  3.85428224e+02 -6.44876355e-05  8.46075089e+04],37,2760.459249533039
1066,1066,[-1.11962190e+03  3.92435774e+02 -1.42921122e-04  2.06113741e+04],2747,2753.6242010372816
1067,1067,[-1.60233391e+03  3.23363770e+02 -2.83717399e-05  1.84675214e+04],2087,2757.1054413053294
1068,1068,[-1.08910478e+03  3.85428001e+02 -5.37192613e-05  2.06108720e+04],1696,2761.3804688171053
1069,1069,[-1.44040040e+03  4.02447125e+02 -7.67470172e-05  2.89092745e+04],1804,2758.510026324669
1070,1070,[-1.17148556e+03  4.00444805e+02 -6.41487502e-05  2.06128145e+04],1761,2754.9577478698966
1071,1071,[-1.20550258e+03  3.24369355e+02 -1.58410423e-05  2.06128145e+04],2102,2747.153522050851
1072,1072,[-1.00322129e+03  3.18354144e+02 -6.19315740e-06  2.06128145e+04],1813,2749.793239321153
1073,1073,[-1.19205715e+03  4.03447640e+02 -8.25863067e-05  2.06128145e+04],2041,2751.2783043006416
1074,1074,[-1.15942228e+03  4.08453782e+02 -1.61234784e-05  3.76296870e+04],2107,2736.243245259652
1075,1075,[-9.85485646e+02  3.22359267e+02 -1.07671145e-05  2.06167932e+04],1812,2724.7456577589005
1076,1076,[-1.20028634e+03  3.86429122e+02 -2.09551166e-04  2.06167932e+04],175,2698.6585077110067
1077,1077,[-1.14490631e+03  3.88431278e+02 -6.36640242e-05  2.06167932e+04],688,2752.4179214030373
1078,1078,[-1.44274277e+03  3.74384711e+02 -4.78393994e-05  2.06167932e+04],643,2761.3415763233697
1079,1079,[-1.12329951e+03  3.90433421e+02 -7.50517789e-05  2.06167932e+04],2018,2760.024135092245
1080,1080,[-1.10696847e+03  3.88431309e+02 -5.85997084e-05  2.06167932e+04],1546,2754.7620091589647
1081,1081,[-1.28441031e+03  3.83425471e+02 -4.43178146e-05  8.40988792e+03],1159,2757.2580254856757
1082,1082,[-1.04390665e+03  3.83425814e+02 -7.08204423e-05  2.06139438e+04],384,2753.951869778474
1083,1083,[-1.51532648e+03  3.21370873e+02 -2.20091898e-05  6.29844605e+02],402,2757.748003203532
1084,1084,[-9.36221764e+02  3.21357438e+02 -8.73354845e-06  2.06092811e+04],1938,2760.6369822647116
1085,1085,[-1.18833897e+03  3.95439200e+02 -1.44884919e-04  2.06092811e+04],2282,2760.1613760401715
1086,1086,[-1.11146671e+03  3.87430142e+02 -6.45449550e-05  2.06092811e+04],1628,2756.8192100049155
1087,1087,[-1.41323887e+03  3.86429104e+02 -5.95342352e-05  2.06093419e+04],1925,2755.1655807953275
1088,1088,[-1.13661915e+03  3.90433454e+02 -5.52371179e-05  2.06092812e+04],2131,2759.197450529027
1089,1089,[-1.05264541e+03  3.85428042e+02 -5.20516022e-05  2.06092812e+04],448,2759.4113515957674
1090,1090,[-1.25371343e+03  3.99443760e+02 -5.73845222e-05  2.63879737e+04],1303,2755.4937805600334
1091,1091,[-1.11212884e+03  3.86429086e+02 -5.88561999e-05  2.06106272e+04],1945,2754.4639904534333
1092,1092,[-1.18810292e+03  3.98442556e+02 -1.36463854e-04  2.06106272e+04],1309,2761.815907780462
1093,1093,[-1.32738033e+03  3.83425974e+02 -6.84987510e-05  2.44845761e+04],1394,2752.975169026783
1094,1094,[-1.09476714e+03  3.87430253e+02 -7.41412220e-05  2.06115290e+04],2345,2756.6429436975855
1095,1095,[-1.61760626e+03  3.23359584e+02 -2.62661958e-05  2.11067791e+04],2698,2756.1848935719268
1096,1096,[-1.40690188e+03  3.88431473e+02 -5.71381088e-05  3.39654864e+04],1443,2756.903048941624
1097,1097,[-1.19617960e+03  3.95439053e+02 -1.40912887e-04  2.06147505e+04],1687,2754.553342103932
1098,1098,[-1.12623447e+03  3.87430322e+02 -5.65715094e-05  2.06147505e+04],2158,2757.8306836096126
1099,1099,[-1.16836655e+03  3.89432244e+02 -4.75319424e-05  2.06147505e+04],2327,2760.530245457271
1100,1100,[-1.59075740e+03  3.50388516e+02 -4.04911581e-05  2.06147505e+04],713,2760.5182955557093
1101,1101,[-1.41109241e+03  3.87427261e+02 -6.59872340e-05  2.06147505e+04],877,2761.0207218864307
1102,1102,[-1.57719496e+03  3.23361343e+02 -2.43867539e-05  1.65783685e+04],2473,2756.8176632250324
1103,1103,[-1.66581921e+03  3.85428077e+02 -1.09282789e-04  2.96915190e+04],1765,2753.731281006192
1104,1104,[-1.48303218e+03  3.86429264e+02 -6.04826341e-05  2.07614634e+04],1346,2760.669956719253
1105,1105,[-1.11915512e+03  3.88431317e+02 -6.20859285e-05  2.06159548e+04],1338,2758.9807427201554
1106,1106,[-1.41287151e+03  3.88431558e+02 -5.68400114e-05  4.26739180e+04],1822,2755.493900351081
1107,1107,[-1.48689306e+03  3.20357071e+02 -2.42183046e-05  2.14317752e+04],22,2759.2690123586094
1108,1108,[-1.65568280e+03  3.21357328e+02 -3.54961619e-05  2.06213636e+04],1743,2759.4426421701005
1109,1109,[-1.06999922e+03  3.84426883e+02 -5.61809333e-05  2.06212620e+04],2525,2758.5178276416227
1110,1110,[-1.08385339e+03  3.84427020e+02 -7.36965084e-05  2.06212623e+04],855,2758.7887654768115
1111,1111,[-1.37761165e+03  3.49370013e+02 -2.78406475e-05  2.06212823e+04],1484,2756.082429372542
1112,1112,[-1.08577888e+03  3.85427981e+02 -8.24728850e-05  2.06212620e+04],2647,2759.8309260590045
1113,1113,[-1.14547125e+03  3.88431435e+02 -6.13808804e-05  2.06212620e+04],2017,2758.8165984033535
1114,1114,[-1.41330790e+03  3.20356592e+02 -2.69854130e-05  2.06212620e+04],1505,2754.5832750099325
1115,1115,[-1.47816563e+03  3.59399108e+02 -4.10806028e-05  2.06212620e+04],366,2759.40537408663
1116,1116,[-1.18948941e+03  3.91434325e+02 -5.22826280e-05  2.06212620e+04],1973,2760.008123295852
1117,1117,[-1.53983531e+03  3.23359806e+02 -2.39141780e-05  2.06212620e+04],456,2757.702969038384
1118,1118,[-9.35244763e+02  3.17353513e+02 -7.16270512e-06  2.06212620e+04],1053,2741.9611068417066
1119,1119,[-1.17859918e+03  3.71412537e+02 -3.52523161e-05  2.06212620e+04],2088,2752.1822963756304
1120,1120,[-1.58941266e+03  3.89432357e+02 -6.76486658e-05  2.64558052e+04],1737,2757.4119156499396
1121,1121,[-1.18400153e+03  3.93436743e+02 -6.36980252e-05  2.06226116e+04],2245,2750.9124270874836
1122,1122,[-1.12762841e+03  3.89432414e+02 -6.19066459e-05  2.06226116e+04],1820,2750.603740396428
1123,1123,[-1.05706503e+03  3.84426907e+02 -7.06362079e-05  2.06226116e+04],1221,2759.056289762329
1124,1124,[-1.32383621e+03  3.96440283e+02 -8.89064300e-05  2.06226139e+04],770,2760.3346000020456
1125,1125,[-1.55499188e+03  3.22358877e+02 -3.16396842e-05  2.06226116e+04],1240,2753.313904114902
1126,1126,[-1.48268283e+03  3.55389045e+02 -3.06941314e-05  2.06226116e+04],584,2755.525092568851
1127,1127,[-1.38528428e+03  3.73414803e+02 -4.18379467e-05  2.12738784e+04],380,2760.2720271428643
1128,1128,[-1.12860160e+03  3.86429151e+02 -6.42831185e-05  2.06227620e+04],1657,2760.2313956313037
1129,1129,[-1.37130586e+03  3.85425296e+02 -6.70638852e-05  2.06227620e+04],1217,2754.6372299483314
1130,1130,[-1.47160292e+03  3.50389173e+02 -3.41323566e-05  2.06227620e+04],2520,2751.263151118919
1131,1131,[-1.49732883e+03  3.21357759e+02 -2.18993257e-05  2.06227620e+04],376,2757.278761187924
1132,1132,[-1.32711566e+03  3.87373895e+02 -4.75884972e-05  2.06225055e+04],1679,2759.541696709071
1133,1133,[-1.51820520e+03  3.50389047e+02 -4.04694242e-05  2.06227620e+04],588,2760.653091015449
1134,1134,[-1.10806960e+03  3.85428031e+02 -5.93403744e-05  2.06227620e+04],2258,2759.9031514666312
1135,1135,[-1.07164496e+03  3.83425875e+02 -5.36745945e-05  2.06227620e+04],854,2754.953424718354
1136,1136,[-1.09974453e+03  3.85428078e+02 -5.48711336e-05  2.06227620e+04],734,2760.068306816964
1137,1137,[-1.46091585e+03  3.67405075e+02 -4.10731782e-05  2.06227620e+04],1787,2760.775046610233
1138,1138,[-1.11463552e+03  3.86429218e+02 -5.73194385e-05  2.06227620e+04],88,2760.1709797112794
1139,1139,[-1.45962456e+03  3.44380771e+02 -3.03339598e-05  2.06227620e+04],1769,2756.4223473318334
1140,1140,[-1.23673200e+03  3.83425975e+02 -4.75123319e-05  2.76488633e+04],2006,2754.9356954726595
1141,1141,[-1.04736381e+03  3.82424668e+02 -5.34489228e-05  2.06243798e+04],1976,2760.8432481809295
1142,1142,[-1.16588867e+03  3.98442507e+02 -1.31056853e-04  2.06243798e+04],630,2756.5204694559884
1143,1143,[-1.15292717e+03  3.89432442e+02 -5.66216100e-05  2.06243798e+04],297,2757.0228715821054
1144,1144,[-1.60997578e+03  3.22359656e+02 -2.47621033e-05  2.06243798e+04],1173,2758.3605001023457
1145,1145,[-1.41916901e+03  3.47381777e+02 -2.69183287e-05  2.06243798e+04],2288,2758.515529546552
1146,1146,[-1.36455198e+03  3.58397879e+02 -4.65071339e-05  2.06243798e+04],1540,2752.482657974564
1147,1147,[-1.09592785e+03  3.86429128e+02 -4.98968125e-05  2.06243798e+04],415,2750.6301137874666
1148,1148,[-1.09151481e+03  3.84426836e+02 -6.17345860e-05  2.06243798e+04],2474,2754.818134592181
1149,1149,[-1.46608615e+03  3.21358089e+02 -2.75461404e-05  2.06243798e+04],2729,2751.263795716967
1150,1150,[-1.12217482e+03  3.91434676e+02 -8.11285336e-05  2.06243798e+04],401,2753.861798700162
1151,1151,[-1.39031277e+03  3.22358179e+02 -1.93302524e-05  2.06243943e+04],2386,2759.58404045643
1152,1152,[-1.12527314e+03  3.81423661e+02 -6.84871260e-05  2.06243798e+04],2189,2756.9024082816804
1153,1153,[-2.34128278e+03  3.94446399e+02 -1.08144207e-04  2.03906855e+04],1979,2697.2964912785806
1154,1154,[-1.15435932e+03  3.86428969e+02 -6.69910551e-05  2.06243261e+04],1293,2741.7899685001294
1155,1155,[-1.10415846e+03  3.85427986e+02 -4.66040052e-05  2.06243261e+04],2173,2755.3415168122
1156,1156,[-1.05741134e+03  3.84426875e+02 -4.92775531e-05  2.06243261e+04],2281,2757.301303777048
1157,1157,[-1.34091757e+03  3.80422638e+02 -6.13372937e-05  2.47156210e+04],325,2756.953032812091
1158,1158,[-1.52011107e+03  3.76417693e+02 -6.38529580e-05  2.06252645e+04],2552,2758.5332219704574
1159,1159,[-1.08449116e+03  3.84426750e+02 -5.86424417e-05  2.06252645e+04],871,2758.091853725224
1160,1160,[-1.45090847e+03  3.24474544e+02 -2.43605249e-05  2.06252645e+04],1766,2749.4767197453143
1161,1161,[-1.11295557e+03  3.86429198e+02 -7.89574702e-05  2.06252645e+04],223,2756.2672375898683
1162,1162,[-1.12739192e+03  3.87430175e+02 -5.18520224e-05  2.06252645e+04],1776,2759.4618001568606
1163,1163,[-1.06885532e+03  3.83425754e+02 -5.87044975e-05  2.06252645e+04],2620,2759.901275828059
1164,1164,[-1.34168540e+03  3.80419970e+02 -5.22416227e-05  2.06252645e+04],2390,2756.4704281688173
1165,1165,[-1.18426842e+03  4.00444781e+02 -6.50400540e-05  2.06252645e+04],103,2750.997412156421
1166,1166,[-1.51897715e+03  3.23361056e+02 -2.73947192e-05  2.06252645e+04],360,2759.3228511703
1167,1167,[-1.28236488e+03  3.86429263e+02 -7.06477263e-05  2.06252646e+04],1755,2755.88847835308
1168,1168,[-1.16027102e+03  3.96440425e+02 -7.36223554e-05  2.06252650e+04],694,2754.806141178669
1169,1169,[-1.09243605e+03  3.87430241e+02 -5.96984573e-05  2.06252645e+04],2419,2757.3882636838384
1170,1170,[-1.56428739e+03  3.23361538e+02 -2.93432839e-05  2.06252645e+04],2298,2757.2109324535213
1171,1171,[-1.08079228e+03  3.86429149e+02 -6.09304936e-05  2.06252645e+04],370,2750.9610750903057
1172,1172,[-1.32486981e+03  3.87429938e+02 -5.12360265e-05  2.06446703e+04],677,2758.448261636666
1173,1173,[-1.47484171e+03  3.40377466e+02 -3.47799367e-05  2.06252690e+04],214,2757.932199488909
1174,1174,[-1.51922178e+03  3.24366178e+02 -2.52807667e-05  2.06252757e+04],499,2751.7392711907355
1175,1175,[-1.22198811e+03  4.04449167e+02 -1.03407224e-04  2.06252690e+04],2068,2756.1606013727087
1176,1176,[-1.40867598e+03  3.23361267e+02 -1.69638893e-05  2.06252690e+04],2243,2756.9840359983273
1177,1177,[-1.18271451e+03  3.99443605e+02 -1.20184430e-04  2.06252690e+04],2067,2759.6774036776233
1178,1178,[-1.05226298e+03  3.83425788e+02 -6.22243972e-05  2.06252690e+04],1678,2760.729270233615
1179,1179,[-1.12401829e+03  3.86429202e+02 -5.62353222e-05  2.06252690e+04],897,2755.8710141655097
1180,1180,[-1.07595270e+03  3.85427871e+02 -7.11110061e-05  2.06252690e+04],743,2758.2921204721515
1181,1181,[-1.30828812e+03  3.80387962e+02 -4.30603890e-05  2.06252690e+04],1218,2759.469818017716
1182,1182,[-1.45020372e+03  3.42379622e+02 -3.69477926e-05  2.06252690e+04],239,2755.705659470846
1183,1183,[-1.37578238e+03  3.84424091e+02 -6.53731722e-05  2.33833850e+04],941,2758.2978442827357
1184,1184,[-1.33955825e+03  3.86429028e+02 -5.03347657e-05  2.06259085e+04],841,2758.271177560868
1185,1185,[-1.41499140e+03  3.87430391e+02 -6.01441786e-05  2.13795136e+04],1098,2756.83345905812
1186,1186,[-1.40433642e+03  3.86429197e+02 -5.39094587e-05  2.06261180e+04],998,2759.7037585531825
1187,1187,[-1.22379553e+03  3.95439343e+02 -6.10248939e-05  5.63733214e+04],188,2760.67372077828
1188,1188,[-1.34553812e+03  3.51361886e+02 -2.77111022e-05  2.06342158e+04],2256,2755.265976579899
1189,1189,[-1.40250200e+03  3.52386669e+02 -3.64543133e-05  2.06342124e+04],927,2758.6014456898533
1190,1190,[-1.13567065e+03  3.87430292e+02 -5.73148051e-05  2.06342124e+04],91,2760.054548313989
1191,1191,[-1.54038524e+03  3.21357444e+02 -2.34605684e-05  2.06342124e+04],2330,2761.186857655856
1192,1192,[-1.14544623e+03  3.87430324e+02 -6.09052531e-05  2.06342125e+04],305,2759.0851042013182
1193,1193,[-1.17965763e+03  3.98442270e+02 -9.84633855e-05  2.06342124e+04],148,2758.701744665725
1194,1194,[-1.44992889e+03  3.50389155e+02 -3.56343416e-05  2.06342124e+04],2428,2752.7211691374855
1195,1195,[-1.33041696e+03  3.17353186e+02 -1.59025447e-05  2.06342124e+04],2385,2758.1242694398634
1196,1196,[-1.32845115e+03  3.99443792e+02 -7.81813429e-05  2.92989809e+04],964,2758.8856713066525
1197,1197,[-1.46934129e+03  3.70403815e+02 -4.44130812e-05  2.06361822e+04],141,2759.379710805327
1198,1198,[-1.39374009e+03  3.88430474e+02 -5.15234022e-05  2.06361822e+04],2221,2759.5083222530416
1199,1199,[-1.11370197e+03  3.87430321e+02 -4.99696683e-05  2.06361822e+04],1796,2751.265466219369
1200,1200,[-1.51042945e+03  3.22359633e+02 -2.63339487e-05  2.06361822e+04],895,2758.5469448670424
1201,1201,[-1.04753132e+03  3.81423594e+02 -7.01385302e-05  2.06361822e+04],2526,2758.5022120847193
1202,1202,[-1.26468473e+03  4.01445923e+02 -1.11596642e-04  2.06361822e+04],2575,2760.2503169495653
1203,1203,[-1.59073175e+03  3.22367194e+02 -2.36610241e-05  2.06361822e+04],726,2754.4479910517816
1204,1204,[-1.16056355e+03  3.97441314e+02 -5.41742409e-05  2.06361822e+04],2451,2756.3872785095978
1205,1205,[-1.35581942e+03  3.71412594e+02 -4.64636086e-05  2.24739161e+04],2001,2758.30828177036
1206,1206,[-1.29695852e+03  3.18354092e+02 -2.37389377e-05  2.06365991e+04],139,2751.738895373413
1207,1207,[-1.03981244e+03  3.81423495e+02 -6.60788167e-05  2.06365991e+04],625,2756.8371263899703
1208,1208,[-1.08648853e+03  3.85428069e+02 -4.82082860e-05  2.06365991e+04],279,2753.658334647551
1209,1209,[-1.50843084e+03  3.41378979e+02 -3.69689589e-05  2.06366267e+04],1887,2752.3801259757647
1210,1210,[-1.37547634e+03  3.91434628e+02 -7.63207712e-05  2.06365856e+04],795,2748.3267312787607
1211,1211,[-1.40982464e+03  3.23359369e+02 -1.81823924e-05  2.06365967e+04],1413,2751.598904440256
1212,1212,[-1.08000669e+03  3.95439145e+02 -9.00267406e-05  2.06365991e+04],1642,2690.1244095915126
1213,1213,[-3.41359441e+02  3.23361358e+02 -1.79049663e-04  2.06365991e+04],228,2620.1757596766524
1214,1214,[-1.56524394e+03  3.63402953e+02 -6.06196868e-05  2.06365991e+04],1568,2754.2821406296016
1215,1215,[-1.38437147e+03  3.46381783e+02 -3.74633705e-05  2.06365991e+04],544,2758.4098262049106
1216,1216,[-1.68410094e+03  3.21357589e+02 -3.31537290e-05  2.06365991e+04],892,2759.4239891692814
1217,1217,[-1.44447748e+03  3.22359614e+02 -2.45122866e-05  2.06365991e+04],822,2757.966973735074
1218,1218,[-1.15310107e+03  3.96440330e+02 -6.58350110e-05  2.06365991e+04],427,2757.839144153602
1219,1219,[-1.38882882e+03  3.48385558e+02 -2.84783483e-05  2.06365991e+04],170,2757.7141473669594
1220,1220,[-1.43059001e+03  3.24360816e+02 -1.96406692e-05  2.06365991e+04],1616,2758.1867086069033
1221,1221,[-1.37901558e+03  3.22362010e+02 -1.93528387e-05  2.06365991e+04],918,2757.9721728500153
1222,1222,[-1.58562012e+03  3.22358887e+02 -3.04432976e-05  2.06365991e+04],1083,2758.711677642387
1223,1223,[-1.33361689e+03  3.84426465e+02 -5.97813349e-05  2.06365991e+04],2155,2759.4497446435525
1224,1224,[-1.44100526e+03  3.38375717e+02 -2.95062977e-05  2.06366409e+04],1489,2759.258683927996
1225,1225,[-1.15979445e+03  3.87430252e+02 -5.72534288e-05  2.06365991e+04],1728,2759.9809596124555
1226,1226,[-1.53531223e+03  3.54393640e+02 -4.21332927e-05  2.06365991e+04],1998,2757.650612574805
1227,1227,[-1.04231871e+03  3.82424759e+02 -6.08299491e-05  2.06365991e+04],648,2756.6484433160117
1228,1228,[-1.39336737e+03  3.52373687e+02 -2.89465077e-05  2.06365991e+04],2059,2751.3714099140734
1229,1229,[-1.10372457e+03  3.85428025e+02 -8.43100844e-05  2.06365991e+04],821,2759.014973035581
1230,1230,[-1.40400226e+03  3.54389614e+02 -3.68927490e-05  2.06365991e+04],1847,2760.4016197171445
