,0,1,2,3
0,0,[-2.06444500e+03  3.48387402e+02 -2.64053451e-03 -1.31641694e+07],406,708.7247090239346
1,1,[-2.00361276e+03  3.48387516e+02 -2.53043987e-03 -1.31641694e+07],525,707.534388647229
2,2,[-2.02406543e+03  3.48387417e+02 -2.60819624e-03 -1.31641694e+07],706,705.8638773047321
3,3,[-2.04683241e+03  3.48387137e+02 -2.64718838e-03 -1.31641694e+07],432,704.9302411995823
4,4,[-4.13691109e+03  3.28364906e+02 -1.55863402e-02 -1.31641694e+07],692,706.8439329213518
5,5,[-2.00452558e+03  3.49388344e+02 -3.03808788e-03 -1.31641694e+07],652,713.0915050448232
6,6,[-2.00453372e+03  3.49389026e+02 -3.03641225e-03 -1.31641694e+07],542,713.1244918467348
7,7,[-2.00258751e+03  3.49388402e+02 -3.03012681e-03 -1.31641694e+07],662,711.3284726828592
8,8,[-2.00686194e+03  3.49388246e+02 -3.04215643e-03 -1.31641694e+07],331,707.5531178535095
9,9,[-2.12530524e+03  3.47386210e+02 -2.34532435e-03 -1.31641694e+07],288,706.4400369260851
10,10,[-2.00446515e+03  3.49388221e+02 -3.03604841e-03 -1.31641694e+07],653,707.4336767330262
11,11,[-2.02998083e+03  3.47386524e+02 -2.54967824e-03 -1.31641694e+07],562,710.3152722205011
12,12,[-2.04999044e+03  3.48387174e+02 -2.63883400e-03 -1.31641694e+07],298,705.4322400144008
13,13,[-2.12731654e+03  3.47386101e+02 -2.45880553e-03 -1.31641694e+07],587,708.1260536146349
14,14,[-2.05588136e+03  3.48387513e+02 -2.73867489e-03 -1.31641694e+07],632,704.0955425571146
15,15,[-2.03047408e+03  3.48387891e+02 -2.61031980e-03 -1.31641694e+07],534,707.3949198615412
16,16,[-2.00433414e+03  3.49388272e+02 -3.03496242e-03 -1.31641694e+07],644,708.3664176557731
17,17,[-2.06100659e+03  3.47387486e+02 -2.50285611e-03 -1.31641694e+07],82,713.2589421660282
18,18,[-2.00924640e+03  3.48388764e+02 -2.57030523e-03 -1.31641694e+07],418,713.8900040390398
19,19,[-2.00388283e+03  3.49388278e+02 -3.03778847e-03 -1.31641694e+07],650,712.8299997508575
20,20,[-2.00349118e+03  3.49388498e+02 -3.03417254e-03 -1.31641694e+07],285,713.661625356063
21,21,[-2.00254174e+03  3.49389036e+02 -3.03217289e-03 -1.31641694e+07],477,712.8671410571112
22,22,[-2.00328530e+03  3.49388369e+02 -3.03999564e-03 -1.31641694e+07],677,709.0458647478109
23,23,[-1.85246777e+03  3.48387374e+02 -2.71155671e-03 -1.31641694e+07],296,713.1839559261385
24,24,[-2.00649645e+03  3.48388355e+02 -2.61032402e-03 -1.31641694e+07],658,712.8291035197195
25,25,[-1.94143474e+03  3.48388455e+02 -2.49894264e-03 -1.31641694e+07],416,712.493915133316
26,26,[-2.01836816e+03  3.48388189e+02 -2.54995403e-03 -1.31641694e+07],147,712.1194942133737
27,27,[-2.02691621e+03  3.48387308e+02 -2.55989985e-03 -1.31641694e+07],305,715.0159369332499
28,28,[-2.01961826e+03  3.48387453e+02 -2.60661718e-03 -1.31641694e+07],333,714.2096166928304
29,29,[-2.04993311e+03  3.48387380e+02 -2.59475930e-03 -1.31641694e+07],372,713.5328343066878
30,30,[-2.00423480e+03  3.49388462e+02 -3.03546503e-03 -1.31641694e+07],548,713.4910220039407
31,31,[-2.00436063e+03  3.49388346e+02 -3.03868212e-03 -1.31641694e+07],375,713.7534878315954
32,32,[-2.00379464e+03  3.49389194e+02 -3.03335159e-03 -1.31641694e+07],303,714.325052475189
33,33,[-2.00472487e+03  3.49388266e+02 -3.03651240e-03 -1.31641694e+07],326,713.5910313602385
34,34,[-2.00444578e+03  3.49388379e+02 -3.03747667e-03 -1.31641694e+07],390,713.5145881321666
35,35,[-2.04208549e+03  3.48387318e+02 -2.69467533e-03 -1.31641694e+07],217,714.5103528220894
36,36,[-2.06143598e+03  3.48388451e+02 -2.62666797e-03 -1.31641694e+07],649,714.752740182865
37,37,[-2.00437400e+03  3.49388760e+02 -3.03571504e-03 -1.31641694e+07],385,714.7967154243388
38,38,[-2.06375199e+03  3.47387144e+02 -2.51915537e-03 -1.31641694e+07],355,714.3082883959842
39,39,[-2.07822243e+03  3.47386186e+02 -2.48055629e-03 -1.31641694e+07],642,713.4062658666467
40,40,[-2.00476834e+03  3.49388308e+02 -3.03776004e-03 -1.31641694e+07],397,713.4191389340723
41,41,[-2.00437662e+03  3.49389127e+02 -3.03667801e-03 -1.31641694e+07],475,714.631437976815
42,42,[-2.00334838e+03  3.49388543e+02 -3.03584546e-03 -1.31641694e+07],332,714.5021969328965
43,43,[-2.00380294e+03  3.48387701e+02 -2.53574846e-03 -1.31641694e+07],535,714.9225837174457
44,44,[-2.04906195e+03  3.48387432e+02 -2.58320315e-03 -1.31641694e+07],384,715.0333909280677
45,45,[-2.00445413e+03  3.49388259e+02 -3.03617930e-03 -1.31641694e+07],379,714.8845876076662
46,46,[-2.03908745e+03  3.48387186e+02 -2.65727240e-03 -1.31641694e+07],527,714.3512787867836
47,47,[-2.04121192e+03  3.48387607e+02 -2.59279659e-03 -1.31641694e+07],414,714.0277299377731
48,48,[-2.05033306e+03  3.48387854e+02 -2.58572293e-03 -1.31641694e+07],143,714.0811538507769
49,49,[-2.05155092e+03  3.48387730e+02 -2.61287301e-03 -1.31641694e+07],299,714.2330007713152
50,50,[-2.00453047e+03  3.49388472e+02 -3.03835679e-03 -1.31641694e+07],612,714.7369945860054
51,51,[-2.04393142e+03  3.48387476e+02 -2.59501198e-03 -1.31641694e+07],294,714.0725249000036
52,52,[-2.08350569e+03  3.47387017e+02 -2.49119163e-03 -1.31641694e+07],201,714.158370690744
53,53,[-2.00379184e+03  3.49388364e+02 -3.03419566e-03 -1.31641694e+07],702,714.9286104568091
54,54,[-2.00392738e+03  3.49388504e+02 -3.03490572e-03 -1.31641694e+07],287,714.7252914541692
55,55,[-2.04672888e+03  3.48387257e+02 -2.60468175e-03 -1.31641694e+07],306,713.991446820903
56,56,[-2.00448952e+03  3.49388458e+02 -3.03635400e-03 -1.31641694e+07],290,713.6908599627546
57,57,[-2.06380325e+03  3.48387185e+02 -2.61666826e-03 -1.31641694e+07],259,714.4581382981686
58,58,[-2.04441548e+03  3.48387195e+02 -2.61142663e-03 -1.31641694e+07],449,714.8661448697783
59,59,[-2.04810988e+03  3.48387655e+02 -2.62950128e-03 -1.31641694e+07],639,714.8619634629576
60,60,[-2.04740533e+03  3.48387136e+02 -2.62335294e-03 -1.31641694e+07],553,714.6542782980058
61,61,[-2.00479161e+03  3.49388232e+02 -3.03693289e-03 -1.31641694e+07],168,714.7204335491574
62,62,[-2.03040719e+03  3.48387531e+02 -2.57535738e-03 -1.31641694e+07],220,714.9516992299186
63,63,[-2.00446354e+03  3.49388941e+02 -3.03877750e-03 -1.31641694e+07],523,714.9370946227224
64,64,[-2.00543061e+03  3.49388366e+02 -3.03905021e-03 -1.31641694e+07],155,714.6120088377099
65,65,[-2.06218958e+03  3.48387214e+02 -2.59539498e-03 -1.31641694e+07],417,714.4113622969426
66,66,[-2.12639129e+03  3.47386971e+02 -2.52551223e-03 -1.31641694e+07],353,714.5606386348393
67,67,[-2.05765011e+03  3.48387323e+02 -2.71006704e-03 -1.31641694e+07],694,714.8181281510472
68,68,[-2.09625458e+03  3.47386230e+02 -2.49486185e-03 -1.31641694e+07],489,714.8214665656056
69,69,[-2.02290665e+03  3.48387465e+02 -2.63391953e-03 -1.31641694e+07],688,713.4727964450257
70,70,[-2.02954021e+03  3.48388125e+02 -2.55645703e-03 -1.31641694e+07],106,714.6151761215766
71,71,[-2.02758492e+03  3.48387466e+02 -2.69271468e-03 -1.31641694e+07],411,714.142949716674
72,72,[-2.04327702e+03  3.48387250e+02 -2.64835280e-03 -1.31641694e+07],230,714.7213588512416
73,73,[-2.10735770e+03  3.47386761e+02 -2.49417946e-03 -1.31641694e+07],689,714.8717029814622
74,74,[-2.00426629e+03  3.49388249e+02 -3.03610894e-03 -1.31641694e+07],382,714.5579275832441
75,75,[-2.05123499e+03  3.48387170e+02 -2.64535208e-03 -1.31641694e+07],283,714.970136172166
76,76,[-2.05459425e+03  3.47386001e+02 -2.49213312e-03 -1.31641694e+07],165,713.7322763541398
77,77,[-2.03204539e+03  3.47386118e+02 -2.58034634e-03 -1.31641694e+07],560,714.2005975151477
78,78,[-2.04258168e+03  3.48387232e+02 -2.70525181e-03 -1.31641694e+07],675,714.56883238824
79,79,[-2.02280552e+03  3.48387598e+02 -2.55422934e-03 -1.31641694e+07],643,713.8560290243014
80,80,[-2.04755115e+03  3.48387309e+02 -2.65273524e-03 -1.31641694e+07],554,714.1933621556427
81,81,[-1.96915897e+03  3.47387128e+02 -2.64292048e-03 -1.31641694e+07],310,714.1674029150771
82,82,[-2.04099197e+03  3.48388354e+02 -2.60490574e-03 -1.31641694e+07],89,715.3025455421143
83,83,[-2.13074142e+03  3.47386389e+02 -2.44620036e-03 -1.31641694e+07],179,714.6653684659756
84,84,[-2.06912431e+03  3.48388479e+02 -2.68058353e-03 -1.31641694e+07],670,714.844789799693
85,85,[-2.05312817e+03  3.48387269e+02 -2.69972328e-03 -1.31641694e+07],465,714.9453546745624
86,86,[-2.00502035e+03  3.49389010e+02 -3.03805304e-03 -1.31641694e+07],486,714.7657055797374
87,87,[-2.11520147e+03  3.47386482e+02 -2.43134009e-03 -1.31641694e+07],164,714.5620262390033
88,88,[-2.00472543e+03  3.49388270e+02 -3.03780309e-03 -1.31641694e+07],634,714.9678614025104
89,89,[-2.05616798e+03  3.48387463e+02 -2.61121269e-03 -1.31641694e+07],44,715.0595509938571
90,90,[-2.00544035e+03  3.49388680e+02 -3.03852442e-03 -1.31641694e+07],171,714.0194898668444
91,91,[-2.00493529e+03  3.49388491e+02 -3.03795447e-03 -1.31641694e+07],430,714.1678565576345
92,92,[-2.08550081e+03  3.47386452e+02 -2.54468940e-03 -1.31641694e+07],669,714.4027538758302
93,93,[-2.07163093e+03  3.47386052e+02 -2.50847753e-03 -1.31641694e+07],368,713.7964816685663
94,94,[-2.05672376e+03  3.48387174e+02 -2.64298581e-03 -1.31641694e+07],187,714.4738095051515
95,95,[-2.00436418e+03  3.49388680e+02 -3.03600769e-03 -1.31641694e+07],198,714.8523561611702
96,96,[-2.03996805e+03  3.48388468e+02 -2.55502270e-03 -1.31641694e+07],27,714.0360970928364
97,97,[-2.04234360e+03  3.48387871e+02 -2.56556567e-03 -1.31641694e+07],660,714.7110485892256
98,98,[-2.00434955e+03  3.49388630e+02 -3.03718004e-03 -1.31641694e+07],132,714.127229823524
99,99,[-2.13320711e+03  3.45383781e+02 -2.63335438e-03 -1.31641694e+07],703,714.2195220980085
100,100,[-2.01934152e+03  3.47386166e+02 -2.58381022e-03 -1.31641694e+07],238,714.4656745206352
101,101,[-2.06441819e+03  3.48387222e+02 -2.64253964e-03 -1.31641694e+07],295,713.9915336144027
102,102,[-2.05108203e+03  3.48387260e+02 -2.66395175e-03 -1.31641694e+07],211,714.6850106583483
103,103,[-4.41738666e+03  3.28364915e+02 -1.56475978e-02 -1.31641694e+07],292,712.2286008313936
104,104,[-2.02150245e+03  3.48388020e+02 -2.56110406e-03 -1.31641694e+07],209,711.966995121457
105,105,[-2.00514448e+03  3.49388457e+02 -3.04061542e-03 -1.31641694e+07],656,714.7678565010856
106,106,[-2.04063545e+03  3.48387478e+02 -2.64495645e-03 -1.31641694e+07],485,715.0883893126692
107,107,[-2.00497104e+03  3.49388620e+02 -3.04009598e-03 -1.31641694e+07],564,713.9736134099977
108,108,[-2.00464169e+03  3.49388487e+02 -3.03982571e-03 -1.31641694e+07],538,712.9939322625233
109,109,[-2.03437190e+03  3.48387100e+02 -2.60932125e-03 -1.31641694e+07],371,714.7772846371397
110,110,[-2.12878624e+03  3.47386009e+02 -2.47908918e-03 -1.31641694e+07],232,713.2577286405017
111,111,[-2.10994790e+03  3.47386425e+02 -2.46330961e-03 -1.31641694e+07],173,714.7141710268576
112,112,[-2.02918441e+03  3.48387888e+02 -2.69491561e-03 -1.31641694e+07],319,713.3766197403806
113,113,[-2.03948939e+03  3.48388547e+02 -2.59224795e-03 -1.31641694e+07],335,713.8450179925475
114,114,[-2.00463842e+03  3.49388318e+02 -3.03804822e-03 -1.31641694e+07],75,714.0163707865559
115,115,[-2.00956063e+03  3.48387793e+02 -2.49045512e-03 -1.31641694e+07],88,714.1082373722704
116,116,[-2.04532852e+03  3.48389169e+02 -2.62521219e-03 -1.31641694e+07],221,712.5874941754394
117,117,[-2.05324231e+03  3.48387561e+02 -2.58538199e-03 -1.31641694e+07],327,713.5916140939636
118,118,[-2.00476727e+03  3.49388385e+02 -3.03809997e-03 -1.31641694e+07],532,714.3472654597103
119,119,[-2.06983363e+03  3.47386332e+02 -2.54328690e-03 -1.31641694e+07],293,714.4914392092246
120,120,[-2.04548309e+03  3.47386099e+02 -2.54432929e-03 -1.31641694e+07],309,714.22315409995
121,121,[-2.03251520e+03  3.48387547e+02 -2.56838790e-03 -1.31641694e+07],640,713.9801882835576
122,122,[-2.00438403e+03  3.49388710e+02 -3.03841142e-03 -1.31641694e+07],280,713.6635368059417
123,123,[-2.04596366e+03  3.48388488e+02 -2.64888354e-03 -1.31641694e+07],62,712.7066633273216
124,124,[-2.00816998e+03  3.48387918e+02 -2.56763249e-03 -1.31641694e+07],671,714.1821866708639
125,125,[-2.00525078e+03  3.49388468e+02 -3.03969506e-03 -1.31641694e+07],635,713.6821443505092
126,126,[-2.05616419e+03  3.48387358e+02 -2.59107464e-03 -1.31641694e+07],195,714.6610415904008
127,127,[-2.05245405e+03  3.47386042e+02 -2.49223345e-03 -1.31641694e+07],85,713.591392890811
128,128,[-2.06784806e+03  3.46384914e+02 -2.66523752e-03 -1.31641694e+07],342,713.7747440253688
129,129,[-2.04611619e+03  3.48387805e+02 -2.61133542e-03 -1.31641694e+07],307,714.3147427715337
130,130,[-2.03898634e+03  3.48387246e+02 -2.58145595e-03 -1.31641694e+07],63,714.5150265193008
131,131,[-2.05268026e+03  3.47386772e+02 -2.52573493e-03 -1.31641694e+07],234,714.5613860887271
132,132,[-2.00431098e+03  3.49388276e+02 -3.03798508e-03 -1.31641694e+07],376,715.009060807119
133,133,[-2.00513070e+03  3.49388654e+02 -3.03940996e-03 -1.31641694e+07],691,714.1810830369685
134,134,[-2.08539743e+03  3.47386390e+02 -2.48943055e-03 -1.31641694e+07],53,714.3445909773841
135,135,[-2.03260971e+03  3.48387323e+02 -2.59955613e-03 -1.31641694e+07],516,714.6716015230143
136,136,[-2.13738657e+03  3.47386168e+02 -2.37359957e-03 -1.31641694e+07],43,713.1002621942492
137,137,[-2.00531452e+03  3.49388477e+02 -3.04062315e-03 -1.31641694e+07],400,714.2795851218698
138,138,[-2.12183677e+03  3.47387671e+02 -2.44572119e-03 -1.31641694e+07],672,714.0714511342236
139,139,[-2.07142064e+03  3.47386391e+02 -2.47158764e-03 -1.31641694e+07],504,714.6007304695733
140,140,[-2.11231988e+03  3.47386057e+02 -2.48161570e-03 -1.31641694e+07],412,714.3243381418818
141,141,[-2.05902224e+03  3.48388794e+02 -2.68758300e-03 -1.31641694e+07],167,714.1436365372116
142,142,[-2.00423294e+03  3.49388496e+02 -3.03871195e-03 -1.31641694e+07],391,714.1170507760934
143,143,[-2.05487630e+03  3.48388179e+02 -2.62497574e-03 -1.31641694e+07],594,715.1540125857005
144,144,[-4.11749725e+03  3.28364882e+02 -1.29116661e-02 -1.31641694e+07],419,714.7649082889748
145,145,[-2.00505929e+03  3.49388735e+02 -3.04135496e-03 -1.31641694e+07],444,714.5972273361537
146,146,[-2.06486197e+03  3.47386106e+02 -2.67585192e-03 -1.31641694e+07],601,713.7149222797714
147,147,[-2.09263164e+03  3.47386006e+02 -2.49125254e-03 -1.31641694e+07],377,715.2570195405484
148,148,[-2.00503298e+03  3.49388324e+02 -3.04087255e-03 -1.31641694e+07],45,714.7281421465283
149,149,[-2.06647035e+03  3.48387533e+02 -2.65269416e-03 -1.31641694e+07],501,714.6410717122683
150,150,[-2.04197734e+03  3.48387668e+02 -2.58869277e-03 -1.31641694e+07],197,714.837410946508
151,151,[-2.05711211e+03  3.46385424e+02 -2.71460990e-03 -1.31641694e+07],500,714.6155070474549
152,152,[-2.09191708e+03  3.47387331e+02 -2.49192183e-03 -1.31641694e+07],212,714.5986260125777
153,153,[-2.16079124e+03  3.46385678e+02 -2.50610515e-03 -1.31641694e+07],219,713.7305926396856
154,154,[-2.04962831e+03  3.48387292e+02 -2.59850043e-03 -1.31641694e+07],673,714.862210011168
155,155,[-2.25857297e+03  3.45383839e+02 -2.80009364e-03 -1.31641694e+07],73,715.0990848498677
156,156,[-2.00526160e+03  3.49388247e+02 -3.04168407e-03 -1.31641694e+07],413,714.5703726831025
157,157,[-2.05658637e+03  3.48387723e+02 -2.59420746e-03 -1.31641694e+07],450,713.5270386789472
158,158,[-2.04221005e+03  3.47386088e+02 -2.49593019e-03 -1.31641694e+07],58,714.0540184590155
159,159,[-2.13405434e+03  3.47386489e+02 -2.55647687e-03 -1.31641694e+07],508,714.3585322331002
160,160,[-2.12127145e+03  3.47386123e+02 -2.42779286e-03 -1.31641694e+07],365,714.2310910283223
161,161,[-2.00495322e+03  3.49389217e+02 -3.04057511e-03 -1.31641694e+07],154,714.228570344238
162,162,[-2.05446781e+03  3.47387201e+02 -2.52108988e-03 -1.31641694e+07],59,714.7934837922963
163,163,[-2.04816430e+03  3.48387342e+02 -2.69326946e-03 -1.31641694e+07],621,714.7772287822145
164,164,[-2.05212293e+03  3.48387455e+02 -2.63444273e-03 -1.31641694e+07],200,715.039778643411
165,165,[-2.00501924e+03  3.49389175e+02 -3.04185278e-03 -1.31641694e+07],192,715.0774567509736
166,166,[-2.00571172e+03  3.49388254e+02 -3.04350241e-03 -1.31641694e+07],617,713.6314408120968
167,167,[-2.24404651e+03  3.45384963e+02 -2.89114332e-03 -1.31641694e+07],95,714.9065303637816
168,168,[-2.05347979e+03  3.48387465e+02 -2.62868469e-03 -1.31641694e+07],226,715.106447985925
169,169,[-2.03525997e+03  3.48388261e+02 -2.60159893e-03 -1.31641694e+07],509,714.2239232056527
170,170,[-3.95257682e+03  3.29366121e+02 -1.56355508e-02 -1.31641694e+07],616,713.5715941143151
171,171,[-2.00159174e+03  3.48387775e+02 -2.56173726e-03 -1.31641694e+07],84,715.0327980062991
172,172,[-2.28539347e+03  3.45383845e+02 -2.72373709e-03 -1.31641694e+07],150,713.2057095042447
173,173,[-2.04583159e+03  3.48387932e+02 -2.65707165e-03 -1.31641694e+07],311,714.9798820226858
174,174,[-2.00449672e+03  3.49388266e+02 -3.04204523e-03 -1.31641694e+07],563,713.3190366773505
175,175,[-2.01674375e+03  3.48387435e+02 -2.57220180e-03 -1.31641694e+07],202,713.6684535111984
176,176,[-2.05449677e+03  3.48388671e+02 -2.66293127e-03 -1.31641694e+07],437,714.4057114502934
177,177,[-2.00462104e+03  3.49388883e+02 -3.04162310e-03 -1.31641694e+07],547,714.8170858558885
178,178,[-2.00520608e+03  3.49388221e+02 -3.04336906e-03 -1.31641694e+07],558,714.2477599084463
179,179,[-2.00493922e+03  3.49388378e+02 -3.04154260e-03 -1.31641694e+07],68,715.0554270775596
180,180,[-2.06865030e+03  3.48387119e+02 -2.69226683e-03 -1.31641694e+07],208,714.4762035435641
181,181,[-2.00492396e+03  3.49388388e+02 -3.04268687e-03 -1.31641694e+07],383,713.8190963779431
182,182,[-2.00514845e+03  3.49388251e+02 -3.04272324e-03 -1.31641694e+07],258,713.7127096730662
183,183,[-2.05828782e+03  3.48388119e+02 -2.65851326e-03 -1.31641694e+07],67,714.521982509952
184,184,[-2.06619264e+03  3.48387792e+02 -2.65548054e-03 -1.31641694e+07],177,714.1869299512928
185,185,[-2.05774813e+03  3.48387152e+02 -2.71804216e-03 -1.31641694e+07],606,713.7623883460219
186,186,[-2.08111445e+03  3.48387770e+02 -2.69496315e-03 -1.31641694e+07],405,714.3577316395629
187,187,[-2.05287330e+03  3.48387167e+02 -2.64841125e-03 -1.31641694e+07],638,715.0207328253675
188,188,[-2.10522578e+03  3.47386737e+02 -2.54489736e-03 -1.31641694e+07],474,714.7026607444753
189,189,[-2.10242709e+03  3.47386032e+02 -2.55254414e-03 -1.31641694e+07],398,713.8577628948696
190,190,[-2.05905094e+03  3.48387182e+02 -2.61989425e-03 -1.31641694e+07],422,714.4130784628525
191,191,[-2.04966514e+03  3.48387420e+02 -2.61599201e-03 -1.31641694e+07],667,714.3372248085384
192,192,[-2.00451390e+03  3.49388299e+02 -3.04129156e-03 -1.31641694e+07],227,714.856163699098
193,193,[-2.00507966e+03  3.49388605e+02 -3.04436159e-03 -1.31641694e+07],633,714.1686531780102
194,194,[-2.05679080e+03  3.48387157e+02 -2.62069188e-03 -1.31641694e+07],471,713.8306542758424
195,195,[-2.00507543e+03  3.49388980e+02 -3.04303552e-03 -1.31641694e+07],37,714.9457325032066
196,196,[-2.11063379e+03  3.47386883e+02 -2.50834657e-03 -1.31641694e+07],162,714.4486070645171
197,197,[-2.05396667e+03  3.48387503e+02 -2.69708959e-03 -1.31641694e+07],476,714.88227197484
198,198,[-2.00475747e+03  3.49388420e+02 -3.04166949e-03 -1.31641694e+07],585,715.0163580531229
199,199,[-2.00532434e+03  3.49388275e+02 -3.04400154e-03 -1.31641694e+07],215,713.655992420671
200,200,[-2.02197733e+03  3.48387586e+02 -2.57277703e-03 -1.31641694e+07],401,714.8582858811487
201,201,[-2.03829633e+03  3.48387531e+02 -2.57161202e-03 -1.31641694e+07],271,715.1385880796602
202,202,[-2.01631465e+03  3.48389291e+02 -2.56850870e-03 -1.31641694e+07],370,714.8272417479776
203,203,[-2.02029191e+03  3.48387870e+02 -2.57942443e-03 -1.31641694e+07],657,714.410396703116
204,204,[-2.00495268e+03  3.49388219e+02 -3.04308419e-03 -1.31641694e+07],276,714.515729071009
205,205,[-2.00438870e+03  3.49389145e+02 -3.04140725e-03 -1.31641694e+07],222,713.8143621650842
206,206,[-4.45393300e+03  3.29366062e+02 -1.27195796e-02 -1.31641694e+07],320,714.2690382119613
207,207,[-2.03431694e+03  3.48387649e+02 -2.68420098e-03 -1.31641694e+07],531,714.1391696523327
208,208,[-2.00471255e+03  3.49388454e+02 -3.04300857e-03 -1.31641694e+07],109,714.8213782658459
209,209,[-2.00421256e+03  3.49389561e+02 -3.04340549e-03 -1.31641694e+07],163,714.9960637803613
210,210,[-2.03974016e+03  3.48388691e+02 -2.62497932e-03 -1.31641694e+07],561,714.276951464463
211,211,[-2.04685756e+03  3.48387225e+02 -2.60182620e-03 -1.31641694e+07],695,715.0021801657897
212,212,[-2.00496475e+03  3.49388236e+02 -3.04309225e-03 -1.31641694e+07],717,714.8798508082531
213,213,[-2.07916951e+03  3.47386401e+02 -2.51166142e-03 -1.31641694e+07],105,714.2429312873546
214,214,[-4.30600080e+03  3.28364888e+02 -1.43413699e-02 -1.31641694e+07],86,714.599155591077
215,215,[-2.07497652e+03  3.47386696e+02 -2.60751089e-03 -1.31641694e+07],387,714.7873552505474
216,216,[-2.00500715e+03  3.49388222e+02 -3.04542066e-03 -1.31641694e+07],144,714.7618338417608
217,217,[-2.11090288e+03  3.47386167e+02 -2.55352276e-03 -1.31641694e+07],216,715.2158983859534
218,218,[-2.08773728e+03  3.47386384e+02 -2.49293263e-03 -1.31641694e+07],346,714.1602158917555
219,219,[-2.00522462e+03  3.49388433e+02 -3.04532588e-03 -1.31641694e+07],595,714.8771659464439
220,220,[-2.03008203e+03  3.48387350e+02 -2.54425251e-03 -1.31641694e+07],329,715.1063380179959
221,221,[-2.02020170e+03  3.48387267e+02 -2.58009640e-03 -1.31641694e+07],550,714.964216942134
222,222,[-2.04008249e+03  3.48387298e+02 -2.63546239e-03 -1.31641694e+07],36,714.7800041046355
223,223,[-2.00527362e+03  3.49388398e+02 -3.04577737e-03 -1.31641694e+07],240,713.6286710581937
224,224,[-2.01011209e+03  3.48389143e+02 -2.61652336e-03 -1.31641694e+07],300,714.396770907384
225,225,[-2.00423750e+03  3.48387963e+02 -2.57304089e-03 -1.31641694e+07],496,712.6312187434211
226,226,[-2.04072954e+03  3.48387965e+02 -2.69876579e-03 -1.31641694e+07],347,714.8498731520785
227,227,[-2.03924697e+03  3.48387745e+02 -2.60962413e-03 -1.31641694e+07],463,714.8001153497753
228,228,[-2.08519479e+03  3.47386174e+02 -2.58040880e-03 -1.31641694e+07],50,714.3094549097451
229,229,[-2.04156438e+03  3.48387224e+02 -2.69856137e-03 -1.31641694e+07],659,714.4430932471527
230,230,[-2.09733211e+03  3.47386381e+02 -2.49226656e-03 -1.31641694e+07],328,715.0856583211519
231,231,[-2.00466406e+03  3.49388219e+02 -3.04394658e-03 -1.31641694e+07],626,714.537607984895
232,232,[-2.00510583e+03  3.49388303e+02 -3.04556732e-03 -1.31641694e+07],610,714.9802534325406
233,233,[-2.07265437e+03  3.47386087e+02 -2.43331886e-03 -1.31641694e+07],380,713.1476992998324
234,234,[-2.00496502e+03  3.49388671e+02 -3.04422692e-03 -1.31641694e+07],148,714.9351027884821
235,235,[-2.04709692e+03  3.48387163e+02 -2.59456587e-03 -1.31641694e+07],557,714.409320939265
236,236,[-2.02550491e+03  3.48387156e+02 -2.59044711e-03 -1.31641694e+07],54,714.3429749388575
237,237,[-2.05854547e+03  3.48388431e+02 -2.72303403e-03 -1.31641694e+07],515,714.6416058083222
238,238,[-2.00509460e+03  3.49388673e+02 -3.04498343e-03 -1.31641694e+07],409,715.0027912346408
239,239,[-2.04889134e+03  3.48387283e+02 -2.64146458e-03 -1.31641694e+07],622,714.5937487507144
240,240,[-2.02296445e+03  3.48387163e+02 -2.58986782e-03 -1.31641694e+07],614,714.7525550528608
241,241,[-2.00438170e+03  3.49388211e+02 -3.04265214e-03 -1.31641694e+07],72,714.3559383135232
242,242,[-2.00482239e+03  3.49388717e+02 -3.04481498e-03 -1.31641694e+07],61,714.4751461175704
243,243,[-2.00976427e+03  3.48387539e+02 -2.59393804e-03 -1.31641694e+07],363,714.5578917020334
244,244,[-2.10359226e+03  3.47386217e+02 -2.46354130e-03 -1.31641694e+07],343,714.0166948048894
245,245,[-2.03775845e+03  3.48387335e+02 -2.60364075e-03 -1.31641694e+07],111,714.4468990978727
246,246,[-2.03358401e+03  3.48387248e+02 -2.57986906e-03 -1.31641694e+07],97,714.5188339440664
247,247,[-2.04017836e+03  3.48387850e+02 -2.69636005e-03 -1.31641694e+07],710,714.6528335257
248,248,[-2.00501399e+03  3.49389047e+02 -3.04526386e-03 -1.31641694e+07],529,713.9091749069298
249,249,[-2.09674928e+03  3.47386138e+02 -2.42521627e-03 -1.31641694e+07],555,711.6509885112433
250,250,[-2.09282163e+03  3.47386268e+02 -2.38973539e-03 -1.31641694e+07],424,714.577928943032
251,251,[-2.09962003e+03  3.47386975e+02 -2.52583258e-03 -1.31641694e+07],690,712.2957248052112
252,252,[-2.10962327e+03  3.47387110e+02 -2.47296759e-03 -1.31641694e+07],330,714.3926874049697
253,253,[-2.03339409e+03  3.48387317e+02 -2.60702010e-03 -1.31641694e+07],188,710.4703133913503
254,254,[-2.00411407e+03  3.49388356e+02 -3.04276144e-03 -1.31641694e+07],678,710.9616031357974
255,255,[-2.04558735e+03  3.48387234e+02 -2.58656227e-03 -1.31641694e+07],262,712.7191840998701
256,256,[-2.00484113e+03  3.49388760e+02 -3.04471762e-03 -1.31641694e+07],630,713.0884790255081
257,257,[-2.05784692e+03  3.47386609e+02 -2.63296311e-03 -1.31641694e+07],360,712.9950363585248
258,258,[-2.03426630e+03  3.48387700e+02 -2.57281017e-03 -1.31641694e+07],374,714.818982835165
259,259,[-2.03610126e+03  3.48387501e+02 -2.57625409e-03 -1.31641694e+07],602,715.1206861697668
260,260,[-2.00427355e+03  3.49388266e+02 -3.04339028e-03 -1.31641694e+07],102,714.1511381719234
261,261,[-2.12463404e+03  3.47386398e+02 -2.49700810e-03 -1.31641694e+07],427,713.5447195552802
262,262,[-2.00497804e+03  3.49388248e+02 -3.04535153e-03 -1.31641694e+07],272,714.6962007169763
263,263,[-2.00480697e+03  3.49388542e+02 -3.04586370e-03 -1.31641694e+07],388,713.1385847675903
264,264,[-2.00479626e+03  3.49388832e+02 -3.04473136e-03 -1.31641694e+07],135,714.4248215920942
265,265,[-2.10923041e+03  3.47386700e+02 -2.48341105e-03 -1.31641694e+07],637,711.1932742756842
266,266,[-2.08919938e+03  3.47386681e+02 -2.55238666e-03 -1.31641694e+07],661,710.5238572343873
267,267,[-2.06421866e+03  3.48387250e+02 -2.64932355e-03 -1.31641694e+07],625,712.763537865308
268,268,[-2.00450776e+03  3.49388632e+02 -3.04362234e-03 -1.31641694e+07],83,713.8892661908903
269,269,[-2.03141290e+03  3.46385061e+02 -2.71693088e-03 -1.31641694e+07],596,712.7629664755135
270,270,[-2.06326621e+03  3.47386173e+02 -2.51475440e-03 -1.31641694e+07],613,713.8516717126508
271,271,[-2.07973308e+03  3.47386598e+02 -2.48073909e-03 -1.31641694e+07],126,714.7833481341446
272,272,[-2.00515996e+03  3.49389095e+02 -3.04575058e-03 -1.31641694e+07],273,714.6820596177963
273,273,[-2.06822026e+03  3.48388362e+02 -2.67920713e-03 -1.31641694e+07],60,714.6544900170537
274,274,[-4.33543536e+03  3.29366263e+02 -1.42816020e-02 -1.31641694e+07],530,713.7831853697968
275,275,[-2.05932426e+03  3.48388456e+02 -2.62243996e-03 -1.31641694e+07],247,714.3497065170671
276,276,[-2.00514380e+03  3.49388235e+02 -3.04623914e-03 -1.31641694e+07],549,714.7800689177001
277,277,[-2.00483419e+03  3.49388839e+02 -3.04677838e-03 -1.31641694e+07],505,714.1525844957664
278,278,[-2.09244178e+03  3.47386465e+02 -2.53809291e-03 -1.31641694e+07],381,714.3625400186734
279,279,[-2.04853417e+03  3.48387781e+02 -2.60593617e-03 -1.31641694e+07],598,714.4338477125912
280,280,[-2.00498714e+03  3.49388233e+02 -3.04610981e-03 -1.31641694e+07],481,714.9560538275679
281,281,[-2.05852649e+03  3.48387279e+02 -2.61704927e-03 -1.31641694e+07],402,714.3816601965161
282,282,[-2.00510618e+03  3.49388241e+02 -3.04653231e-03 -1.31641694e+07],237,713.3233897102765
283,283,[-2.04943820e+03  3.48387275e+02 -2.63356645e-03 -1.31641694e+07],149,715.078202750962
284,284,[-2.04887059e+03  3.48387822e+02 -2.60906834e-03 -1.31641694e+07],648,714.1405397709019
285,285,[-2.10177358e+03  3.47386047e+02 -2.44797481e-03 -1.31641694e+07],453,715.2879079301935
286,286,[-2.04635009e+03  3.48387108e+02 -2.57930364e-03 -1.31641694e+07],664,714.5604485361707
287,287,[-2.00495465e+03  3.49388391e+02 -3.04628179e-03 -1.31641694e+07],636,715.1290499937843
288,288,[-2.04812898e+03  3.48387943e+02 -2.64805048e-03 -1.31641694e+07],491,715.35862590084
289,289,[-2.01796412e+03  3.47386807e+02 -2.49502738e-03 -1.31641694e+07],41,714.1274231549385
290,290,[-2.16575949e+03  3.46385829e+02 -2.50956056e-03 -1.31641694e+07],495,715.1227609224355
291,291,[-2.10971927e+03  3.47386463e+02 -2.43189559e-03 -1.31641694e+07],393,714.4721549120884
292,292,[-2.03245989e+03  3.48387767e+02 -2.59606904e-03 -1.31641694e+07],631,714.9977107505006
293,293,[-2.08629100e+03  3.47386693e+02 -2.60194339e-03 -1.31641694e+07],378,714.9612279712962
294,294,[-2.02470296e+03  3.48388107e+02 -2.62129692e-03 -1.31641694e+07],151,715.1422986507396
295,295,[-2.03962247e+03  3.48387194e+02 -2.62766301e-03 -1.31641694e+07],70,715.0026609620155
296,296,[-2.03110693e+03  3.48388071e+02 -2.59863693e-03 -1.31641694e+07],64,715.2854281135419
297,297,[-3.38645915e+03  3.30367503e+02 -1.01202752e-02 -1.31641694e+07],552,714.1955046071206
298,298,[-2.06300456e+03  3.48387315e+02 -2.65666662e-03 -1.31641694e+07],386,715.3287486442293
299,299,[-2.00510102e+03  3.49388783e+02 -3.04769729e-03 -1.31641694e+07],599,715.152456184018
300,300,[-2.00523631e+03  3.49388397e+02 -3.04827941e-03 -1.31641694e+07],503,714.7472337994549
301,301,[-2.08451159e+03  3.47386117e+02 -2.48814136e-03 -1.31641694e+07],139,714.5697615964145
302,302,[-2.00508514e+03  3.49388704e+02 -3.04772671e-03 -1.31641694e+07],214,713.8209235785722
303,303,[-2.00470896e+03  3.49388707e+02 -3.04650990e-03 -1.31641694e+07],152,715.2218588027379
304,304,[-2.00482273e+03  3.49388854e+02 -3.04797428e-03 -1.31641694e+07],308,714.1711776074335
305,305,[-2.00493659e+03  3.49388528e+02 -3.04749365e-03 -1.31641694e+07],502,715.2554630310314
306,306,[-2.03685479e+03  3.48387725e+02 -2.64600195e-03 -1.31641694e+07],145,715.12845888418
307,307,[-2.00504712e+03  3.49388757e+02 -3.04757479e-03 -1.31641694e+07],239,714.9377120835371
308,308,[-2.08684036e+03  3.47387019e+02 -2.55711111e-03 -1.31641694e+07],716,714.5984959260718
309,309,[-2.04478717e+03  3.48387706e+02 -2.60495719e-03 -1.31641694e+07],250,714.9584365156708
310,310,[-2.05784089e+03  3.48387229e+02 -2.60953805e-03 -1.31641694e+07],357,715.0622035785202
311,311,[-2.11679943e+03  3.47386516e+02 -2.51011748e-03 -1.31641694e+07],499,714.8323318833064
312,312,[-2.10809745e+03  3.47386576e+02 -2.50652070e-03 -1.31641694e+07],156,714.4993962594067
313,313,[-2.03929597e+03  3.48387334e+02 -2.67906390e-03 -1.31641694e+07],301,713.9850348285985
314,314,[-2.08111505e+03  3.47386559e+02 -2.50532900e-03 -1.31641694e+07],78,714.4248847776928
315,315,[-2.03832250e+03  3.48387140e+02 -2.60309354e-03 -1.31641694e+07],487,714.4131412438977
316,316,[-2.04656301e+03  3.48387203e+02 -2.66513182e-03 -1.31641694e+07],87,714.4787384772515
317,317,[-2.03740622e+03  3.48387833e+02 -2.59371481e-03 -1.31641694e+07],131,713.6231705926741
318,318,[-2.06542015e+03  3.48387132e+02 -2.65181063e-03 -1.31641694e+07],66,714.4457356389697
319,319,[-2.00500317e+03  3.49388326e+02 -3.04741525e-03 -1.31641694e+07],286,714.974926369114
320,320,[-2.12236071e+03  3.46385057e+02 -2.55768911e-03 -1.31641694e+07],74,714.7792576346541
321,321,[-2.13138901e+03  3.46384880e+02 -2.40539627e-03 -1.31641694e+07],243,712.3284370521961
322,322,[-2.06942150e+03  3.47386397e+02 -2.51132501e-03 -1.31641694e+07],707,714.4592427466869
323,323,[-2.05164243e+03  3.48387192e+02 -2.64215133e-03 -1.31641694e+07],676,714.4121852136954
324,324,[-2.10431183e+03  3.47386980e+02 -2.46630615e-03 -1.31641694e+07],456,714.4298526904419
325,325,[-2.05379898e+03  3.48387263e+02 -2.60603491e-03 -1.31641694e+07],341,714.3937539055111
326,326,[-2.11379603e+03  3.47386286e+02 -2.45643937e-03 -1.31641694e+07],685,715.2210159285783
327,327,[-2.06064794e+03  3.48387227e+02 -2.64254038e-03 -1.31641694e+07],231,714.9638609633976
328,328,[-2.00517549e+03  3.49388488e+02 -3.04829389e-03 -1.31641694e+07],469,714.7325270626701
329,329,[-2.04786150e+03  3.48388480e+02 -2.68793551e-03 -1.31641694e+07],687,714.7567402643193
330,330,[-2.10637275e+03  3.47386532e+02 -2.36409648e-03 -1.31641694e+07],668,714.7056915843268
331,331,[-2.06262905e+03  3.47386579e+02 -2.51884234e-03 -1.31641694e+07],600,715.3590940636034
332,332,[-2.03698036e+03  3.48388167e+02 -2.57131833e-03 -1.31641694e+07],392,715.1746571108404
333,333,[-2.12404459e+03  3.47386314e+02 -2.47185190e-03 -1.31641694e+07],452,715.253347196886
334,334,[-2.08584031e+03  3.47386623e+02 -2.48653251e-03 -1.31641694e+07],183,714.4290416233182
335,335,[-2.09378607e+03  3.47386811e+02 -2.43677403e-03 -1.31641694e+07],663,714.9717334706324
336,336,[-2.20710605e+03  3.45384198e+02 -2.78258985e-03 -1.31641694e+07],524,713.6165303659899
337,337,[-2.05595925e+03  3.48387205e+02 -2.65613240e-03 -1.31641694e+07],246,712.9267699908742
338,338,[-2.00496718e+03  3.49388684e+02 -3.04775243e-03 -1.31641694e+07],490,714.1833371060814
339,339,[-2.10957283e+03  3.47386060e+02 -2.31976902e-03 -1.31641694e+07],204,712.5864728708185
340,340,[-2.06274347e+03  3.48387734e+02 -2.72993231e-03 -1.31641694e+07],130,714.0748965577029
341,341,[-2.03859929e+03  3.48387254e+02 -2.62419961e-03 -1.31641694e+07],544,714.5549975714002
342,342,[-2.00513404e+03  3.49388657e+02 -3.04830218e-03 -1.31641694e+07],35,714.9391209774286
343,343,[-2.10208145e+03  3.47386315e+02 -2.56837778e-03 -1.31641694e+07],528,714.7149967346858
344,344,[-2.10409029e+03  3.47386640e+02 -2.50801459e-03 -1.31641694e+07],641,714.2997570359677
345,345,[-2.10196603e+03  3.47386120e+02 -2.41107976e-03 -1.31641694e+07],514,713.4588684101171
346,346,[-2.06109421e+03  3.48387101e+02 -2.63394985e-03 -1.31641694e+07],42,714.7617832083234
347,347,[-2.06259707e+03  3.48387273e+02 -2.70035433e-03 -1.31641694e+07],312,714.7417926668104
348,348,[-2.00502402e+03  3.49388340e+02 -3.04774610e-03 -1.31641694e+07],604,714.0566096949866
349,349,[-2.10001262e+03  3.47386509e+02 -2.64322548e-03 -1.31641694e+07],119,712.1212388833748
350,350,[-2.07125511e+03  3.48387625e+02 -2.68999091e-03 -1.31641694e+07],316,712.2424120829618
351,351,[-2.12487576e+03  3.47386065e+02 -2.46500123e-03 -1.31641694e+07],180,712.2158340083781
352,352,[-2.04785776e+03  3.48388132e+02 -2.63092918e-03 -1.31641694e+07],242,713.3336664438492
353,353,[-2.08455336e+03  3.47386293e+02 -2.50566267e-03 -1.31641694e+07],399,715.0925437336372
354,354,[-2.02961171e+03  3.48387341e+02 -2.55216827e-03 -1.31641694e+07],609,713.7249818895266
355,355,[-2.10990746e+03  3.47386108e+02 -2.44547343e-03 -1.31641694e+07],94,715.1893747111504
356,356,[-1.99767455e+03  3.48387406e+02 -2.60042784e-03 -1.31641694e+07],291,714.1463148797994
357,357,[-2.00507849e+03  3.49388605e+02 -3.04817859e-03 -1.31641694e+07],545,714.5732274379757
358,358,[-5.20427648e+03  3.28364860e+02 -1.50193594e-02 -1.31641694e+07],701,712.838625995543
359,359,[-2.32001501e+03  3.44382895e+02 -2.73052138e-03 -1.31641694e+07],100,714.070086863152
360,360,[-2.05772968e+03  3.48387253e+02 -2.61649022e-03 -1.31641694e+07],593,714.6957904279551
361,361,[-2.00516708e+03  3.49388576e+02 -3.04951048e-03 -1.31641694e+07],395,714.312542845605
362,362,[-2.05391212e+03  3.48387223e+02 -2.69071058e-03 -1.31641694e+07],322,714.4028757854677
363,363,[-2.01106244e+03  3.48388226e+02 -2.66540521e-03 -1.31641694e+07],57,714.7196788490094
364,364,[-2.00516679e+03  3.49388799e+02 -3.04966429e-03 -1.31641694e+07],196,714.2446610467158
365,365,[-2.05345618e+03  3.48387990e+02 -2.63337824e-03 -1.31641694e+07],245,714.8637803569592
366,366,[-2.03808326e+03  3.48387194e+02 -2.70051280e-03 -1.31641694e+07],318,714.430472420577
367,367,[-2.03178888e+03  3.48387782e+02 -2.68379106e-03 -1.31641694e+07],480,714.1530725613691
368,368,[-2.04569146e+03  3.48388332e+02 -2.61193617e-03 -1.31641694e+07],590,715.0251917234904
369,369,[-2.00516956e+03  3.49388973e+02 -3.04975028e-03 -1.31641694e+07],229,714.439921477678
370,370,[-2.00516610e+03  3.49388258e+02 -3.04940357e-03 -1.31641694e+07],468,714.7808354605006
371,371,[-2.11248129e+03  3.47386161e+02 -2.52523313e-03 -1.31641694e+07],369,714.9815486047395
372,372,[-2.04550583e+03  3.48387315e+02 -2.60943460e-03 -1.31641694e+07],666,715.2484656240707
373,373,[-2.07492588e+03  3.47386294e+02 -2.50736895e-03 -1.31641694e+07],483,714.4031611602669
374,374,[-2.05710121e+03  3.48387434e+02 -2.64103684e-03 -1.31641694e+07],279,714.6942916273739
375,375,[-2.10279546e+03  3.47386370e+02 -2.47586350e-03 -1.31641694e+07],366,715.2272251165161
376,376,[-2.10566193e+03  3.47386865e+02 -2.56486028e-03 -1.31641694e+07],324,714.933232125838
377,377,[-2.06425183e+03  3.48387350e+02 -2.64314955e-03 -1.31641694e+07],334,714.8918810928197
378,378,[-2.12136071e+03  3.47386625e+02 -2.54949330e-03 -1.31641694e+07],521,714.6222250329866
379,379,[-2.00519435e+03  3.49388524e+02 -3.04984593e-03 -1.31641694e+07],458,715.1665011746242
380,380,[-2.07104431e+03  3.47386704e+02 -2.66958977e-03 -1.31641694e+07],314,714.7303962045444
381,381,[-2.03109535e+03  3.48387345e+02 -2.61444817e-03 -1.31641694e+07],264,714.6509432144221
382,382,[-2.04195085e+03  3.48387960e+02 -2.63048357e-03 -1.31641694e+07],708,715.0824542278117
383,383,[-2.07091127e+03  3.47386254e+02 -2.59439085e-03 -1.31641694e+07],448,714.8195890359907
384,384,[-2.00516336e+03  3.49388426e+02 -3.04978139e-03 -1.31641694e+07],315,715.1672685229703
385,385,[-2.04127177e+03  3.48387551e+02 -2.62490530e-03 -1.31641694e+07],190,715.213337001685
386,386,[-2.00513476e+03  3.49388624e+02 -3.04987816e-03 -1.31641694e+07],608,714.6064448843675
387,387,[-2.15748372e+03  3.46384973e+02 -2.80583843e-03 -1.31641694e+07],323,714.76542775567
388,388,[-2.00505489e+03  3.49388467e+02 -3.04948161e-03 -1.31641694e+07],65,714.6813519156924
389,389,[-2.14403749e+03  3.47386554e+02 -2.50286031e-03 -1.31641694e+07],589,714.2055298433363
390,390,[-2.03201977e+03  3.48387210e+02 -2.59484326e-03 -1.31641694e+07],203,715.2185569453212
391,391,[-2.00514749e+03  3.49388437e+02 -3.04980702e-03 -1.31641694e+07],235,714.9025317898377
392,392,[-2.10635212e+03  3.47387044e+02 -2.47452776e-03 -1.31641694e+07],176,714.5251269724317
393,393,[-2.00525594e+03  3.49388489e+02 -3.05034185e-03 -1.31641694e+07],373,714.6225577318887
394,394,[-2.08299820e+03  3.47386214e+02 -2.44476462e-03 -1.31641694e+07],362,713.733219316335
395,395,[-2.00522015e+03  3.49388332e+02 -3.04972361e-03 -1.31641694e+07],92,714.4593218404368
396,396,[-2.06531102e+03  3.48387838e+02 -2.65036855e-03 -1.31641694e+07],693,713.6044161540493
397,397,[-2.05051203e+03  3.48387262e+02 -2.60875818e-03 -1.31641694e+07],619,715.1887381497677
398,398,[-2.03418774e+03  3.48388905e+02 -2.57822364e-03 -1.31641694e+07],224,714.8036857745659
399,399,[-2.09259064e+03  3.47386024e+02 -2.37687898e-03 -1.31641694e+07],543,714.4751384081749
400,400,[-2.05764329e+03  3.48387303e+02 -2.65429703e-03 -1.31641694e+07],325,714.9162382666782
401,401,[-2.04091466e+03  3.48388250e+02 -2.61529958e-03 -1.31641694e+07],252,714.7863756309334
402,402,[-2.10477162e+03  3.47386052e+02 -2.46258290e-03 -1.31641694e+07],623,714.6476249996512
403,403,[-2.01442141e+03  3.48387108e+02 -2.50882316e-03 -1.31641694e+07],281,713.6551851166365
404,404,[-2.01739991e+03  3.48387119e+02 -2.60061624e-03 -1.31641694e+07],404,714.3792726876446
405,405,[-2.04677344e+03  3.48387630e+02 -2.60538722e-03 -1.31641694e+07],536,714.8088426646073
406,406,[-2.05450866e+03  3.48387293e+02 -2.67436715e-03 -1.31641694e+07],539,715.5329952988819
407,407,[-2.00523723e+03  3.49388719e+02 -3.05008373e-03 -1.31641694e+07],607,712.7289597349996
408,408,[-2.03545384e+03  3.48387475e+02 -2.64102221e-03 -1.31641694e+07],494,713.9741566827023
409,409,[-2.05399977e+03  3.48387503e+02 -2.70355614e-03 -1.31641694e+07],440,714.7246700009251
410,410,[-2.12068741e+03  3.47387157e+02 -2.34079443e-03 -1.31641694e+07],278,714.0688266365037
411,411,[-2.04955911e+03  3.48387097e+02 -2.59996967e-03 -1.31641694e+07],159,715.0882570127153
412,412,[-2.03356865e+03  3.48387436e+02 -2.58842539e-03 -1.31641694e+07],186,714.9074939413101
413,413,[-2.05998697e+03  3.48387110e+02 -2.72502430e-03 -1.31641694e+07],241,714.8698604040625
414,414,[-2.00510119e+03  3.49388239e+02 -3.04970541e-03 -1.31641694e+07],711,715.1561262803835
415,415,[-2.06584105e+03  3.48387275e+02 -2.64869051e-03 -1.31641694e+07],46,713.7946528321539
416,416,[-2.05477969e+03  3.48387806e+02 -2.69244440e-03 -1.31641694e+07],275,715.2709617944398
417,417,[-2.13318834e+03  3.47386049e+02 -2.46751491e-03 -1.31641694e+07],618,715.0959195180639
418,418,[-2.00518039e+03  3.49388454e+02 -3.04998117e-03 -1.31641694e+07],118,715.3005285940395
419,419,[-2.00502381e+03  3.49389067e+02 -3.04995869e-03 -1.31641694e+07],134,714.8971948747366
420,420,[-2.04809468e+03  3.48387127e+02 -2.59353077e-03 -1.31641694e+07],520,713.8089536528001
421,421,[-2.05479874e+03  3.48387158e+02 -2.62535417e-03 -1.31641694e+07],236,713.587302674706
422,422,[-2.06138745e+03  3.48387570e+02 -2.69790364e-03 -1.31641694e+07],436,714.8029783142754
423,423,[-2.30070507e+03  3.45384907e+02 -2.69606286e-03 -1.31641694e+07],443,713.6264500922846
424,424,[-2.00514345e+03  3.49389349e+02 -3.05060141e-03 -1.31641694e+07],611,714.7079785150582
425,425,[-2.03894107e+03  3.48387239e+02 -2.64713228e-03 -1.31641694e+07],191,714.0096508313038
426,426,[-3.57972202e+03  3.29366039e+02 -1.19012079e-02 -1.31641694e+07],488,712.6765071928489
427,427,[-2.10185195e+03  3.47386482e+02 -2.56123275e-03 -1.31641694e+07],586,714.6849579268677
428,428,[-2.04859215e+03  3.48387155e+02 -2.56205726e-03 -1.31641694e+07],32,713.6632964549212
429,429,[-2.05275860e+03  3.48387501e+02 -2.72618504e-03 -1.31641694e+07],140,713.9860527378985
430,430,[-2.05351170e+03  3.48387910e+02 -2.69691630e-03 -1.31641694e+07],705,715.0306818611361
431,431,[-2.06126558e+03  3.48387317e+02 -2.66183770e-03 -1.31641694e+07],588,714.2567999869268
432,432,[-2.05835075e+03  3.48387367e+02 -2.61292986e-03 -1.31641694e+07],129,715.4510766087237
433,433,[-2.00518199e+03  3.49389134e+02 -3.05154611e-03 -1.31641694e+07],361,714.1029859429433
434,434,[-2.03308906e+03  3.47386993e+02 -2.56775736e-03 -1.31641694e+07],228,713.7877781692175
435,435,[-2.06478661e+03  3.48388188e+02 -2.69117795e-03 -1.31641694e+07],467,714.1876323572541
436,436,[-2.03539913e+03  3.48387306e+02 -2.55421923e-03 -1.31641694e+07],38,714.3425145916985
437,437,[-2.00519689e+03  3.49388403e+02 -3.05117312e-03 -1.31641694e+07],699,714.8249999201505
438,438,[-2.10889590e+03  3.47386548e+02 -2.43638582e-03 -1.31641694e+07],344,713.256454338784
439,439,[-2.00516622e+03  3.49389122e+02 -3.05150756e-03 -1.31641694e+07],466,713.8588891943981
440,440,[-2.13551403e+03  3.47386102e+02 -2.51679986e-03 -1.31641694e+07],479,714.3654642071801
441,441,[-2.04163340e+03  3.47387561e+02 -2.55870282e-03 -1.31641694e+07],624,711.352313009705
442,442,[-2.04529549e+03  3.48388129e+02 -2.62601646e-03 -1.31641694e+07],709,710.9570531359549
443,443,[-2.00517789e+03  3.49389061e+02 -3.05155096e-03 -1.31641694e+07],451,714.3418154592215
444,444,[-2.00516601e+03  3.49389014e+02 -3.05148548e-03 -1.31641694e+07],137,714.8970921570245
445,445,[-2.06070468e+03  3.48387134e+02 -2.66335077e-03 -1.31641694e+07],584,713.7064374525128
446,446,[-2.05518875e+03  3.48387769e+02 -2.61969474e-03 -1.31641694e+07],210,713.4215101274954
447,447,[-2.11945768e+03  3.47386114e+02 -2.44567863e-03 -1.31641694e+07],206,713.4164302446167
448,448,[-2.03738993e+03  3.48388776e+02 -2.60404122e-03 -1.31641694e+07],700,714.4146824489357
449,449,[-2.03688924e+03  3.48387311e+02 -2.62253198e-03 -1.31641694e+07],431,715.1177307780839
450,450,[-2.06222815e+03  3.48387216e+02 -2.65018472e-03 -1.31641694e+07],574,714.8684712063006
451,451,[-2.04550152e+03  3.48387606e+02 -2.61718916e-03 -1.31641694e+07],178,714.2799140508732
452,452,[-2.00520432e+03  3.49388484e+02 -3.05132729e-03 -1.31641694e+07],364,714.5246942546814
453,453,[-2.04368013e+03  3.48387347e+02 -2.61991997e-03 -1.31641694e+07],213,714.6379511391207
454,454,[-2.05371372e+03  3.47386068e+02 -2.59571790e-03 -1.31641694e+07],715,713.74304983856
455,455,[-2.00519897e+03  3.49388354e+02 -3.05128056e-03 -1.31641694e+07],605,713.8634765909766
456,456,[-2.05685590e+03  3.48387292e+02 -2.64224473e-03 -1.31641694e+07],49,714.5555088881634
457,457,[-2.05655565e+03  3.48388467e+02 -2.64412878e-03 -1.31641694e+07],160,714.1743390324008
458,458,[-2.00519404e+03  3.49388493e+02 -3.05136973e-03 -1.31641694e+07],161,714.4259474078763
459,459,[-2.03211586e+03  3.47386330e+02 -2.54939630e-03 -1.31641694e+07],169,714.0959928193481
460,460,[-2.06708715e+03  3.47386283e+02 -2.49937877e-03 -1.31641694e+07],120,713.5591238437448
461,461,[-4.24364655e+03  3.28364899e+02 -1.36556238e-02 -1.31641694e+07],627,713.2165054373943
462,462,[ 3.81679703e+03  2.95328223e+02 -5.64332317e-03 -1.31641694e+07],99,713.1663971315495
463,463,[-2.08320051e+03  3.47386543e+02 -2.47669201e-03 -1.31641694e+07],646,714.737391895589
464,464,[-2.12479925e+03  3.47386528e+02 -2.42206670e-03 -1.31641694e+07],28,713.8891542580741
465,465,[-2.10640925e+03  3.47386211e+02 -2.49784924e-03 -1.31641694e+07],679,715.0414737916425
466,466,[-2.13260304e+03  3.46385615e+02 -2.75479555e-03 -1.31641694e+07],511,714.2984287987133
467,467,[-2.13813704e+03  3.47386631e+02 -2.57048588e-03 -1.31641694e+07],389,714.3088326731493
468,468,[-2.05434387e+03  3.48388950e+02 -2.60203772e-03 -1.31641694e+07],77,714.4411788222735
469,469,[-2.10926293e+03  3.47385994e+02 -2.46919257e-03 -1.31641694e+07],297,714.5352568482672
470,470,[-2.06531583e+03  3.47386388e+02 -2.54010279e-03 -1.31641694e+07],80,713.689355222913
471,471,[-2.14532114e+03  3.46385488e+02 -2.52053589e-03 -1.31641694e+07],435,714.7988140643184
472,472,[-2.04498641e+03  3.46385825e+02 -2.68386888e-03 -1.31641694e+07],184,712.9197333705108
473,473,[-2.11390435e+03  3.47386100e+02 -2.44308272e-03 -1.31641694e+07],522,713.8720121946266
474,474,[-2.06610478e+03  3.48388194e+02 -2.72561913e-03 -1.31641694e+07],338,714.8059234752797
475,475,[-2.10705062e+03  3.47386896e+02 -2.55055900e-03 -1.31641694e+07],124,715.178883587239
476,476,[-2.02109287e+03  3.47387550e+02 -2.59064759e-03 -1.31641694e+07],133,714.7891216378458
477,477,[-2.04614245e+03  3.48387280e+02 -2.67181679e-03 -1.31641694e+07],526,715.2866495268844
478,478,[-2.05615018e+03  3.47386086e+02 -2.61996042e-03 -1.31641694e+07],457,713.2866207923933
479,479,[-2.11150413e+03  3.47386415e+02 -2.51498589e-03 -1.31641694e+07],304,714.2977428892458
480,480,[-2.09676819e+03  3.47386840e+02 -2.54670614e-03 -1.31641694e+07],497,714.4456999802454
481,481,[-2.12946075e+03  3.47386004e+02 -2.51784818e-03 -1.31641694e+07],193,714.6492974254639
482,482,[-2.04021821e+03  3.47387020e+02 -2.60769726e-03 -1.31641694e+07],91,714.1585629011834
483,483,[-5.02592734e+03  3.27363822e+02 -2.04577892e-02 -1.31641694e+07],81,714.4392941687208
484,484,[-2.01586449e+03  3.48389125e+02 -2.70607283e-03 -1.31641694e+07],218,713.8831718659717
485,485,[-2.12754783e+03  3.46385091e+02 -2.77801863e-03 -1.31641694e+07],482,714.9886055407451
486,486,[-2.11953571e+03  3.46385363e+02 -2.76897898e-03 -1.31641694e+07],52,715.0403432634564
487,487,[-2.06607142e+03  3.48387721e+02 -2.71331844e-03 -1.31641694e+07],367,714.5669334200625
488,488,[-2.12414792e+03  3.46385233e+02 -2.71723487e-03 -1.31641694e+07],277,714.3366221799406
489,489,[-2.05313754e+03  3.48387202e+02 -2.62251567e-03 -1.31641694e+07],260,715.0906318675598
490,490,[-4.58806382e+03  3.28365089e+02 -1.43522546e-02 -1.31641694e+07],628,714.5180229732088
491,491,[-2.05530129e+03  3.48387233e+02 -2.67184272e-03 -1.31641694e+07],559,714.6325633253379
492,492,[-2.08305802e+03  3.47386219e+02 -2.58346924e-03 -1.31641694e+07],356,713.204534039102
493,493,[-2.01044765e+03  3.48387204e+02 -2.57142070e-03 -1.31641694e+07],141,713.226942265955
494,494,[-2.11282872e+03  3.47386640e+02 -2.49873155e-03 -1.31641694e+07],71,714.3669634909943
495,495,[-2.06210111e+03  3.48387764e+02 -2.62649152e-03 -1.31641694e+07],284,714.6304733965553
496,496,[-2.14256927e+03  3.47386329e+02 -2.56435861e-03 -1.31641694e+07],207,714.7470211893796
497,497,[-2.03982833e+03  3.48387494e+02 -2.59107113e-03 -1.31641694e+07],289,714.1699189298268
498,498,[-2.08440095e+03  3.48387747e+02 -2.66209389e-03 -1.31641694e+07],98,713.0669713446237
499,499,[-2.08583499e+03  3.46386982e+02 -2.68495800e-03 -1.31641694e+07],629,714.5711659421169
500,500,[-2.07292731e+03  3.47386037e+02 -2.62229180e-03 -1.31641694e+07],142,714.8806624681033
501,501,[-2.06601859e+03  3.48387293e+02 -2.70239082e-03 -1.31641694e+07],597,714.8829274599707
502,502,[-2.12855376e+03  3.47386222e+02 -2.50346401e-03 -1.31641694e+07],115,714.5972315900453
503,503,[-2.13189851e+03  3.47386098e+02 -2.50156689e-03 -1.31641694e+07],433,714.6009887446315
504,504,[-2.06346402e+03  3.48387219e+02 -2.66512832e-03 -1.31641694e+07],603,714.90851515314
505,505,[-2.07905283e+03  3.47387105e+02 -2.62358198e-03 -1.31641694e+07],459,714.6523303584245
506,506,[-3.64584684e+03  3.31368252e+02 -8.58215829e-03 -1.31641694e+07],510,714.066413610111
507,507,[-1.99048728e+03  3.47386167e+02 -2.58985896e-03 -1.31641694e+07],665,713.9175281919623
508,508,[-2.04291640e+03  3.48387574e+02 -2.56775806e-03 -1.31641694e+07],48,714.865870553187
509,509,[-2.08854069e+03  3.47386288e+02 -2.56394343e-03 -1.31641694e+07],533,714.848021035313
510,510,[-2.11701903e+03  3.47386625e+02 -2.40970809e-03 -1.31641694e+07],592,714.0944932074132
511,511,[-2.03160103e+03  3.48388000e+02 -2.57509641e-03 -1.31641694e+07],340,714.2087256339873
512,512,[-2.05167201e+03  3.48388298e+02 -2.63883365e-03 -1.31641694e+07],51,713.7946562934295
513,513,[-2.06786896e+03  3.48388153e+02 -2.77003687e-03 -1.31641694e+07],138,711.6746491337334
514,514,[-2.09079574e+03  3.47386737e+02 -2.38067703e-03 -1.31641694e+07],359,714.5088791008783
515,515,[-2.07974460e+03  3.46385757e+02 -2.60175658e-03 -1.31641694e+07],410,714.7252319701012
516,516,[-2.13518809e+03  3.47386597e+02 -2.50919877e-03 -1.31641694e+07],506,714.9285237372783
517,517,[-2.12002809e+03  3.47386548e+02 -2.44045447e-03 -1.31641694e+07],348,713.6812153127671
518,518,[-1.98379588e+03  3.46386170e+02 -2.53536678e-03 -1.31641694e+07],551,711.3892688480904
519,519,[-2.12982587e+03  3.47386033e+02 -2.62370769e-03 -1.31641694e+07],158,713.8666010094082
520,520,[-2.03031713e+03  3.47386544e+02 -2.52401341e-03 -1.31641694e+07],96,714.3440858865229
521,521,[-2.09963526e+03  3.47386573e+02 -2.39725980e-03 -1.31641694e+07],47,714.428611211806
522,522,[ 1.40716985e+04  3.03337061e+02 -1.92759828e-03 -1.31641694e+07],90,714.1869286929156
523,523,[-2.15823509e+03  3.46385901e+02 -2.73917824e-03 -1.31641694e+07],244,715.1047940067301
524,524,[-2.05819331e+03  3.48388143e+02 -2.59675124e-03 -1.31641694e+07],114,714.5191758162925
525,525,[-2.04500145e+03  3.48387220e+02 -2.63165773e-03 -1.31641694e+07],425,715.5043936847347
526,526,[-2.08976478e+03  3.47386540e+02 -2.49085716e-03 -1.31641694e+07],645,714.1760914135273
527,527,[-2.10293577e+03  3.47386078e+02 -2.54950010e-03 -1.31641694e+07],101,715.1651670821018
528,528,[-2.05902817e+03  3.48387240e+02 -2.68522303e-03 -1.31641694e+07],55,714.5102439110036
529,529,[-2.15047778e+03  3.46385426e+02 -2.77019539e-03 -1.31641694e+07],429,714.7092220847785
530,530,[-2.07789249e+03  3.47386465e+02 -2.49128149e-03 -1.31641694e+07],313,714.654042874055
531,531,[-2.09605761e+03  3.47386464e+02 -2.41708322e-03 -1.31641694e+07],713,714.7785895315603
532,532,[-2.10209731e+03  3.46385370e+02 -2.75291853e-03 -1.31641694e+07],121,714.9620755237693
533,533,[-2.09247139e+03  3.47386130e+02 -2.54044172e-03 -1.31641694e+07],408,714.0809397417021
534,534,[-2.11575545e+03  3.47386734e+02 -2.57845023e-03 -1.31641694e+07],107,715.304101060705
535,535,[-2.13091817e+03  3.47386103e+02 -2.54193016e-03 -1.31641694e+07],697,715.1726719438944
536,536,[-4.29957254e+03  3.28365037e+02 -1.38282868e-02 -1.31641694e+07],655,714.3761100676367
537,537,[-2.06229338e+03  3.48387508e+02 -2.70400988e-03 -1.31641694e+07],714,713.6333376827007
538,538,[-1.96698025e+03  3.46386518e+02 -2.55118388e-03 -1.31641694e+07],507,714.9826181857857
539,539,[-2.01665843e+03  3.48388300e+02 -2.59632133e-03 -1.31641694e+07],248,714.372583303169
540,540,[-2.09449724e+03  3.47386709e+02 -2.48612072e-03 -1.31641694e+07],620,713.5340231242159
541,541,[-2.07614618e+03  3.47386310e+02 -2.52617226e-03 -1.31641694e+07],18,713.8033827600573
542,542,[-2.09598872e+03  3.47386802e+02 -2.50150790e-03 -1.31641694e+07],268,715.371677279805
543,543,[-2.03811255e+03  3.47387314e+02 -2.56195300e-03 -1.31641694e+07],464,714.3947240394081
544,544,[-2.07929559e+03  3.47386117e+02 -2.50156763e-03 -1.31641694e+07],680,714.5122619467504
545,545,[-2.10098348e+03  3.47386038e+02 -2.38404054e-03 -1.31641694e+07],484,714.4676565111566
546,546,[-2.12351050e+03  3.47386368e+02 -2.33288807e-03 -1.31641694e+07],473,712.926263103842
547,547,[-2.04304306e+03  3.47386769e+02 -2.54387203e-03 -1.31641694e+07],698,714.8230979767011
548,548,[-2.10826342e+03  3.47386391e+02 -2.51583086e-03 -1.31641694e+07],519,715.2321603593341
549,549,[-2.10448399e+03  3.47386835e+02 -2.30823599e-03 -1.31641694e+07],455,714.6526120101976
550,550,[-2.08984661e+03  3.47386038e+02 -2.53641142e-03 -1.31641694e+07],439,714.7541890161549
551,551,[-2.06528205e+03  3.48387400e+02 -2.72363665e-03 -1.31641694e+07],189,714.0546725771909
552,552,[-2.07035927e+03  3.48387545e+02 -2.71073850e-03 -1.31641694e+07],79,714.6085534637402
553,553,[-2.10164875e+03  3.47386087e+02 -2.42856482e-03 -1.31641694e+07],270,715.1122409095442
554,554,[-2.15143311e+03  3.46385250e+02 -2.50570962e-03 -1.31641694e+07],113,715.0668632966369
555,555,[-2.13571362e+03  3.46385447e+02 -2.74124159e-03 -1.31641694e+07],194,714.7085945447958
556,556,[-4.39473982e+03  3.28364875e+02 -1.31784770e-02 -1.31641694e+07],302,713.6685128660216
557,557,[-2.11068034e+03  3.47386238e+02 -2.58970193e-03 -1.31641694e+07],181,714.72681228845
558,558,[-2.05612371e+03  3.48387462e+02 -2.68246362e-03 -1.31641694e+07],205,714.8219060351228
559,559,[-2.02732820e+03  3.47386610e+02 -2.62664966e-03 -1.31641694e+07],420,714.1472207344445
560,560,[-2.04810459e+03  3.48387889e+02 -2.68930250e-03 -1.31641694e+07],541,715.0755501198485
561,561,[-2.08247356e+03  3.47386189e+02 -2.51142974e-03 -1.31641694e+07],615,714.7771056172252
562,562,[-2.07141755e+03  3.48387165e+02 -2.70676765e-03 -1.31641694e+07],93,715.3452382158425
563,563,[-2.06550464e+03  3.47386025e+02 -2.66637981e-03 -1.31641694e+07],512,714.8298813499422
564,564,[-2.09458368e+03  3.47386277e+02 -2.57906723e-03 -1.31641694e+07],415,714.9876433937261
565,565,[-2.05452902e+03  3.48387136e+02 -2.73250551e-03 -1.31641694e+07],434,712.5894760954857
566,566,[-2.08172767e+03  3.47387017e+02 -2.64721168e-03 -1.31641694e+07],274,711.0936786264094
567,567,[-2.15240299e+03  3.46385835e+02 -2.50017471e-03 -1.31641694e+07],128,709.478861695123
568,568,[-2.04557142e+03  3.48387594e+02 -2.62205677e-03 -1.31641694e+07],185,711.0778026778297
569,569,[-2.03039292e+03  3.48387268e+02 -2.57890533e-03 -1.31641694e+07],31,707.8139276599261
570,570,[-2.08734800e+03  3.47386044e+02 -2.56137908e-03 -1.31641694e+07],454,709.8695641007797
571,571,[-2.14156854e+03  3.46385547e+02 -2.77711734e-03 -1.31641694e+07],394,711.1968669302919
572,572,[-1.99685666e+03  3.48387556e+02 -2.46641164e-03 -1.31641694e+07],76,712.8456348903387
573,573,[-2.05126574e+03  3.47386396e+02 -2.65039412e-03 -1.31641694e+07],153,711.4940076807027
574,574,[-2.15566754e+03  3.45384877e+02 -2.80107146e-03 -1.31641694e+07],354,714.2529860436314
575,575,[-2.11273205e+03  3.47386296e+02 -2.51235759e-03 -1.31641694e+07],146,711.5746948018082
576,576,[-2.01351340e+03  3.48387793e+02 -2.65888356e-03 -1.31641694e+07],182,712.9116994485563
577,577,[ 4.01798882e+03  2.97330466e+02 -3.75217951e-03 -1.31641694e+07],445,709.3812557249606
578,578,[-2.03881303e+03  3.48387383e+02 -2.71540876e-03 -1.31641694e+07],56,713.4366460526277
579,579,[-2.07833145e+03  3.47386445e+02 -2.61122329e-03 -1.31641694e+07],470,713.2491270231731
580,580,[-2.04595745e+03  3.47385992e+02 -2.53776123e-03 -1.31641694e+07],125,709.3835004373303
581,581,[-2.01548437e+03  3.48387331e+02 -2.73584976e-03 -1.31641694e+07],517,710.2381890053629
582,582,[-2.11202110e+03  3.47386050e+02 -2.63263930e-03 -1.31641694e+07],556,712.7954635004601
583,583,[-1.96360404e+03  3.46385513e+02 -2.76099860e-03 -1.31641694e+07],175,712.367817320244
584,584,[-2.06113568e+03  3.47386866e+02 -2.60281280e-03 -1.31641694e+07],122,714.278585740839
585,585,[-2.10967773e+03  3.47386286e+02 -2.54436679e-03 -1.31641694e+07],428,714.7889137429042
586,586,[-2.07771901e+03  3.47386454e+02 -2.47406370e-03 -1.31641694e+07],20,714.3297929324219
587,587,[-2.05481093e+03  3.47386017e+02 -2.55160862e-03 -1.31641694e+07],704,715.324843748798
588,588,[-2.11342813e+03  3.47386788e+02 -2.54576027e-03 -1.31641694e+07],199,714.3198540600647
589,589,[-2.09808592e+03  3.47386651e+02 -2.60023706e-03 -1.31641694e+07],403,714.4105445258244
590,590,[-2.08427295e+03  3.47386890e+02 -2.48130981e-03 -1.31641694e+07],537,714.444671487807
591,591,[-2.01082402e+03  3.48387860e+02 -2.61998565e-03 -1.31641694e+07],166,713.2470533222765
592,592,[-2.10042038e+03  3.47386048e+02 -2.49395928e-03 -1.31641694e+07],223,714.0763541881589
593,593,[-2.18092854e+03  3.46385690e+02 -2.55224369e-03 -1.31641694e+07],423,714.4617482885525
594,594,[-2.12063019e+03  3.47386316e+02 -2.53971825e-03 -1.31641694e+07],317,714.8973046584617
595,595,[-5.07139136e+03  3.28364878e+02 -1.36879107e-02 -1.31641694e+07],336,714.7597731665667
596,596,[-2.06104659e+03  3.48387710e+02 -2.71142384e-03 -1.31641694e+07],396,714.6641284298898
597,597,[-2.20370489e+03  3.46385201e+02 -2.52165035e-03 -1.31641694e+07],117,714.1088608775282
598,598,[-2.05797818e+03  3.48387276e+02 -2.62851099e-03 -1.31641694e+07],127,714.6509079966701
599,599,[-2.18679090e+03  3.46385078e+02 -2.52522985e-03 -1.31641694e+07],33,714.6055307992672
600,600,[-2.17965327e+03  3.46385207e+02 -2.54030801e-03 -1.31641694e+07],421,714.5259080024304
601,601,[-2.06281777e+03  3.48387108e+02 -2.67884137e-03 -1.31641694e+07],684,714.8970696392948
602,602,[-2.22234628e+03  3.44383227e+02 -2.91490724e-03 -1.31641694e+07],170,714.6863030488078
603,603,[-2.08198191e+03  3.47386667e+02 -2.48439868e-03 -1.31641694e+07],460,714.0965647115512
604,604,[-2.13161292e+03  3.46385629e+02 -2.56648572e-03 -1.31641694e+07],261,714.4991909600401
605,605,[-2.11728758e+03  3.47385999e+02 -2.54142936e-03 -1.31641694e+07],686,714.2349281104277
606,606,[-2.08122197e+03  3.47386019e+02 -2.53533949e-03 -1.31641694e+07],540,714.8119139508844
607,607,[-2.06203101e+03  3.48387552e+02 -2.63508624e-03 -1.31641694e+07],29,714.3687091117483
608,608,[-2.08741214e+03  3.47386451e+02 -2.53715690e-03 -1.31641694e+07],157,714.4130245107199
609,609,[-2.16042554e+03  3.47386400e+02 -2.63317610e-03 -1.31641694e+07],34,714.4748861176902
610,610,[-2.20200830e+03  3.46385028e+02 -2.75524090e-03 -1.31641694e+07],30,714.7309626784684
611,611,[-2.12247063e+03  3.47386033e+02 -2.48086815e-03 -1.31641694e+07],69,714.3377091977309
612,612,[-2.05440510e+03  3.46386598e+02 -2.72249122e-03 -1.31641694e+07],345,715.1508047876814
613,613,[-2.09845354e+03  3.47386559e+02 -2.45446866e-03 -1.31641694e+07],578,714.6615203508857
614,614,[-2.05373484e+03  3.48387574e+02 -2.69409797e-03 -1.31641694e+07],446,714.7217530777739
615,615,[-2.13236143e+03  3.47386593e+02 -2.44717490e-03 -1.31641694e+07],40,713.8032602938436
616,616,[-2.21444641e+03  3.46384928e+02 -2.63729418e-03 -1.31641694e+07],447,714.8472429709158
617,617,[-2.08866218e+03  3.47387418e+02 -2.57679430e-03 -1.31641694e+07],651,714.8560305947652
618,618,[-2.02254960e+03  3.48387566e+02 -2.70869675e-03 -1.31641694e+07],39,714.3477815993282
619,619,[-2.06878449e+03  3.47386725e+02 -2.56762389e-03 -1.31641694e+07],112,714.4010878391343
620,620,[-2.07553832e+03  3.47387222e+02 -2.53787629e-03 -1.31641694e+07],647,713.9090536582546
621,621,[-2.08239350e+03  3.47386051e+02 -2.38063898e-03 -1.31641694e+07],352,714.8583819858989
622,622,[-2.15657745e+03  3.46385190e+02 -2.45396974e-03 -1.31641694e+07],282,714.7242336761407
623,623,[-4.45656790e+03  3.28365043e+02 -1.42845669e-02 -1.31641694e+07],174,714.3896423741206
624,624,[-2.05893713e+03  3.48387930e+02 -2.66149147e-03 -1.31641694e+07],478,714.2839525734752
625,625,[-2.11736593e+03  3.47386160e+02 -2.38478734e-03 -1.31641694e+07],674,714.6679636481302
626,626,[-2.06097157e+03  3.48387127e+02 -2.63483473e-03 -1.31641694e+07],17,714.7318055824315
627,627,[-2.12492381e+03  3.47386629e+02 -2.57659702e-03 -1.31641694e+07],110,714.2230760736157
628,628,[-2.08484010e+03  3.47386175e+02 -2.48238019e-03 -1.31641694e+07],438,714.1489172585317
629,629,[-2.07976995e+03  3.47386709e+02 -2.57027590e-03 -1.31641694e+07],579,714.1246231298261
630,630,[-2.11183703e+03  3.47387277e+02 -2.51749651e-03 -1.31641694e+07],591,714.695825052759
631,631,[-2.05487505e+03  3.48387560e+02 -2.73564305e-03 -1.31641694e+07],493,714.6223833878578
632,632,[-2.15018594e+03  3.46385129e+02 -2.62142767e-03 -1.31641694e+07],461,715.314158882513
633,633,[-2.06137914e+03  3.48387506e+02 -2.67899650e-03 -1.31641694e+07],172,714.7990360083888
634,634,[-2.01283908e+03  3.48387835e+02 -2.56928820e-03 -1.31641694e+07],492,715.0373957844403
635,635,[-2.17918852e+03  3.46385925e+02 -2.82164199e-03 -1.31641694e+07],23,714.9457527934459
636,636,[-2.08585121e+03  3.47386197e+02 -2.63754395e-03 -1.31641694e+07],462,714.6343986281437
637,637,[-2.10820616e+03  3.47386003e+02 -2.37731124e-03 -1.31641694e+07],233,714.6703666951261
638,638,[-2.03185071e+03  3.48387850e+02 -2.69184167e-03 -1.31641694e+07],263,714.8061698195568
639,639,[-2.05611799e+03  3.48388394e+02 -2.71506852e-03 -1.31641694e+07],6,715.1165468663712
640,640,[-2.11580511e+03  3.47386563e+02 -2.37515136e-03 -1.31641694e+07],136,714.9582749782292
641,641,[-2.05084152e+03  3.47386088e+02 -2.52564398e-03 -1.31641694e+07],5,714.5091376205794
642,642,[-2.15375193e+03  3.46385137e+02 -2.62985736e-03 -1.31641694e+07],256,715.189037326062
643,643,[-2.11330067e+03  3.46385577e+02 -2.65420057e-03 -1.31641694e+07],498,715.0683874306139
644,644,[-2.06385989e+03  3.47387003e+02 -2.49052059e-03 -1.31641694e+07],257,715.3026480527251
645,645,[-2.12740952e+03  3.46384985e+02 -2.68740401e-03 -1.31641694e+07],108,714.0053672364716
646,646,[-2.05025795e+03  3.47386731e+02 -2.57773027e-03 -1.31641694e+07],337,714.2194369145625
647,647,[-2.12455952e+03  3.47386134e+02 -2.51605062e-03 -1.31641694e+07],546,713.3469347435142
648,648,[-2.09514984e+03  3.47387291e+02 -2.58294297e-03 -1.31641694e+07],472,714.638536712425
649,649,[-2.10783999e+03  3.47386776e+02 -2.47510888e-03 -1.31641694e+07],576,715.2149722807609
650,650,[-2.05019274e+03  3.48387136e+02 -2.71300298e-03 -1.31641694e+07],21,715.2942228864132
651,651,[ 3.14540657e+03  2.95328475e+02 -3.25257688e-03 -1.31641694e+07],572,713.4081340429472
652,652,[-2.09877021e+03  3.47387233e+02 -2.53459834e-03 -1.31641694e+07],358,715.4209694106453
653,653,[-2.11608011e+03  3.47386545e+02 -2.47128318e-03 -1.31641694e+07],19,715.3512401676728
654,654,[-2.11313917e+03  3.47386231e+02 -2.44420755e-03 -1.31641694e+07],24,712.7637018467179
655,655,[-2.08565221e+03  3.47387382e+02 -2.58837145e-03 -1.31641694e+07],582,713.9270654401305
656,656,[-2.04154892e+03  3.46385723e+02 -2.69115235e-03 -1.31641694e+07],654,714.9926093696536
657,657,[-2.04052508e+03  3.48387238e+02 -2.71458152e-03 -1.31641694e+07],267,714.7804079160453
658,658,[-2.15383674e+03  3.46385904e+02 -2.69799657e-03 -1.31641694e+07],269,715.2783384477198
659,659,[-2.06674738e+03  3.47386431e+02 -2.46574919e-03 -1.31641694e+07],407,714.7339234558627
660,660,[-2.09641593e+03  3.47386445e+02 -2.64847001e-03 -1.31641694e+07],255,715.0158305069174
661,661,[-2.14148087e+03  3.46385028e+02 -2.76667372e-03 -1.31641694e+07],123,714.67010909552
662,662,[-2.11569279e+03  3.47386145e+02 -2.54434155e-03 -1.31641694e+07],426,715.3593312445986
663,663,[-2.03237379e+03  3.48388478e+02 -2.70627663e-03 -1.31641694e+07],225,714.5218880309361
664,664,[-2.10068710e+03  3.47386094e+02 -2.45046186e-03 -1.31641694e+07],565,714.6355144368667
665,665,[-2.08013966e+03  3.47386433e+02 -2.46101627e-03 -1.31641694e+07],116,714.0850252914958
666,666,[-2.03597978e+03  3.48387150e+02 -2.57160952e-03 -1.31641694e+07],339,714.4395226181927
667,667,[-2.13209426e+03  3.46385883e+02 -2.76373934e-03 -1.31641694e+07],25,714.8003116583978
668,668,[-2.06238862e+03  3.48388552e+02 -2.70989427e-03 -1.31641694e+07],583,714.5273549243693
669,669,[-2.02416842e+03  3.48387478e+02 -2.67085527e-03 -1.31641694e+07],321,715.0267902127996
670,670,[-2.12364864e+03  3.47386770e+02 -2.42662827e-03 -1.31641694e+07],251,715.0548891413727
671,671,[-2.04739650e+03  3.48387284e+02 -2.63012151e-03 -1.31641694e+07],350,714.9487804161614
672,672,[-2.09743714e+03  3.47386413e+02 -2.54631904e-03 -1.31641694e+07],103,714.91586322906
673,673,[-2.10587361e+03  3.47386329e+02 -2.55063752e-03 -1.31641694e+07],351,714.8734438287137
674,674,[-2.11616782e+03  3.47386040e+02 -2.39600108e-03 -1.31641694e+07],696,713.2642028472023
675,675,[-2.16040384e+03  3.46384876e+02 -2.63317598e-03 -1.31641694e+07],349,715.0690023658289
676,676,[-2.07764285e+03  3.47386108e+02 -2.46990020e-03 -1.31641694e+07],26,714.5560945542437
677,677,[-2.05529633e+03  3.46385927e+02 -2.70104386e-03 -1.31641694e+07],104,715.286082373457
678,678,[-2.04278262e+03  3.48388234e+02 -2.59046200e-03 -1.31641694e+07],513,714.6963416945008
679,679,[-2.10127537e+03  3.47386581e+02 -2.44468738e-03 -1.31641694e+07],249,714.2089432588159
680,680,[-2.11521814e+03  3.47386655e+02 -2.60290963e-03 -1.31641694e+07],575,713.8848436995036
681,681,[-2.00896539e+03  3.48387297e+02 -2.57989857e-03 -1.31641694e+07],573,710.5193593884334
682,682,[-2.06502788e+03  3.48387447e+02 -2.70112846e-03 -1.31641694e+07],518,711.0728612191496
683,683,[-2.19419416e+03  3.46385810e+02 -2.63612853e-03 -1.31641694e+07],441,709.0153641410899
684,684,[-2.08588791e+03  3.47386308e+02 -2.58719710e-03 -1.31641694e+07],7,713.5848498760656
685,685,[-2.09824394e+03  3.46385534e+02 -2.67882603e-03 -1.31641694e+07],571,714.5449108249503
686,686,[-2.06365724e+03  3.47386825e+02 -2.51310606e-03 -1.31641694e+07],265,713.541426209235
687,687,[-2.05790528e+03  3.47386229e+02 -2.54668502e-03 -1.31641694e+07],566,714.532631545639
688,688,[-2.07880187e+03  3.47386066e+02 -2.46334253e-03 -1.31641694e+07],568,715.0886610593087
689,689,[-2.05466246e+03  3.48387223e+02 -2.62876872e-03 -1.31641694e+07],682,715.0844052503186
690,690,[-2.11489546e+03  3.47386067e+02 -2.51583882e-03 -1.31641694e+07],254,714.7059492461032
691,691,[-2.08364096e+03  3.47387093e+02 -2.59931996e-03 -1.31641694e+07],442,714.9317866431135
692,692,[-4.60053106e+03  3.28364938e+02 -1.43223827e-02 -1.31641694e+07],266,715.42500896894
693,693,[-2.00005780e+03  3.48387758e+02 -2.64442287e-03 -1.31641694e+07],681,714.4026499737552
694,694,[-2.05314727e+03  3.48387659e+02 -2.60560403e-03 -1.31641694e+07],253,715.0920124746596
695,695,[-2.13691408e+03  3.46385833e+02 -2.55591536e-03 -1.31641694e+07],11,714.7726427164654
696,696,[-2.37473418e+03  3.45384465e+02 -2.82885043e-03 -1.31641694e+07],581,712.1934124205827
697,697,[-2.12145320e+03  3.47386490e+02 -2.43007952e-03 -1.31641694e+07],712,713.9319311937703
698,698,[-2.12728784e+03  3.47386144e+02 -2.51808805e-03 -1.31641694e+07],570,713.8709386592229
699,699,[-1.97805133e+03  3.47386187e+02 -2.63155440e-03 -1.31641694e+07],567,714.3031335968824
700,700,[ 2.77551381e+03  3.01334889e+02 -1.41796380e-03 -1.31641694e+07],580,714.2609059653865
701,701,[-2.10366679e+03  3.47386061e+02 -2.42732081e-03 -1.31641694e+07],577,714.4658500325695
702,702,[-2.08833438e+03  3.47386606e+02 -2.54111503e-03 -1.31641694e+07],22,715.1306166922052
703,703,[-2.05054260e+03  3.48387309e+02 -2.61544344e-03 -1.31641694e+07],683,715.0067921733437
704,704,[-2.05018912e+03  3.48387636e+02 -2.77838361e-03 -1.31641694e+07],0,713.6594448921296
705,705,[-2.15873134e+03  3.46385108e+02 -2.57095181e-03 -1.31641694e+07],16,714.3229295309092
706,706,[-2.10371668e+03  3.47386003e+02 -2.52850039e-03 -1.31641694e+07],13,715.4599417514278
707,707,[-2.12490637e+03  3.47386465e+02 -2.49606126e-03 -1.31641694e+07],569,714.5577560584809
708,708,[-2.09802353e+03  3.47386565e+02 -2.53826499e-03 -1.31641694e+07],8,714.4219644481584
709,709,[-2.10159548e+03  3.47386289e+02 -2.49432113e-03 -1.31641694e+07],1,714.2808368815738
710,710,[-2.03899975e+03  3.47386020e+02 -2.49492904e-03 -1.31641694e+07],10,714.7094709852563
711,711,[-2.04641361e+03  3.48387504e+02 -2.72236852e-03 -1.31641694e+07],15,714.3556460061839
712,712,[-2.03663554e+03  3.48387237e+02 -2.64693525e-03 -1.31641694e+07],4,710.0463324519174
713,713,[-2.05928278e+03  3.48387111e+02 -2.72385296e-03 -1.31641694e+07],9,713.9804166162481
714,714,[-2.05601234e+03  3.48387732e+02 -2.61739734e-03 -1.31641694e+07],2,713.9266553707663
715,715,[-2.06179270e+03  3.48387158e+02 -2.71704017e-03 -1.31641694e+07],12,714.2361930875103
716,716,[-2.07752901e+03  3.47386827e+02 -2.50670405e-03 -1.31641694e+07],3,714.5821425777489
717,717,[-2.13258578e+03  3.47385999e+02 -2.51681683e-03 -1.31641694e+07],718,714.7707913989888
718,718,[-2.05312635e+03  3.48387978e+02 -2.68917090e-03 -1.31641694e+07],14,704.399737914308
