,0
0,1994.257542027925
1,1975.4426479550505
2,1994.0125854316202
3,1984.1653689122518
4,1989.432365715571
5,1989.4910124925855
6,1991.4872572761487
7,1954.4266521886177
8,1964.7174710084753
9,1980.0428685629474
10,1985.5685452023858
11,1979.5247273518619
12,1992.635385586136
13,1994.3168882565278
14,1990.546212175469
15,1992.9244206471028
16,1989.1131779621596
17,1973.500758045655
18,1983.1559939909912
19,1989.3938095664544
20,1981.0272754697214
21,1976.6611245558386
22,1968.9659883366403
23,1990.4391677903016
24,1976.4544030081113
25,1964.917529002804
26,1969.7399231167474
27,1981.6634333629531
28,1991.9062059040461
29,1975.354477836927
30,1986.716500911005
31,1969.224545081034
32,1969.2129363976915
33,1983.5365498810884
34,1991.1744396271754
35,1995.1304263027887
36,1978.5081029149812
37,1964.685168795756
38,1969.2739583411346
39,1974.10154372443
40,1965.0628537005653
41,1897.0779333234702
42,1977.6172463495259
43,1957.1938908345664
44,1991.0991733167282
45,1980.9507127173483
46,1983.1225670255587
47,1817.106091827568
48,1935.9313102930082
49,1846.856453260804
50,1932.5698153697326
51,1824.5137104128705
52,1891.8852429216595
53,1963.3659107070457
54,1953.215740244246
55,1975.5454083091076
56,1963.9875102559783
57,1966.2500951174889
58,1976.4146075460126
59,1978.6587400398098
60,1969.343100119719
61,1982.4207617518973
62,1973.9190300744108
63,1970.5832458928087
64,1974.2767275930119
65,1969.2743312387925
66,1940.5246303568686
67,1952.3261109069272
68,1985.2026883455524
69,1954.5729774553338
70,1975.9557442404505
71,1939.0909917766603
72,1971.8584774872813
73,1990.3031368450702
74,1957.926490661057
75,1978.0684168321231
76,1979.9808897247165
77,1972.0827969971813
78,1971.3730223795249
79,1963.150978510363
80,1973.5858501975713
81,1978.7800757144573
82,1974.5135568665685
83,1961.857864083551
84,1959.4048796691957
85,1963.1190333831016
86,1956.7104659707193
87,1896.8487072799169
88,1980.1469593836516
89,1985.0092501923955
90,1980.1798073169157
91,1991.3397173281385
92,1993.4780254714094
93,1989.6783046760909
94,1980.928410861109
95,1991.6131857277546
96,1993.3879797217637
97,1984.5053227086228
98,1994.402542826908
99,1976.381490415248
100,1976.3619820242022
101,1987.438739295504
102,1983.5110456179548
103,1995.5367265097002
104,1976.5593668636104
105,1995.690336991884
106,1989.4247239851825
107,1987.6850912858094
108,1963.5380625596613
109,1981.4172058876525
110,1991.6430551905232
111,1979.7720454196976
112,1980.4143508446377
113,1978.69401538961
114,1993.327322427588
115,1969.0608549443855
116,1993.4269459780865
117,1967.4522370000911
118,1971.2329888944023
119,1974.0424101226413
120,1987.87514525351
121,1976.1923233368193
122,1994.6848835805013
123,1974.858031069908
124,1983.67521768572
125,1991.3151223163131
126,1970.4437693469679
127,1974.2024628027616
128,1995.5594564737914
129,1991.2682998127787
130,1972.323012970789
131,1996.6020398826267
132,1990.1222282865958
133,1970.5234373901392
134,1991.4487898337675
135,1990.6882282231334
136,1984.1637162658524
137,1983.7881089315956
138,1982.120502253364
139,1991.8268066349306
140,1980.4216498822584
141,1981.128644652697
142,1980.4841318367487
143,1991.9627185987904
144,1983.09135388997
145,1971.520530918824
146,1967.5109508455273
147,1970.2452457823656
148,1957.7888387471176
149,1995.4173459098565
150,1991.2729978879274
151,1963.6125487562904
152,1976.6825320489302
153,1975.9113328774506
154,1990.1008741675628
155,1972.266420143065
156,1974.822693798576
157,1982.1126233246837
158,1980.7408165034024
159,1972.2190301552057
160,1986.2889199993197
161,1973.3870192918573
162,1989.7453833313184
163,1982.6522870730578
164,1979.3642294377269
165,1987.0237398460188
166,1968.3821405181939
167,1986.1400331426498
168,1995.3032238809242
169,1975.6894521955671
170,1996.8484178878534
171,1973.623195453641
172,1973.5920130827024
173,1992.9466803155174
174,1962.640304338031
175,1994.349387825327
176,1974.77500143967
177,1984.8999005849498
178,1987.4963433863975
179,1976.3635089104957
180,1991.8745149416436
181,1981.3215448189635
182,1990.0809416610016
183,1991.9446328411523
184,1976.7810954022939
185,1991.1882424784908
186,1982.2567334118885
187,1987.3482490010338
188,1978.2979084813805
189,1974.6460713696104
190,1982.5716973234803
191,1992.422106095996
192,1991.475982547354
193,1996.0988930101564
194,1976.7517748402981
195,1975.054918998464
196,1988.4638043386951
197,1972.1131378615162
198,1991.1311157956322
199,1992.3598482074935
200,1989.1155606644259
201,1964.7528224389341
202,1987.9790870952368
203,1989.5436551008008
204,1990.0606802064033
205,1981.2253424513653
206,1987.7198631641495
207,1989.584374623468
208,1991.2848224757072
209,1984.2169151809264
210,1997.2324213786746
211,1994.430145567229
212,1991.488504768012
213,1977.0398423938036
214,1978.7587537148522
215,1980.6830381364139
216,1991.9323546843837
217,1993.568797081229
218,1980.7402094926458
219,1979.2132840359777
220,1986.7181405474366
221,1977.3851203070744
222,1978.7151245148566
223,1981.2347426421104
224,1991.9593096724604
225,1977.2318005145921
226,1978.734439059538
227,1975.3822051640236
228,1991.7299611299256
229,1992.8457395006508
230,1985.879408342937
231,1993.1877118922787
232,1995.314722022262
233,1992.519795889093
234,1987.4417188081272
235,1973.2540131533863
236,1988.4014247105142
237,1978.144384231084
238,1966.1639195648395
239,1989.8839019652441
240,1980.7536717726318
241,1992.0272184596693
242,1968.0406975610026
243,1969.4690065994664
244,1975.092161226474
245,1966.6890112039332
246,1986.4975808468719
247,1994.666990864487
248,1967.4993174897422
249,1980.6592525681785
250,1988.4412270748078
251,1997.9779332769785
252,1974.951594955648
253,1969.5298460152942
254,1968.5989512944632
255,1966.7700462774847
256,1970.0232333942574
257,1990.8165039109988
258,1976.401982696603
259,1985.6636480680806
260,1981.5932408519989
261,1994.701972555719
262,1995.866745402998
263,1978.2947447335237
264,1969.5553337326548
265,1994.7360876910172
266,1970.383374300716
267,1989.5104485415818
268,1976.8058095093784
269,1972.103803801115
270,1991.8775904011684
271,1993.8635834250447
272,1977.7860021017668
273,1989.1636089704593
274,1985.4869699547078
275,1971.6434119690975
276,1993.4789000054986
277,1975.9535879271705
278,1978.9307805511257
279,1973.9633833599428
280,1977.9634322858585
281,1997.0983949890526
282,1959.4995896619541
283,1991.8382006870688
284,1995.0151234328418
285,1940.966618391618
286,1980.1357347312933
287,1967.4990530886787
288,1991.3366181450206
289,1995.8560152836724
290,1990.0744801063165
291,1966.4687428943696
292,1975.6893153546293
293,1989.9166651145322
294,1976.9763688738751
295,1983.827338335953
296,1990.6679458231033
297,1984.6887048167296
298,1965.0025610855523
299,1986.4047134040984
300,1990.474154813633
301,1981.7629312367806
302,1984.9275057054601
303,1980.6660270177008
304,1972.9785857262918
305,1970.1869155539766
306,1983.931988738567
307,1976.4622932591521
308,1974.8825779537226
309,1974.5118249179316
310,1983.438996702292
311,1975.3375116776522
312,1962.1007224545706
313,1972.7480139097624
314,1983.851542495192
315,1980.1719435050686
316,1971.5136423525971
317,1993.9390009651336
318,1989.1548264799146
319,1979.5188024531305
320,1991.3386741006907
321,1990.0226151932115
322,1991.6721570770005
323,1989.0696267488088
324,1982.5431942383932
325,1990.6591134454504
326,1973.701228157174
327,1986.0713787474594
328,1981.4396924215996
329,1990.4972047554018
330,1986.6632400425974
331,1978.2825502965093
332,1993.408795992358
333,1988.6401021454515
334,1993.3635611027926
335,1995.0482260741082
336,1964.7338199380767
337,1991.9026274220205
338,1984.380758250815
339,1990.853211674536
340,1977.6662176858126
341,1988.4311226853804
342,1983.8679767444835
343,1974.0390505855216
344,1992.7549934817453
345,1985.6585016372528
346,1984.3980558367293
347,1995.142057911093
348,1988.321824081781
349,1982.4944557225804
350,1976.2935843288217
351,1991.9138434159804
352,1975.4941673242847
353,1971.115275889657
354,1996.945830029295
355,1976.0118878648134
356,1988.8499000451952
357,1972.3085607729051
358,1985.8050539300725
359,1986.8239853777407
360,1974.3180619771983
361,1980.2671149424853
362,1984.9770240844512
363,1982.2388076965049
364,1974.0653614958856
365,1975.889991759896
366,1971.1525403692863
367,1968.8314665687421
368,1974.3134095061512
369,1981.776327056125
370,1994.3242513195853
371,1988.882830680249
372,1986.3221227706306
373,1995.6783225846475
374,1942.6188330619736
375,1974.7564503138055
376,1972.4404942529325
377,1988.947639735806
378,1985.8737926996637
379,1991.0112311691762
380,1985.3674828066903
381,1973.001081980688
382,1994.6778089484505
383,1972.226132427709
384,1991.783460129493
385,1985.729180766679
386,1973.533725151164
387,1982.5629819023613
388,1992.5496238346561
389,1993.1826660760314
390,1962.0216081667077
391,1984.3643459824243
392,1994.8437618267226
393,1990.2642548776355
394,1990.1947029283256
395,1982.1321493092114
396,1980.6840631577486
397,1981.3532536042833
398,1984.5724722571613
399,1979.805002798596
400,1985.0896343280149
401,1994.2183864570416
402,1995.5496385383904
403,1985.596107207085
404,1994.2772512884435
405,1995.1542079252677
406,1984.6804501539095
407,1989.445668907541
408,1989.804329354131
409,1988.4391235418705
410,1991.1239397653928
411,1987.3717780471986
412,1986.2882538515235
413,1996.0584040265348
414,1995.541694486665
415,1972.8576760635156
416,1980.1969501499557
417,1975.0605030368376
418,1974.0980307440793
419,1967.0821297541224
420,1995.468137733344
421,1985.2671244898017
422,1993.7122523754567
423,1990.9390805999237
424,1981.9573373953772
425,1995.1192432354794
426,1975.891691572164
427,1964.1725214304438
428,1978.2520976879853
429,1980.224477829385
430,1997.1093921496547
431,1981.9173964408203
432,1983.6079161140958
433,1987.3717048778753
434,1978.720737754819
435,1990.8668888919274
436,1982.8972591327831
437,1985.6346228090026
438,1958.7125587165197
439,1992.1663884329168
440,1969.9931691221057
441,1989.9256797776986
442,1983.6703169809853
443,1992.0379967801482
444,1989.8872834261813
445,1983.311574390781
446,1977.2941229800654
447,1990.2591498607906
448,1988.7499634798517
449,1973.140495896664
450,1983.8926145500634
451,1984.7453979521877
452,1978.6945530504781
453,1973.8634055177486
454,1967.909633824112
455,1993.359895501934
456,1987.127735898126
457,1983.982512486615
458,1981.5640755226234
459,1972.8803667985187
460,1986.0559445970925
461,1989.6973727156626
462,1978.1915592298692
463,1982.1505225019373
464,1992.678424266551
465,1972.6223065450902
466,1980.9850290086351
467,1986.611612300207
468,1993.8958878971773
469,1995.9657403866026
470,1963.1899294361447
471,1987.0897135353014
472,1993.3720355182281
473,1994.2225778019176
474,1990.889151128405
475,1973.0181470381224
476,1986.2720617815953
477,1981.8615019210267
478,1976.1531036198992
479,1984.6556806740655
480,1978.8405047853535
481,1995.6161384698185
482,1975.1099921685043
483,1964.6564570781104
484,1976.67028509177
485,1978.946603438241
486,1993.7209775997826
487,1976.4800075608227
488,1995.232008043235
489,1990.6987088283906
490,1987.3576751892201
491,1991.82933107155
492,1996.7933668660187
493,1969.7983991164579
494,1994.4106749232756
495,1975.7765324419452
496,1982.792775191898
497,1980.6474670403193
498,1996.3590541091437
499,1986.423177334858
500,1994.0696453161454
501,1979.3652850137298
502,1986.7462690114287
503,1994.5660038509423
504,1979.619175871175
505,1979.692938691232
506,1983.825401405284
507,1971.6197064278165
508,1998.4415397416553
509,1985.5602191192886
510,1988.5396300261489
511,1990.0321947321945
512,1980.9501163058699
513,1990.8313376117815
514,1993.2819991308063
515,1991.439518280899
516,1990.2965823080433
517,1982.3603459623805
518,1978.5516392119578
519,1969.4719392528746
520,1970.7174792629314
521,1992.7466245237904
522,1994.4984746562725
523,1981.7518804449667
524,1977.009597480335
525,1987.8921616687492
526,1991.2825098079238
527,1961.0941485592596
528,1997.2862591275655
529,1987.8269392573945
530,1982.7980366254158
531,1988.753538051277
532,1997.4720940459667
533,1987.502975262625
534,1992.1610717824828
535,1996.3381298137845
536,1985.8145325261441
537,1988.637694806076
538,1997.8113761175264
539,1991.8092484113736
540,1981.093435569538
541,1986.9547096238744
542,1995.6724010883868
543,1980.2649971577566
544,1994.0705463276445
545,1998.3589054157662
546,1991.5673778172788
547,1989.0107874275639
548,1973.1151047013843
549,1968.908227263119
550,1996.8711184873828
551,1994.0978052127066
552,1988.309995281153
553,1988.482066337727
554,1987.7991632105834
555,1993.7078894016004
556,1974.8821811435762
557,1965.3152875820829
558,1984.463495455957
559,1985.4632006752029
560,1994.1640436936325
561,1987.4612098425903
562,1983.320617721354
563,1990.6578003571472
564,1987.2974954270346
565,1993.1128229892402
566,1956.097394378193
567,1974.3920871599787
568,1995.0877922572834
569,1996.2670758875524
570,1994.8077931102966
571,1970.9624080652104
572,1994.385151974704
573,1984.7807398815887
574,1975.721621111615
575,1993.230466355151
576,1993.8571878868418
577,1989.1668185510807
578,1995.603830356438
579,1992.6131365601307
580,1978.2642393490512
581,1989.2037639221464
582,1990.7066266214515
583,1988.2389539146866
584,1994.9218267283647
585,1987.9489088070975
586,1975.4935261020446
587,1977.2176395729946
588,1993.0188334421546
589,1977.6212072019498
590,1980.640573751459
591,1977.4759625627146
592,1986.7058458492618
593,1990.888239298031
594,1985.1741221271723
595,1963.0656230523368
596,1985.2103485484447
597,1988.8486194656177
598,1998.1193181437388
599,1987.5625910678175
600,1978.8433565887228
601,1997.293495212355
602,1987.7490235141543
603,1994.9996119244768
604,1993.8659287393666
605,1995.2962320994468
606,1975.3116417187869
607,1976.6186219701226
608,1979.028167015584
609,1982.3215063601983
610,1985.8042535090565
611,1990.893539498431
612,1986.7347115521347
613,1991.5918702932263
614,1984.8703473604696
615,1974.1298115266104
616,1968.639379786011
617,1990.8216622687446
618,1986.9481635530883
619,1986.7576634028524
620,1998.5608540748788
621,1988.8056230218513
622,1989.6607593880424
623,1994.268833036326
624,1989.5874623481834
625,1988.718011747068
626,1998.1694327739856
627,1993.3616322584085
628,1977.4800796647266
629,1984.8334855727355
630,1996.9126027078662
631,1983.7525097134983
632,1979.6741846022073
633,1973.8904395071995
634,1978.6204528319563
635,1989.7518776699826
636,1986.935575686266
637,1992.345536502665
638,1994.17809054696
639,1991.7533642322696
640,1993.6678670934434
641,1961.617536735049
642,1990.0106866400993
643,1988.0004378230922
644,1978.5360724925638
645,1993.0210988232398
646,1993.8521573318963
647,1964.3114947836161
648,1991.6744532171551
649,1964.925279947601
650,1998.719149318917
651,1993.4612843733207
652,1986.905211858793
653,1981.8741185049053
654,1976.4617558368634
655,1989.193583590391
656,1988.5102861921023
657,1983.776715979134
658,1990.4489025928242
659,1990.747696111799
660,1980.0038343062536
661,1991.1953570188334
662,1993.573397114648
663,1992.01315892878
664,1992.6389703317873
665,1982.8259435006175
666,1975.0394204659876
667,1980.5780375350132
668,1991.0516722018554
669,1987.2807651476298
670,1972.1473288670215
671,1983.0610352686713
672,1978.9640733241697
673,1996.6658133638869
674,1982.5085628121547
675,1970.0661249770217
676,1985.8840656436491
677,1993.0197740356052
678,1989.6591935858357
679,1989.9860138189217
680,1998.194410792309
681,1992.6132713638522
682,1996.727563546751
683,1989.1279098719194
684,1979.9457137750942
685,1981.6867786476482
686,1993.3191203602512
687,1987.6091656827814
688,1971.5726409303647
689,1983.3067330941594
690,1979.6286577992228
691,1983.673114047991
692,1969.415888494412
693,1994.467449029405
694,1976.885945287499
695,1992.0498292300344
696,1986.9738402680382
697,1972.2985549449184
698,1994.326103919381
699,1985.6345588235972
700,1995.1321671155872
701,1982.4180465980937
702,1987.14564167284
703,1966.242314230181
704,1996.6807827064363
705,1979.2643536342455
706,1976.9528426476106
707,1994.3727865139929
708,1983.5452667110508
709,1986.010415777706
710,1974.965597478219
711,1995.081240203292
712,1973.7410055032005
713,1971.3942756237664
714,1991.9493079466367
715,1987.552368077605
716,1983.868902575785
717,1996.0436684298224
718,1983.0374625290956
719,1992.4841440749594
720,1997.1286233080675
721,1973.3645135583379
722,1990.4784316581
723,1986.1126933540645
724,1989.7283978705018
725,1986.387249263712
726,1996.2323586095781
727,1983.3508651717043
728,1998.0224296859537
729,1979.7907364998737
730,1981.1128270185027
731,1984.6848916096496
732,1991.6355401560825
733,1980.8244813751473
734,1980.6877660948776
735,1990.3633747726747
736,1990.5089312725459
737,1990.5466694823547
738,1987.627491148858
739,1980.9778279659977
740,1979.8238119689718
741,1988.7983122651387
742,1976.0524240043196
743,1959.955237332279
744,1985.7447117120553
745,1993.7456048525999
746,1995.9966351355952
747,1992.1815083154677
748,1974.5259037317257
749,1988.5601822188542
750,1994.3533759965953
751,1978.4066884351007
752,1991.8971738635141
753,1995.391682253659
754,1977.7624729216916
755,1976.6791793570385
756,1978.991859370278
757,1977.2879221639855
758,1992.5062848075497
759,1983.1475967814733
760,1984.9562779870064
761,1993.9254381217177
762,1983.0516183418895
763,1983.9754143696678
764,1985.7213793837818
765,1978.2833509638554
766,1987.6501158899794
767,1985.2058038237933
768,1979.0102366087156
769,1985.7305975605059
770,1987.9685713809347
771,1981.026673704351
772,1996.427057204613
773,1990.1872769407582
774,1995.650209205794
775,1990.1976256661892
776,1973.3958454690196
777,1973.465342047106
778,1997.7374399659577
779,1980.2651462690274
780,1977.8096424164546
781,1993.878270080169
782,1982.8933914509976
783,1986.823240769391
784,1997.9052905940841
785,1981.1925016201344
786,1990.0241105185
787,1995.0314593418357
788,1995.4968618402934
789,1995.9494338325005
790,1990.9023949325629
791,1998.0687735348502
792,1999.2622784169687
793,1959.877093376075
794,1982.2148705384152
795,1993.6193289865118
796,1991.6581056668606
797,1994.4451531685709
798,1998.2063024445029
799,1981.5345834912055
800,1990.2197316595116
801,1983.4688127017366
802,1997.98155173887
803,1995.4532832817315
804,1988.2237306493869
805,1986.606419945526
806,1979.9525246269936
807,1992.709744247647
808,1996.0313436195545
809,1985.369197665023
810,1993.4191384604296
811,1972.2069076820637
812,1993.763940964522
813,1993.5163412641225
814,1981.329736884535
815,1981.0685065911482
816,1990.6762614400395
817,1982.9379641926353
818,1991.6917652478173
819,1989.1692932595158
820,1992.899089015271
821,1980.9839537044472
822,1988.3407874819954
823,1985.4978739393541
824,1992.0285689409875
825,1994.455784620218
826,1977.8444435048684
827,1990.78402881531
828,1995.448619740742
829,1989.7714592623972
830,1979.3300067168416
831,1980.6326695232235
832,1978.7689726941737
833,1990.0972042431008
834,1992.1585144079988
835,1998.244785218183
836,1995.6928521839006
837,1998.1584508594437
838,1997.3744868709318
839,1989.2294420160006
840,1986.6174851205615
841,1983.7354242923457
842,1984.186320970823
843,1993.423395889017
844,1985.4011067288561
845,1984.1085629190086
846,1982.9357748273364
847,1973.4066349769607
848,1985.884729066214
849,1977.943267073542
850,1998.2242509948783
851,1986.32363269446
852,1994.2309704028676
853,1954.2327524303232
854,1988.634556662254
855,1979.5178152355434
856,1984.2834552550378
857,1983.7971397762954
858,1989.6159945678871
859,1993.8606775504431
860,1990.0493800483218
861,1998.4578672289367
862,1990.0693628552071
863,1987.6141949458329
864,1983.4277436892987
865,1982.6521424073105
866,1992.0716251169763
867,1992.3834964837706
868,1983.295499602366
869,1976.3818526660493
870,1993.3206372228804
871,1996.0500887518965
872,1970.9175983600194
873,1994.4183567376028
874,1968.479390713479
875,1978.6058675697386
876,1997.3711233870026
877,1988.5011750058775
878,1981.2690739765185
879,1987.6694268756307
880,1990.7656492919805
881,1985.4114146989161
882,1997.2073664842
883,1972.9716261471049
884,1975.597239419333
885,1988.4914003738206
886,1996.1760857287861
887,1981.7454008792804
888,1980.0736646273674
889,1991.4005638827578
890,1983.8800772821971
891,1994.0989455124459
892,1977.8761831605857
893,1983.5933508859957
894,1990.6090034502624
895,1995.165341433276
896,1978.70620976979
897,1955.4361490882081
898,1994.0652278245045
899,1998.3588602559146
900,1992.9560043517815
901,1983.2933941476495
902,1993.6296595752647
903,1987.5706087127649
904,1991.8610260448484
905,1988.25925470446
906,1992.15131964428
907,1993.2654534442577
908,1995.5874611437903
909,1982.1146531831773
910,1992.0257603835544
911,1979.913210862262
912,1995.6294484725686
913,1972.9057059451843
914,1993.490202794115
915,1983.031600045848
916,1979.9623605240542
917,1979.165307067024
918,1978.6127022952276
919,1995.3844148638625
920,1995.6878267543395
921,1989.0222247576235
922,1993.0671766388498
923,1975.2018321839244
924,1989.2986462393449
925,1996.7955817586846
926,1988.6693895915907
927,1996.597787676323
928,1992.048713096464
929,1985.800261919404
930,1990.5464837288046
931,1978.0498955286293
932,1994.7456171458791
933,1989.8226742000836
934,1993.3928886049116
935,1987.215678890757
936,1993.2014766607288
937,1997.6816197121143
938,1982.3840179247943
939,1974.0009831980012
940,1982.7417495281709
941,1993.4580240309658
942,1989.8197377186948
943,1999.8619306681605
944,1987.6472821135885
945,1985.5927015200475
946,1998.1333744292606
947,1994.0109990916271
948,1997.192781806312
949,1989.7153782518833
950,1996.4148458911845
951,1986.466474569052
952,1989.5279985956943
953,1997.3292567054448
954,1997.5044680518724
955,1986.2451431517966
956,1977.0747513976512
957,1973.8845048860785
958,1999.8618469339087
959,1979.3101010145826
960,1995.966422829257
961,1984.8786988316574
962,1977.0140887096359
963,1985.0197631877038
964,1973.2928046914674
965,1982.2914130320466
966,1999.3903679228104
967,1998.3953819539408
968,1992.072749414177
969,1994.1568973965457
970,1983.8388761382375
971,1989.3225007386657
972,1998.5022496553504
973,1990.5311747124674
974,1991.133995773286
975,1997.1139457293418
976,1989.2554196845897
977,1980.3855033464743
978,1994.4048910545973
979,1987.043951061396
980,1981.5299786690787
981,1995.8653591379139
982,1997.9869378133258
983,1989.4376088159534
984,1989.8903927284837
985,1995.9826423513011
986,1987.540530470148
987,1985.4525023335254
988,1991.2914615637962
989,1980.4479898216216
990,1988.7999903932193
991,1972.7180063106118
992,1993.322693005141
993,1989.7318710486213
994,1988.1494812521216
995,1985.733831946744
996,1968.1414428219155
997,1966.4753023282483
998,1988.5758075007589
999,1988.7956952349848
1000,1977.459517754573
1001,1977.4821302000882
1002,1989.0960088237953
1003,1995.8905126319755
1004,1992.8032203905993
1005,1982.7895531152917
1006,1973.5463270783287
1007,1993.4333585146505
1008,1992.9033086619843
1009,1996.0598301189705
1010,1986.1220070534325
1011,1992.6452515510816
1012,1983.8061221488265
1013,1993.1397288369371
1014,1990.2505434150619
1015,1978.0828532032012
1016,1996.979505797538
1017,1984.3350506916452
1018,1994.360837992808
1019,1981.2080657760355
1020,1984.4537867312274
1021,1993.1109277882897
1022,1988.1195437464805
1023,1984.1794262667624
1024,1996.3595203621933
1025,1982.5065619549055
1026,1997.0899139143937
1027,1979.5913266335244
1028,1928.79068571715
1029,1884.4836148191548
1030,1969.7890454122667
1031,1977.536976473638
1032,1979.4087260908511
1033,1987.2241247747677
1034,1982.1484771072992
1035,1977.969332944324
1036,1991.1469337162914
1037,1971.8697728857421
1038,1944.7181181588016
1039,1981.5877231880374
1040,1974.6592188456154
1041,1876.6123235971245
1042,1923.733127573816
1043,1985.543625679359
1044,1986.1240928617974
1045,1980.0312528838476
1046,1981.4262957645499
1047,1967.2826859385561
1048,1953.302991658857
1049,1960.0606191299287
1050,1979.414985378823
1051,1987.1951837556653
1052,1989.0965614792153
1053,1984.5385927389461
1054,1974.6495866812563
1055,1991.0599924517649
1056,1966.0682996120659
1057,1958.203802464173
1058,1979.6105231628935
1059,1981.8093337462817
1060,1970.6652009711395
1061,1980.1972234406094
1062,1972.4554547493758
1063,1967.7947916691583
1064,1973.572325545825
1065,1980.3921823159228
1066,1967.1358827194747
1067,1984.3175579267447
1068,1985.364947827899
1069,1967.8519061502686
1070,1988.8630046254898
1071,1984.8164977595504
1072,1983.4403320625286
1073,1964.0688215893715
1074,1954.8851186030486
1075,1969.6176738160414
1076,1958.6479743361929
1077,1971.7995332619005
1078,1987.2750511858512
1079,1970.853550165244
1080,1949.4244102381494
1081,1986.4548171093484
1082,1937.662739221339
1083,1966.8088179456815
1084,1979.0904170262959
1085,1981.062944092889
1086,1970.8298398985564
1087,1952.8604662387831
1088,1960.3838653450546
1089,1983.8407452761717
1090,1977.1813543144056
1091,1974.3153375471375
1092,1984.6385547085556
1093,1980.3300772636426
1094,1985.936929872693
1095,1958.497607610638
1096,1959.396523741447
1097,1980.15814769307
1098,1976.059117159417
1099,1962.3886673734448
1100,1988.294235977985
1101,1977.6920102186996
1102,1975.1431784419105
1103,1965.8405939980398
1104,1962.110899317431
1105,1967.0843566449255
1106,1986.0062338497992
1107,1957.0898523912792
1108,1961.0341301658927
1109,1976.289761655157
1110,1969.3914787344222
1111,1971.7701683718258
1112,1977.5549232673877
1113,1977.4809969545834
1114,1972.6060662040784
1115,1953.6575571480155
1116,1962.866479195389
1117,1977.1603312814213
1118,1975.7329403011556
1119,1958.6049139740505
1120,1967.9919557280562
1121,1980.7304290582358
1122,1972.0006877937299
1123,1988.1786597891216
1124,1952.0922572082707
1125,1967.1731632505127
1126,1957.677371979524
1127,1960.9432487020092
1128,1981.3451141630458
1129,1974.723190524446
1130,1981.2953787721683
1131,1976.7583857722511
1132,1976.454527148112
1133,1974.7011995764205
1134,1960.6598798612654
1135,1957.36319909626
1136,1988.9015577315438
1137,1969.4869032960257
1138,1964.7299059095772
1139,1974.6492158583978
1140,1988.80027802961
1141,1979.5946433248796
1142,1985.3418011882616
1143,1987.341454026425
1144,1979.8152203431393
1145,1976.584299355335
1146,1984.9138826399721
1147,1952.9103872965707
1148,1981.1960619441656
1149,1985.4477722852914
1150,1949.0290688018747
1151,1976.5680606552
1152,1947.1395187989692
1153,1954.5578991732273
1154,1981.036849730587
1155,1973.037891332954
1156,1976.3484434390748
1157,1971.450160062576
1158,1971.9195426098693
1159,1981.1237525019978
1160,1978.5085580483012
1161,1968.5140489517353
1162,1972.909701528343
1163,1983.9443543248615
1164,1985.4322401792663
1165,1978.1866760131606
1166,1977.0382181035552
1167,1966.3475096497873
1168,1968.7787371500456
1169,1950.2057261121133
1170,1978.2026665084975
1171,1965.61992476596
1172,1953.3495404209546
1173,1979.236287354954
1174,1974.7975123161912
1175,1985.4450840747713
1176,1977.1208199004682
1177,1984.677940037839
1178,1979.6190441140627
1179,1967.567237572169
1180,1970.2218798752785
1181,1989.4409007866748
1182,1970.1289209342533
1183,1971.080982234352
1184,1979.5502289271599
1185,1971.4534341599772
1186,1973.0199251492193
1187,1984.0374833180356
1188,1977.1621888381114
1189,1987.1604870906672
1190,1977.8841810387228
1191,1960.25229532854
1192,1978.21880145359
1193,1960.691310386944
1194,1980.941974920538
1195,1965.2561418431249
1196,1976.8552694016373
1197,1965.9379595502248
1198,1988.5946616932185
1199,1981.0485763162137
1200,1965.6367071167945
1201,1972.0798675928413
1202,1967.0423869881056
1203,1970.7278237981727
1204,1949.711163458913
1205,1979.6937425550334
1206,1983.5910008374221
1207,1977.3268866663943
1208,1968.5510297562837
1209,1979.8197531938831
1210,1975.5405346601794
1211,1902.098099480801
1212,1969.930839603462
1213,1742.308613002063
1214,1985.5096191941109
1215,1987.6359477754072
1216,1990.3536399080017
1217,1979.1011589040756
1218,1993.6088879906647
1219,1995.1211255217067
1220,1983.394043585546
1221,1984.6275559750081
1222,1994.289936149395
1223,1987.224155177065
1224,1980.2507673954885
1225,1975.1947622428586
1226,1991.3695321266734
1227,1992.4058416488294
1228,1995.1254373279244
1229,1979.7083940381606
1230,1993.3357719260032
1231,1996.1891143140317
1232,1997.2188308449217
1233,1975.9199452606513
1234,1984.328471905736
1235,1992.085243669099
1236,1990.6027310442007
1237,1981.076049312247
1238,1992.5159464865462
1239,1989.6199283876854
1240,1981.2130971810238
1241,1995.2651998234987
1242,1990.4464283028701
1243,1969.9725162886125
1244,1994.2173124892802
1245,1983.2134642615865
1246,1980.4784414761632
1247,1992.9197693688384
1248,1998.4689030167724
1249,1977.8890884035825
1250,1977.2732150935867
1251,1981.9041467373997
1252,1978.2717102209376
1253,1993.006495700177
1254,1996.8369236920228
1255,1992.3251023650012
1256,1985.5547849722057
1257,1982.935667621239
1258,1948.1112240661455
1259,1978.255845574567
1260,1976.892190951526
1261,1963.4160278038428
1262,1964.8161044744115
1263,1988.1655101544193
1264,1987.1269240663453
1265,1978.6290412024684
1266,1972.182103184294
1267,1971.9656792449498
1268,1986.4747614131982
1269,1976.9910389716722
1270,1989.5018526358026
1271,1974.6956064301726
1272,1967.8673914928972
1273,1970.9059888857964
1274,1977.0542173369895
1275,1964.2707337039096
1276,1952.9725730560247
1277,1963.4082200343282
1278,1977.4733638942369
1279,1980.2236916526108
1280,1976.2190694724159
1281,1955.8389121260946
1282,1961.6550658485219
1283,1970.1654755919196
1284,1965.348095102906
1285,1970.8233351705048
1286,1983.9662509196653
1287,1987.5357185634716
1288,1959.8376940190071
1289,1962.5786472469356
1290,1960.605504282161
1291,1981.3069615488123
1292,1955.173633519828
1293,1978.0125923219582
1294,1985.4282812355116
1295,1982.1711317239035
1296,1976.5235710613447
1297,1979.8500168405917
1298,1958.3099549391104
1299,1966.9606169274648
1300,1977.7040259543762
1301,1980.3019106538486
1302,1986.6644668157546
1303,1969.361593970409
1304,1986.6724849067368
1305,1980.6838212150067
1306,1985.1742021841087
1307,1976.6099005499539
1308,1982.142541616236
1309,1982.761610361282
1310,1986.322316571471
1311,1959.6813676151946
1312,1976.7238439661146
1313,1988.9836962163058
1314,1978.3552827240267
1315,1953.1548845013006
1316,1985.0707724146305
1317,1973.001612857502
1318,1987.441731431663
1319,1971.2344816176937
1320,1985.0488701515624
1321,1988.3403273176366
1322,1977.7825200842274
1323,1970.1924062971573
1324,1982.082511574644
1325,1942.627410507504
1326,1951.1102307461667
1327,1975.8200452515662
1328,1966.0486353099272
1329,1969.8439140892601
1330,1965.1657639305186
1331,1964.0925210891603
1332,1962.287178728026
1333,1974.2947766023706
1334,1970.766669584048
1335,1980.1908185964976
1336,1976.838093753426
1337,1962.2042475030144
1338,1985.6342411951007
1339,1950.9512297485624
1340,1984.0231680841662
1341,1954.5414883174203
1342,1986.0166046971879
1343,1981.322343119717
1344,1971.363969262302
1345,1951.5004882919718
1346,1987.6755454229835
1347,1972.2234820990188
1348,1984.4597332789672
1349,1988.5611041592133
1350,1968.8382244552595
1351,1957.0355738265043
1352,1985.991430638012
1353,1988.0204667202956
1354,1984.563416437271
1355,1988.088243801465
1356,1988.4845108087927
1357,1962.9466825807956
1358,1953.5605871761277
1359,1983.151233293143
1360,1987.406139476209
1361,1982.319193741104
1362,1986.2271771774003
1363,1954.0104532337132
1364,1965.9151496037377
1365,1982.9728282765611
1366,1972.371635725567
1367,1964.9751068562086
1368,1977.4906828844842
1369,1982.8654414266553
1370,1976.8269703141773
1371,1967.146374073984
1372,1968.4935761571599
1373,1952.1757776278878
1374,1985.0576650382995
1375,1982.5192011733116
1376,1987.0194978754707
1377,1956.89751845067
1378,1984.7554251561216
1379,1985.5130197329474
1380,1980.4537484926736
1381,1975.1657859186816
1382,1966.8515331497242
1383,1984.0894226970795
1384,1957.0579156182637
1385,1971.102365622071
1386,1955.3547126367578
1387,1986.1064384092347
1388,1984.7616026486633
1389,1954.2756856196663
1390,1978.5698173517671
1391,1970.4131216590627
1392,1984.6116307055502
1393,1968.878040959072
1394,1953.6110599373908
1395,1989.8675291437426
1396,1964.9511536952077
1397,1976.3400393112172
1398,1985.5110095468071
1399,1978.0549369496766
1400,1966.9452733903713
1401,1960.9047058252145
1402,1982.1347246934038
1403,1955.1150371907584
1404,1982.5772984212288
1405,1985.3429534421728
1406,1945.671567287113
1407,1985.2777542242752
1408,1962.6897598222681
1409,1963.9315632644714
1410,1987.1081705159468
1411,1959.464323697493
1412,1979.8371928765348
1413,1964.8377503411737
1414,1972.2586355659246
1415,1983.5362910528365
1416,1969.5483826939285
1417,1980.6054641787914
1418,1958.7031466710926
1419,1977.3235283975775
1420,1970.5072682647133
1421,1986.8423902692098
1422,1963.8794945774916
1423,1974.3908925033134
1424,1971.5508391263734
1425,1957.6189444404085
1426,1977.8986832751307
1427,1960.6774459770882
1428,1964.2123274937076
1429,1975.4805124281484
1430,1985.5791409451135
1431,1978.8680983402
1432,1963.031821483109
1433,1972.576929922567
1434,1956.9249113867627
1435,1988.6001765295348
1436,1968.6745612904078
1437,1964.5707339099527
1438,1977.0910988120402
1439,1976.734773650869
1440,1983.7460966761294
1441,1990.8490851776178
1442,1963.3179463816427
1443,1987.0804318763867
1444,1964.7538059750664
1445,1968.923188058308
1446,1974.0647808913527
1447,1986.2665104197106
1448,1962.822953772881
1449,1963.5869303546133
1450,1979.4608906645303
1451,1954.798105712834
1452,1971.2575091157598
1453,1972.6345827038674
1454,1964.9581749824972
1455,1984.2875328484708
1456,1976.7250066838076
1457,1978.6388291833262
1458,1990.2540736410497
1459,1985.2276139606306
1460,1988.6419620251177
1461,1975.3910889184824
1462,1979.1328010735965
1463,1974.0960928945615
1464,1975.7885146607139
1465,1940.5951868758316
1466,1974.3059560490824
1467,1981.6167948743378
1468,1980.5647033145224
1469,1959.5879583115816
1470,1949.3691526221362
1471,1964.6015696722302
1472,1969.6882046402131
1473,1986.1683368313054
1474,1984.3338563424597
1475,1970.0834109256432
1476,1985.8436808503363
1477,1956.5928213096954
1478,1987.6391374517866
1479,1981.604392983374
1480,1957.7004530468562
1481,1980.1308950577127
1482,1967.1697445703003
1483,1978.1213900644534
1484,1978.968204869411
1485,1983.7330384543136
1486,1973.4997756782673
1487,1953.0201881921394
1488,1974.6145683705101
1489,1978.4789806713054
1490,1972.4546150367978
1491,1971.7310244339071
1492,1984.6598734340762
1493,1982.190835524081
1494,1981.229783088115
1495,1965.8522305185174
1496,1979.0583715389876
1497,1959.0210963870122
1498,1956.113605068615
1499,1968.9089050038006
1500,1982.4588501295707
1501,1967.3960369883316
1502,1953.6273176144757
1503,1944.692441232336
1504,1946.2703157023539
1505,1960.873814863155
1506,1941.0029723715977
1507,1971.7371968547345
1508,1972.761066090012
1509,1959.996320438523
1510,1984.5069310309257
1511,1982.0048596038694
1512,1989.6380037500428
1513,1986.859779437502
1514,1985.9851533971466
1515,1982.194796421647
1516,1982.0528299074579
1517,1977.1091655414432
1518,1983.5889299860696
1519,1980.3278924754663
1520,1961.6009873529158
1521,1984.800929697588
1522,1960.7839950185491
1523,1978.0581692265969
1524,1986.1407686910072
1525,1985.2886254435878
1526,1982.1862241492104
1527,1971.4705856332466
1528,1969.5674397022622
1529,1961.9193523455542
1530,1988.7457042469584
1531,1985.613584376706
1532,1970.3418767546345
1533,1951.4787515365174
1534,1987.8699859680585
1535,1979.4492338236703
1536,1961.2094594506548
1537,1970.0515946582311
1538,1983.185743712342
1539,1980.835379029009
1540,1971.6070537654532
1541,1979.2378713577336
1542,1977.9381261986541
1543,1953.4938238303826
1544,1986.2175259352923
1545,1989.1069834885252
1546,1985.0316517680685
1547,1987.2363707645745
1548,1981.4674321826476
1549,1958.6826482607596
1550,1955.4195001548978
1551,1977.5947960203289
1552,1984.6107552967999
1553,1975.9455729801439
1554,1986.469402827397
1555,1962.4327541466625
1556,1983.4889864147515
1557,1985.2419752730839
1558,1964.707605708828
1559,1982.516413671871
1560,1981.5566203331323
1561,1971.9752686582833
1562,1976.306458578412
1563,1965.8496342108358
1564,1976.9665268615072
1565,1957.6895968563501
1566,1972.2952428696385
1567,1957.086076743685
1568,1962.0603515680566
1569,1978.6876168149404
1570,1987.3610504909698
1571,1965.5634218176526
1572,1988.1726338568408
1573,1983.3337607787469
1574,1953.9374672460037
1575,1961.831179657955
1576,1955.8294297602524
1577,1960.7361111835562
1578,1967.1021695354884
1579,1973.8573942525481
1580,1983.7967287227686
1581,1961.4017340075925
1582,1962.1614068513122
1583,1987.5556538225599
1584,1985.41116475701
1585,1980.52771602596
1586,1948.8982053334046
1587,1990.30990845327
1588,1962.231560887283
1589,1988.6804521090571
1590,1982.5945027061202
1591,1972.0998011223444
1592,1963.6705240331864
1593,1958.8414037165514
1594,1982.037808877404
1595,1981.8386837786134
1596,1980.324012731361
1597,1980.3971631914355
1598,1978.534092809665
1599,1982.2280795651284
1600,1964.7897498740786
1601,1975.6360174558256
1602,1966.650208181115
1603,1986.5592808839308
1604,1948.9427969800804
1605,1982.930542458203
1606,1951.404839116329
1607,1983.894643411439
1608,1968.5539264366419
1609,1976.2987549885563
1610,1981.2982126086872
1611,1978.845161307449
1612,1947.6966453389489
1613,1966.4975917051584
1614,1984.0919774045617
1615,1959.9331962818003
1616,1977.8471088974757
1617,1956.7840102552664
1618,1983.0985657167657
1619,1952.0620724256055
1620,1951.1956492483118
1621,1980.2139402949185
1622,1982.5608946465281
1623,1967.060003144598
1624,1979.6289617834566
1625,1986.436768940113
1626,1948.8050147703852
1627,1969.0953625721215
1628,1978.233312195277
1629,1972.6767116542826
1630,1968.2208895770157
1631,1986.554823881862
1632,1967.6344627197127
1633,1956.0056360428598
1634,1986.8461093429032
1635,1982.0737425968007
1636,1958.3704456289797
1637,1958.1075574463268
1638,1978.6584989910543
1639,1981.4650803333382
1640,1981.9197308102302
1641,1979.7755274083438
1642,1977.2616463334298
1643,1976.5325467676214
1644,1987.5188392469477
1645,1984.4991248665626
1646,1946.8368674396581
1647,1973.0658921734469
1648,1976.4316873683297
1649,1974.2785003137042
1650,1977.453346520047
1651,1979.1080651457892
1652,1979.2615146253618
1653,1972.9822009723466
1654,1984.7701094754768
1655,1973.0981247828372
1656,1978.0601123137446
1657,1983.0742512416537
1658,1971.4602928276386
1659,1966.454098489441
1660,1980.9875148981885
1661,1975.8851705005366
1662,1984.1211519264575
1663,1989.9051391927974
1664,1970.3863656202645
1665,1983.3288831469292
1666,1973.3789397074427
1667,1964.5246861303362
1668,1977.6696356401658
1669,1977.9558270156115
1670,1974.6487155531565
1671,1976.1456036119735
1672,1949.7742846895037
1673,1968.35413064247
1674,1971.504803614211
1675,1980.4934092953229
1676,1985.5503900222432
1677,1982.89505428942
1678,1975.818173220805
1679,1953.2112970289777
1680,1973.907054907306
1681,1957.2555824304188
1682,1968.9078005797478
1683,1964.7463807536546
1684,1955.2999973378078
1685,1965.9794020457311
1686,1936.0765354362347
1687,1979.9697106519402
1688,1977.401374834111
1689,1957.9205676803304
1690,1968.5831402057484
1691,1959.5434027044444
1692,1933.563335729481
1693,1965.4786640755585
1694,1962.2072684270277
1695,1975.3233514473498
1696,1979.5963013929525
1697,1950.7058210459827
1698,1969.9937325575543
1699,1978.8392612876635
1700,1977.5048580888197
1701,1989.267270839856
1702,1960.3663844356236
1703,1971.4912601562921
1704,1981.7715307063359
1705,1979.2761189926912
1706,1963.2093423050226
1707,1988.36347161818
1708,1963.729577425928
1709,1969.0117864977278
1710,1961.5385946096415
1711,1953.3086791546991
1712,1941.2980497148474
1713,1981.132924160926
1714,1985.793111016481
1715,1956.0947555420619
1716,1973.9511232368604
1717,1960.1234066479112
1718,1957.5802302874743
1719,1951.5370485535173
1720,1960.4235446736704
1721,1935.119797970856
1722,1965.7627736031757
1723,1948.2611824788128
1724,1963.752466092774
1725,1966.4847961179637
1726,1964.9959775698928
1727,1962.7766508527448
1728,1979.62655197865
1729,1953.050552537378
1730,1956.0996259469796
1731,1940.848795379564
1732,1978.4591217112497
1733,1972.2670607371017
1734,1972.2193934967906
1735,1980.2907219765455
1736,1959.9057782799819
1737,1977.386217496149
1738,1939.5746025261296
1739,1958.0866443585214
1740,1973.4606499535064
1741,1970.2383055867053
1742,1942.2283259181063
1743,1961.2084810876013
1744,1965.988811120997
1745,1956.2530806524546
1746,1961.6365110488377
1747,1954.2438255085447
1748,1983.9158636187547
1749,1941.8927748699423
1750,1980.5870658829976
1751,1945.2135985482842
1752,1967.5460103424564
1753,1979.5794008198936
1754,1968.5560126151097
1755,1984.8044215988725
1756,1977.1479446016353
1757,1946.5836368758664
1758,1976.3690853350356
1759,1969.5805224675323
1760,1975.9204867931403
1761,1986.0385016731764
1762,1961.3971614440286
1763,1986.9175718057604
1764,1986.6495111225731
1765,1956.0326290942478
1766,1963.204082360731
1767,1985.7011991885238
1768,1963.3394700412043
1769,1973.536747588575
1770,1960.3938108101859
1771,1971.6447828574176
1772,1968.701848380514
1773,1984.4529630719833
1774,1966.5858246837145
1775,1976.4435115496765
1776,1987.513650121213
1777,1962.8297448759274
1778,1975.0233484332798
1779,1980.5902346168525
1780,1980.7625321194755
1781,1952.7311283184517
1782,1968.513496479766
1783,1972.7838796032077
1784,1967.6418162734055
1785,1970.4659719568047
1786,1936.5428225342275
1787,1951.282827766726
1788,1944.5170502368462
1789,1975.041042400892
1790,1953.5670881784263
1791,1984.6919858911267
1792,1973.6816563774737
1793,1958.0664027267437
1794,1977.2724224099136
1795,1987.3843038263353
1796,1982.0373152835064
1797,1957.4473723610693
1798,1941.4053444727815
1799,1956.2161222492714
1800,1942.395596369889
1801,1976.4434475137598
1802,1965.7500657891019
1803,1954.8890286227872
1804,1981.0771526193578
1805,1978.8626207566608
1806,1979.6482670311511
1807,1972.7738538935491
1808,1979.4269101657394
1809,1981.0801489402334
1810,1969.5561279615765
1811,1969.147565354632
1812,1983.70159732221
1813,1984.4182211775394
1814,1976.2147092294279
1815,1986.429721235778
1816,1971.3515594070907
1817,1979.3711002290377
1818,1971.0067472731207
1819,1983.2193362207574
1820,1982.6611371101615
1821,1979.3081838469632
1822,1975.6052360404215
1823,1978.3946783852102
1824,1976.6515141147013
1825,1976.2100661067802
1826,1957.6418087301022
1827,1980.4473722138275
1828,1966.9694554430785
1829,1982.4574182220717
1830,1970.031593441259
1831,1979.0663055370885
1832,1973.640902684396
1833,1984.1627530783787
1834,1981.266590478998
1835,1979.9639946379302
1836,1970.4356899371467
1837,1983.446868174848
1838,1979.9936926352104
1839,1975.1725848066249
1840,1975.6739442190471
1841,1976.4162776898925
1842,1956.60534687302
1843,1959.2697224368458
1844,1953.8652724484814
1845,1980.0518848245442
1846,1956.4750133006635
1847,1944.142445476472
1848,1981.8967333863036
1849,1960.406947560494
1850,1961.857195399663
1851,1984.8204217173707
1852,1986.8874059022444
1853,1984.6356470198953
1854,1981.4358386335953
1855,1980.6105026770697
1856,1953.2237789538906
1857,1963.9498867917937
1858,1958.4652332998276
1859,1969.4904709549803
1860,1964.6416114382935
1861,1963.972176955232
1862,1934.147158407801
1863,1959.58210080288
1864,1978.6161712506937
1865,1985.7256942934036
1866,1979.2183982334711
1867,1950.1498863881063
1868,1979.4189170507134
1869,1962.0744177577235
1870,1949.3813094211446
1871,1978.5245533192578
1872,1956.5270040979904
1873,1954.7790717604703
1874,1960.3586797745018
1875,1956.1931354168566
1876,1951.2913082854323
1877,1980.498180609527
1878,1969.1449117126874
1879,1963.939025103911
1880,1986.994669218931
1881,1968.1719812801825
1882,1981.548971775472
1883,1981.515065940457
1884,1978.9741200969409
1885,1984.8761242278565
1886,1968.396210511913
1887,1983.3473121836987
1888,1975.810775989241
1889,1978.395774482964
1890,1974.8908683904642
1891,1987.7914340978882
1892,1986.0056531729447
1893,1958.1517616102126
1894,1971.0069479070996
1895,1974.1402075722551
1896,1980.1587523061032
1897,1973.9941579596402
1898,1961.8755232222527
1899,1973.0247084949597
1900,1987.0856737122267
1901,1947.8238127069
1902,1952.6833934013505
1903,1972.496791303426
1904,1985.8213126435292
1905,1962.4907568315296
1906,1986.1574603201998
1907,1965.00999831827
1908,1970.719813115623
1909,1972.5185261450154
1910,1976.9628533770451
1911,1967.4003158433397
1912,1968.1709283843572
1913,1970.7913574634172
1914,1983.11415710461
1915,1970.3284941304112
1916,1972.7858627617218
1917,1971.5031338602487
1918,1949.9391220094255
1919,1978.8031136960235
1920,1950.8918802146886
1921,1968.641653363579
1922,1979.8428442174636
1923,1952.3400020847537
1924,1970.8235433055977
1925,1973.3731786576523
1926,1984.010445901239
1927,1971.746900417053
1928,1982.8897444533757
1929,1975.3131432562786
1930,1980.3781216425623
1931,1984.7703636440574
1932,1967.8425827075282
1933,1951.8795501687332
1934,1944.0975372092137
1935,1973.8765627689295
1936,1972.472974102166
1937,1963.882248909013
1938,1959.6854103505539
1939,1972.2358301096249
1940,1975.6001554462025
1941,1982.3069009616358
1942,1956.9978608551946
1943,1974.74307173372
1944,1962.9122301231216
1945,1966.227648793119
1946,1964.4730091487272
1947,1986.3341256054182
1948,1980.4066027450372
1949,1970.6785547660656
1950,1957.0968542886237
1951,1948.143396980432
1952,1963.3045071335898
1953,1981.3028679426823
1954,1984.3618917161405
1955,1964.9494162248595
1956,1972.2896146722978
1957,1983.229483129347
1958,1960.4505702389665
1959,1959.2475304347681
1960,1961.5885646889567
1961,1954.0270587657467
1962,1971.8793510001708
1963,1983.7444971558232
1964,1967.754182958516
1965,1973.7072690522884
1966,1979.4350322968871
1967,1964.352241991141
1968,1962.777398027847
1969,1982.2852018709557
1970,1977.6755132609876
1971,1981.9881949563294
1972,1979.7055644951945
1973,1974.1906859155154
1974,1981.7808577693754
1975,1979.955397532512
1976,1970.8398533433278
1977,1980.6471554147718
1978,1977.5208620199053
1979,1951.9354532104276
1980,1982.3724648612863
1981,1964.0997869545477
1982,1975.628070725718
1983,1969.3222389649818
1984,1971.4001291749378
1985,1979.6566562615508
1986,1973.5498975017256
1987,1967.5251284163876
1988,1965.1407115865338
1989,1943.5673942187823
1990,1976.153987537915
1991,1967.9162847893833
1992,1943.016141142296
1993,1969.2036666231038
1994,1968.8809876324378
1995,1973.2658949702884
1996,1978.2755879800984
1997,1969.404966065485
1998,1946.9437305144436
1999,1957.327028348858
2000,1966.244947989752
2001,1977.9975290914256
2002,1976.3287304698936
2003,1963.320329678354
2004,1957.3021616968474
2005,1966.9273211189661
2006,1985.4899394759864
2007,1970.5361349389375
2008,1970.5912520120748
2009,1958.480938903736
2010,1978.930945267194
2011,1975.3935777821123
2012,1984.7205121087284
2013,1970.9371673601786
2014,1957.543145485657
2015,1963.133314025259
2016,1971.0019182605242
2017,1966.1854646603153
2018,1981.0270701769873
2019,1965.5583641827138
2020,1980.7525657432823
2021,1985.6517888568335
2022,1950.9776924635296
2023,1976.3709908778435
2024,1973.9572311635156
2025,1983.5907017383431
2026,1964.354055359889
2027,1983.444371390819
2028,1974.2383901019987
2029,1962.872005009064
2030,1953.4664993984704
2031,1955.5930145244802
