,0
0,1373.8517004918986
1,1585.8110534573223
2,1590.2318801534664
3,1192.6670409805304
4,1463.515118963447
5,1071.7129934343793
6,1136.80982158846
7,1072.6843921074144
8,1555.2279947203579
9,1126.8833404337781
10,1156.028528256524
11,1128.5913724469847
12,1600.1655161156448
13,1197.8347778469918
14,1118.4793683664398
15,1593.1633387485101
16,1458.825198022627
17,1164.6524482392078
18,1470.600555845407
19,1413.9092242608608
20,1574.7689121812277
21,1489.8665058111667
22,1112.4804155522381
23,1520.3547159449918
24,1050.6263137925073
25,1141.2965610688905
26,1078.61243413485
27,1612.8025659589591
28,1582.547228720487
29,1275.671889776399
30,1070.872234114575
31,1412.3820342840563
32,1598.830951341971
33,1313.851414111289
34,1568.876529264211
35,1472.4449438179072
36,1573.8360622314283
37,1414.8847538259824
38,1538.071564433101
39,1577.708768379034
40,1059.1039677585677
41,1528.9205401723307
42,1481.6942802498845
43,1182.1956367062526
44,1489.04204718545
45,1581.0000289415182
46,1400.3887172077318
47,1215.4538158213131
48,1271.579943352666
49,1384.2104271599294
50,1149.104338789286
51,1482.6260242189478
52,1397.4031144711328
53,1507.5981638804847
54,1500.7509218896707
55,1551.2516505344256
56,1527.8419055493023
57,1538.3215478077336
58,1249.1214304418004
59,1520.581041797715
60,1572.00620060882
61,1074.9809194471188
62,1194.955669709982
63,1411.334660973332
64,1400.4912413557204
65,1504.7967999618425
66,1289.932441602997
67,1573.8518810455455
68,1482.0514470637456
69,1518.3751859627955
70,1572.422030185137
71,1250.4879852523152
72,1499.7128871529326
73,1547.8056438031836
74,1493.1898493035744
75,1421.8808261326867
76,1570.6652963834729
77,1507.9172530264175
78,1564.344070251448
79,1192.951160635462
80,1411.5074608547527
81,1256.8028123665376
82,1567.4823439883796
83,1528.7715187609742
84,1238.0854120193146
85,1569.273412672226
86,1547.5169888128062
87,1548.5137568063315
88,1412.4275554967983
89,1585.8805493881844
90,1388.3711821661323
91,1535.661841188279
92,1607.521669006067
93,1097.9475421792822
94,1556.3549802585528
95,1162.3834256827015
96,1420.7416564589566
97,1570.683658513439
98,1148.5818698803187
99,1586.4699877626003
100,1114.3311868315227
101,1586.359230833322
102,1294.3002413626098
103,1597.8881381523556
104,1142.0453002583033
105,1592.2521101575676
106,1549.11936395964
107,1493.7224015204504
108,1609.9273702414546
109,1516.2872540121925
110,1558.5217913329566
111,1310.5847305254529
112,1556.8241806917642
113,1384.8843887086252
114,1236.1215660502157
115,1508.9615159567018
116,1058.6985318803568
117,1172.1222839658358
118,1599.2063792849785
119,1142.9510782859436
120,1504.5915466208864
121,1545.5667816409496
122,1590.9018473973465
123,1052.36168686003
124,1252.080709644901
125,1024.2733696984824
126,1183.6487435729584
127,1076.3912006928574
128,1144.423177345832
129,1083.1874110678207
130,1352.68431973844
131,1121.2636962459528
132,1578.571604748504
133,1471.463803036743
134,1578.9146507972482
135,1569.8711589137579
136,1524.4234648938336
137,1331.5130392971616
138,1266.3612401945
139,1553.2694356665093
140,1298.1356325967172
141,1311.4814633089052
142,1453.494116867706
143,1103.647777948706
144,1073.8815481279933
145,1170.8312578761158
146,1476.1310981842212
147,1368.887811091692
148,1480.007196857392
149,1559.943342137656
150,1596.7408492870882
151,1185.9844853714678
152,1326.0690064855219
153,1145.3160107683734
154,1583.518458143284
155,1027.965872367792
156,1067.4492577614096
157,1531.6925167553748
158,1428.0783176768098
159,1565.161709315969
160,1085.5505788144376
161,1515.7029410310765
162,1045.7695204966278
163,1297.5431170901368
164,1518.8550713273708
165,1567.3894263587931
166,1147.6857516579955
167,1591.881870548988
168,1494.7046980557611
169,1551.1127786852342
170,1147.1818163597727
171,1562.6922397799017
172,1586.996852068026
173,1183.4473774400224
174,1496.5899182736364
175,1487.5532774200826
176,1425.6092068723406
177,1565.0186161239812
178,1520.994495062587
179,1100.1601728330234
180,1413.959798095899
181,1437.3321378315895
182,1198.8184888225128
183,1604.4561591484407
184,1089.0630134755038
185,1587.6108511837042
186,1584.762421995979
187,1387.4267820826647
188,1089.8781471253862
189,1395.9376966249074
190,1597.0866851511528
191,1507.1132971157665
192,1230.122744551267
193,1229.4099869329375
194,1620.6685298919012
195,1544.9438081551973
196,1511.2914708082883
197,1477.36622858714
198,1586.2716941760184
199,1626.13876214562
200,1553.0485426222178
201,1481.9894689029
202,1618.6752262297941
203,1113.4510952667065
204,1572.2273635653382
205,1326.483201167231
206,1597.0746614578195
207,1214.0634522813518
208,1586.6638473075575
209,1125.5876135291933
210,1601.5038901800453
211,1592.9124475201982
212,1395.9003805414018
213,1391.2306827370319
214,1348.1953546379398
215,1584.3104383382931
216,1609.521288421765
217,1249.5192359320215
218,1279.4641997162937
219,1314.7103609486353
220,1510.0737238555419
221,1564.8136581934486
222,1623.0841343288555
223,1578.8228820580503
224,1144.0240766695588
225,1610.9419324091525
226,1601.4762911618284
227,1422.2304724185674
228,1590.6892138863384
229,1149.706064364378
230,1544.8471174793654
231,1562.2956976207377
232,1259.3112981470995
233,1502.7928647409624
234,1623.9204666472226
235,1277.282820634607
236,1631.9417312887042
237,1560.059260451202
238,1273.5707744471683
239,1587.473416708606
240,1220.1111351858858
241,1499.1411080238001
242,1096.0601698575001
243,1584.8471989126522
244,1572.8117936462284
245,1145.2290493496039
246,1170.196215106365
247,1607.5557977604553
248,1326.547123380814
249,1518.1839548281428
250,1321.4469458499757
251,1136.943293965801
252,1621.1806508898285
253,1191.127212128534
254,1562.2949099549746
255,1501.2802530632403
256,1154.2422513182478
257,1607.5572096029684
258,1617.5305748855933
259,1549.3970102713167
260,1314.8487495539102
261,1091.8037335645424
262,1352.9463308468669
263,1125.2972198340087
264,1568.6715596944277
265,1595.8321552100092
266,1263.4610480181047
267,1445.8447202416983
268,1101.8768516125756
269,1613.1280852050636
270,1600.329106532261
271,1516.7419949812527
272,1439.2072673969926
273,1370.197958689772
274,1530.691774610565
275,1096.4230597607836
276,1080.5059350006243
277,1086.442643891747
278,1081.6408778621064
279,1587.685346948971
280,1239.6452833912015
281,1103.7000627121597
282,1623.484690912365
283,1539.5097289187124
284,1352.5119783673144
285,1603.7539646373193
286,1220.486048393578
287,1252.6598267122602
288,1067.3808162184037
289,1065.9220390632947
290,1418.52804882851
291,1492.6231606925444
292,1160.6556508352644
293,1544.2465592895637
294,1084.5974674882077
295,1286.8567197832897
296,1315.7747559691568
297,1609.622682720242
298,1581.6661364625816
299,1375.0581607483393
300,1140.6330991649324
301,1468.9225223272745
302,1455.3303487550781
303,1542.7260033797131
304,1601.3826161397303
305,1113.8990152165334
306,1174.7224522193326
307,1173.121871581405
308,1463.824797876957
309,1324.6357833951602
310,1592.9193340643394
311,1596.7632683495578
312,1106.9950961520415
313,1465.987389942104
314,1363.8621613707135
315,1425.4510777545079
316,1597.9054470265949
317,1135.4156525259664
318,1178.1414769693135
319,1596.2883239275898
320,1576.2515774845208
321,1517.4385740039543
322,1585.1148604916493
323,1573.3703487667403
324,1525.1844557789586
325,1553.7195686510338
326,1609.0225503068416
327,1587.8787905659708
328,1495.3836851537521
329,1528.3801198904996
330,1570.2440624180178
331,1571.647468580607
332,1600.555675591455
333,1496.4156283840584
334,1488.0230019557125
335,1564.3417584216575
336,1440.4635663192614
337,1074.2867470820458
338,1095.099201479965
339,1559.7421871222027
340,1619.828970717773
341,1174.9472501709274
342,1596.3721451153115
343,1582.9008435195194
344,1183.0218448131336
345,1358.3261044912226
346,1495.5987879831298
347,1484.4963624733014
348,1447.0218551366345
349,1482.1195889372154
350,1426.150391148337
351,1610.1549157800393
352,1531.155527166902
353,1137.8724375009704
354,1485.1822949364755
355,1249.485689096839
356,1288.7951164223941
357,1465.1532030360895
358,1603.8221770552245
359,1329.108089943389
360,1523.4479043416013
361,1364.1773104175938
362,1342.3500640437
363,1617.8600085564824
364,1321.0470051980283
365,1570.9376556354691
366,1218.0123246564015
367,1166.275600754424
368,1604.6643618307019
369,1432.491847401326
370,1586.4326852013978
371,1625.1753496449871
372,1412.8749311789734
373,1518.9974522638463
374,1593.476761158385
375,1161.3228763211148
376,1604.3099490521115
377,1284.6245850377834
378,1129.4350821239707
379,1594.1501850024115
380,1327.2428826899593
381,1546.3181590977294
382,1607.9022570203529
383,1604.6296227264434
384,1625.3680265183737
385,1459.2500929129492
386,1575.4006129762345
387,1621.396727180727
388,1577.0102801195078
389,1629.1098401622369
390,1628.310382950308
391,1459.8299970062956
392,1627.8959662994932
393,1567.604999862679
394,1102.39322125765
395,1151.6868352507047
396,1518.3742958395972
397,1579.8801049129368
398,1348.5077972427296
399,1630.664858357478
400,1342.907813799149
401,1164.6759363230035
402,1594.9870348611196
403,1258.3357692609131
404,1113.8368501926902
405,1142.068692517048
406,1552.1552658575858
407,1502.792503430593
408,1475.3945184516463
409,1267.185474316402
410,1172.3245791034285
411,1129.3840796117224
412,1623.2415575824948
413,1620.8048257954638
414,1616.8592306954806
415,1603.6464116999186
416,1455.2097636375024
417,1640.386838255087
418,1209.5940553288094
419,1580.7501943729515
420,1466.6431834733987
421,1147.736661788097
422,1476.9264683042857
423,1159.1421485246424
424,1608.3354612279334
425,1610.0269598708128
426,1506.7543231249456
427,1469.1098611425853
428,1519.3619270466368
429,1258.5373529365459
430,1102.2308159192773
431,1629.6764562038081
432,1136.8993097280218
433,1440.4867228554858
434,1611.548697358032
435,1495.7274173069516
436,1625.9804746655157
437,1630.9539004375524
438,1632.0819876753885
439,1395.7885345372786
440,1514.9916312323946
441,1610.8293739600765
442,1500.4260841278128
443,1390.2014155924785
444,1147.490049238064
445,1156.9566083463787
446,1591.8727543619875
447,1600.3544015685259
448,1615.8689022166686
449,1632.603506203581
450,1537.4257360673766
451,1590.5820121056229
452,1583.8345856288952
453,1527.924064406096
454,1171.9056230095625
455,1394.4011894974083
456,1623.2819782887736
457,1241.1970218139554
458,1633.3820328777733
459,1599.8457636508094
460,1447.1767965294791
461,1315.3358170343008
462,1613.450569737801
463,1615.748028229909
464,1231.5141200539904
465,1190.1381056360187
466,1119.7768161669292
467,1326.0591775998207
468,1179.0621150788277
469,1284.7231941404998
470,1340.73295617439
471,1603.670673696386
472,1625.9053236769696
473,1159.145109313403
474,1496.2573961626324
475,1162.0571079090992
476,1634.5433860022601
477,1612.248589673487
478,1451.4449385380867
479,1642.8280190912744
480,1637.609682834765
481,1171.7853045113272
482,1506.8157185020634
483,1131.482538166918
484,1266.7603814284885
485,1457.8587995684984
486,1630.9794890139106
487,1594.559837497169
488,1545.3774022157786
489,1576.8603590081075
490,1561.945639577573
491,1639.69389057087
492,1431.3537989601973
493,1156.292953430279
494,1635.3666410103283
495,1509.7072622025664
496,1243.385116782788
497,1246.0595201047133
498,1600.5635520000028
499,1183.4173797948638
500,1594.3353915224209
501,1631.7118073372667
502,1561.9354705774294
503,1634.6264647487722
504,1134.7137979177492
505,1642.630202018482
506,1222.6792904837648
507,1299.9472461903752
508,1423.1115789134278
509,1643.4032033598246
510,1167.673706416841
511,1655.7387310560978
512,1401.9912232795336
513,1505.8732730356662
514,1658.296402445028
515,1191.1188077336028
516,1562.6339300046416
517,1654.218017352606
518,1264.4083696599503
519,1220.4918462277417
520,1621.6113330174064
521,1593.8579827997555
522,1385.8387240406419
523,1628.9126226710391
524,1619.3945384783333
525,1562.9749027232808
526,1220.334506981816
527,1520.205418029513
528,1629.268307969029
529,1506.913971538852
530,1619.2872719254465
531,1466.8313031914902
532,1541.5007459751562
533,1617.6823096620644
534,1621.9615655784519
535,1652.1873954613893
536,1558.7446390461678
537,1269.6651028248718
538,1646.7350974827948
539,1656.5616559079897
540,1555.982175129788
541,1621.8320288899847
542,1640.4776202233459
543,1413.6422868913467
544,1545.125457302464
545,1533.7310321080172
546,1655.579831401428
547,1604.307002529136
548,1623.9982542638393
549,1507.0846552364862
550,1307.3490312813378
551,1618.5776329755286
552,1664.3096275705775
553,1655.260325806199
554,1660.5341333018077
555,1536.1811451670958
556,1631.1969508258055
557,1515.865358977944
558,1639.5802530682358
559,1602.0176113475165
560,1233.846350297963
561,1269.3779496784716
562,1624.253461965591
563,1278.389534585519
564,1636.5546868411338
565,1192.4346860234984
566,1651.6424493527293
567,1243.208739596915
568,1225.0750120114928
569,1230.04791239666
570,1657.6510944834963
571,1577.958207051363
572,1630.091712109291
573,1601.1045509219928
574,1274.0297158619016
575,1645.1355703653064
576,1653.2557959215187
577,1655.8210007774528
578,1303.1767970448993
579,1510.456038822753
580,1633.8015903609032
581,1428.654488753051
582,1321.6547774707549
583,1647.155655427525
584,1513.5123455923595
585,1622.1266600773636
586,1636.5066549048363
587,1653.0858428218432
588,1397.1837295706023
589,1241.5128228881554
590,1543.007118156547
591,1232.383037671758
592,1205.1079580714093
593,1636.9491349563134
594,1314.736942831154
595,1222.965084855451
596,1483.658229983177
597,1208.366593033218
598,1289.315014748753
599,1242.6312625487515
600,1301.6825273898678
601,1399.5241324572887
602,1652.6498334622247
603,1498.4701575695888
604,1641.0167720505033
605,1354.8708220597791
606,1661.29009438661
607,1536.442949648659
608,1613.7231508914506
609,1655.501223755046
610,1619.5385055111158
611,1560.4247396824474
612,1513.5777755749402
613,1676.0680967501503
614,1663.3369691442683
615,1676.5962154984668
616,1327.840089138429
617,1650.8178002178631
618,1626.1701432694244
619,1651.7403104718476
620,1652.3402400923883
621,1571.056027519159
622,1483.8215913705837
623,1393.0271380883983
624,1422.4432746416817
625,1644.570439603381
626,1639.0803821856744
627,1538.5142167384363
628,1227.3324300001118
629,1659.4888616606631
630,1397.3246851337474
631,1655.2310235886243
632,1570.2677572061557
633,1645.113861569996
634,1247.06473581959
635,1662.9057858552335
636,1565.3155625522934
637,1447.027940086195
638,1229.1240993817016
639,1444.9179522099844
640,1368.9604192932582
641,1209.47534209248
642,1252.6807522178058
643,1664.256489785719
644,1272.6154327210825
645,1222.6481839739556
646,1582.876279116917
647,1568.4608696975174
648,1524.144367563041
649,1234.0104737396293
650,1672.445139484228
651,1643.1736138014344
652,1648.7702627327483
653,1476.8753182742703
654,1366.7386945050068
655,1571.0794965595874
656,1670.4254038302872
657,1603.533191870681
658,1670.5494580586694
659,1447.9012659372756
660,1419.4756159995136
661,1544.0419420700293
662,1678.6865319473482
663,1584.925801734175
664,1555.7474975721339
665,1684.4868178381769
666,1533.9180207594743
667,1611.5329332529534
668,1588.8503753619798
669,1630.0047282428063
670,1482.545787813874
671,1648.6928417815452
672,1292.9453805376186
673,1664.5302931667745
674,1454.4068941174014
675,1622.1594941612134
676,1646.753140429628
677,1398.6316172023978
678,1561.7042352042185
679,1606.60375696365
680,1585.4534295949613
681,1575.340874401465
682,1411.5088244365884
683,1525.974643933873
684,1523.2511018237722
685,1286.766865003597
686,1606.5071083066207
687,1539.1328285491252
688,1684.3051265447398
689,1479.1863401101932
690,1637.658862975477
691,1297.8895763639528
692,1640.0327925741435
693,1515.6212377677693
694,1267.4830140450729
695,1355.7193743786625
696,1649.672612121842
697,1663.649179479872
698,1671.6691033084946
699,1306.0286586735544
700,1270.2008136564125
701,1595.957642875058
702,1654.057262261191
703,1532.1449243019815
704,1645.9506794229505
705,1553.3227524103106
706,1666.8603490929347
707,1667.5422503560308
708,1384.8238415364285
709,1645.1583727119203
710,1263.483893187748
711,1340.499941813214
712,1659.8362086069392
713,1548.7843465291169
714,1302.0949960122211
715,1297.4318115452713
716,1566.5604253806596
717,1536.0829632662087
718,1679.7374894516095
719,1472.871454165916
720,1341.9642840624294
721,1321.2962361591667
722,1397.3980116116372
723,1556.8261691802443
724,1308.0294468886214
725,1597.7426462332185
726,1663.3656289122273
727,1365.4559223322171
728,1257.289582937285
729,1224.2849896910068
730,1305.6049174687594
731,1262.8421443500092
732,1667.8011696982164
733,1614.773887334416
734,1609.23563693414
735,1385.4774670618333
736,1340.587908670658
737,1612.7723216174354
738,1214.7742883216233
739,1597.193945498932
740,1380.8882805386181
741,1247.589848466406
742,1627.5737356762468
743,1313.9212355564923
744,1255.0156858238931
745,1432.5279125708958
746,1523.7328467697423
747,1367.7600337865726
748,1650.2554176605618
749,1664.0114361163803
750,1235.3593779055002
751,1663.9118293294775
752,1615.4966277971564
753,1592.5703394801906
754,1624.2466211077926
755,1520.3243793359254
756,1274.8469238347059
757,1459.2692519768452
758,1226.7537268760925
759,1465.085004532458
760,1625.5685047049112
761,1672.362123433311
762,1470.9458527344993
763,1353.1785204914815
764,1655.331624448332
765,1260.062794719351
766,1356.1291985918908
767,1676.5744790314939
768,1415.1865094291604
769,1682.87989928575
770,1664.2086765655197
771,1303.263388531304
772,1613.119369697604
773,1263.287116006476
774,1313.3798206730335
775,1579.8240021386714
776,1667.114648275391
777,1256.3130153100071
778,1249.3074257199528
779,1624.7895494707986
780,1683.3999665789124
781,1312.398967540234
782,1362.9791134354043
783,1508.8754516390215
784,1254.1591996136717
785,1551.235019303117
786,1679.150065311195
787,1628.9111247858316
788,1526.8000413662032
789,1371.4042457027463
790,1409.4930520195715
791,1622.1740429214171
792,1552.2128495489912
793,1255.1861816184903
794,1538.9196039862325
795,1644.8750507944285
796,1608.3246344995916
797,1555.329375648475
798,1463.6623438395736
799,1665.8230137892833
800,1600.4202804584759
801,1648.5183572629212
802,1692.115079575631
803,1250.0908059244798
804,1630.264830008869
805,1622.2089952026317
806,1546.8156611892205
807,1624.35787772142
808,1600.7493199244398
809,1296.4945059595257
810,1684.4797946039648
811,1372.6793448330893
812,1418.6311578986706
813,1676.819433894439
814,1243.932766639111
815,1410.8095312077687
816,1666.3451499311282
817,1677.6094444810153
818,1661.740890695073
819,1686.5504026109704
820,1545.6818837966518
821,1318.144583540018
822,1320.0949141536125
823,1321.240052161441
824,1676.1822851542242
825,1647.8608644863125
826,1670.7589022225577
827,1580.7684348258713
828,1401.2957636714443
829,1638.1233598114256
830,1668.5930092493102
831,1269.805175168052
832,1342.3691672819577
833,1610.4253241924482
834,1384.814537691925
835,1665.1755900462808
836,1267.6751886960844
837,1644.3781918031966
838,1590.4300559771702
839,1474.298501477378
840,1262.3318973615596
841,1285.7503068007868
842,1274.2790119501758
843,1557.1510762098812
844,1687.1961421563233
845,1407.2523755817829
846,1585.4074270668066
847,1633.0703115600306
848,1356.5216735902807
849,1681.6045090516232
850,1643.3488662884042
851,1393.0440636238257
852,1692.995458574775
853,1253.1239409908924
854,1438.7247191237375
855,1688.2687120515202
856,1538.620658608179
857,1580.6246872252593
858,1518.7056130524227
859,1319.4837138856642
860,1313.2216848073804
861,1386.1651606249886
862,1276.9763881708702
863,1390.5880554939747
864,1637.7542086407313
865,1453.1032809799733
866,1683.2206827920302
867,1533.3200374877194
868,1612.4663266118648
869,1370.118136886288
870,1264.4849148479834
871,1682.5211101244993
872,1682.4092942136197
873,1691.8244735427513
874,1680.62694004128
875,1464.4645133006575
876,1456.0414454706759
877,1684.2015862868475
878,1616.2621058201714
879,1281.6023097107286
880,1679.7781153357862
881,1694.1233171808021
882,1677.2883619141203
883,1611.864042028904
884,1500.1350314940598
885,1422.7787196010133
886,1322.9711949374882
887,1571.2077312870565
888,1279.3391627888277
889,1682.3408648673221
890,1651.9164154234732
891,1413.7312070442977
892,1587.9814503506025
893,1677.3465532147195
894,1398.8440407778137
895,1692.3606481280658
896,1591.3128541711567
897,1525.5919073299235
898,1476.2496246804092
899,1300.886785074463
900,1433.304540741331
901,1511.7336644892384
902,1658.9888151832188
903,1629.26668119598
904,1692.8331103525575
905,1676.303688156709
906,1253.2988172132707
907,1441.9804628869113
908,1489.4752538543937
909,1314.1536592863765
910,1358.3536853928088
911,1535.0692306078756
912,1415.7295692423631
913,1348.1404072464948
914,1390.4556799798506
915,1279.6264544178416
916,1596.7885591112886
917,1694.874706573676
918,1458.1019411207849
919,1643.0979115011141
920,1307.6492291470663
921,1291.1405681884548
922,1578.6559537367434
923,1695.531110293667
924,1679.2955143445756
925,1686.7769048898333
926,1568.912420322928
927,1478.725937343879
928,1305.142237131643
929,1626.5715480900544
930,1389.5583989297081
931,1662.3797454764035
932,1690.6632997864144
933,1664.3802715461443
934,1663.865518238735
935,1639.8570203827137
936,1681.123009176712
937,1339.3765354316388
938,1395.1242140936217
939,1615.0605880410858
940,1288.9722604557771
941,1697.0636791039437
942,1685.7387680816541
943,1700.4810853874917
944,1603.2817858287578
945,1594.986559793883
946,1647.6724127451137
947,1529.625756281014
948,1323.8789560513376
949,1571.5644360428712
950,1627.8083767285007
951,1672.0502580795776
952,1375.6475260021175
953,1599.7649690963594
954,1587.6575575817803
955,1562.4629115946104
956,1463.8043611734429
957,1654.2488744982697
958,1524.1989069084389
959,1604.4173433530268
960,1611.125359461315
961,1429.4511644746826
962,1513.7248465434138
963,1335.7847058705495
964,1682.907970664117
965,1657.3669766249795
966,1669.9472775012302
967,1325.4182089280037
968,1635.4005300970043
969,1630.9867141040788
970,1591.0200957075133
971,1323.6860242020068
972,1353.579995246843
973,1682.411428416564
974,1588.9891393318512
975,1440.536997378123
976,1587.8501830270245
977,1600.4866716363272
978,1484.7887106728383
979,1687.2264298532496
980,1680.6096009450885
981,1309.334594194797
982,1319.7459412681294
983,1499.8305950003491
984,1323.8644399694474
985,1701.065097174869
986,1461.8793430591409
987,1333.1103868976418
988,1392.2685497749035
989,1559.1653141920601
990,1347.998153319801
991,1436.0277823267809
992,1392.7368554158115
993,1607.440614990049
994,1599.0694406508185
995,1280.083322582783
996,1694.9258031142401
997,1491.445450109473
998,1694.3069686219935
999,1541.6627273975362
1000,1444.0185478699887
1001,1679.2616806553588
1002,1409.871259042716
1003,1317.1860494958837
1004,1399.211774844132
1005,1690.7775848392569
1006,1516.7102633770476
1007,1695.4264662158682
1008,1554.048848428547
1009,1384.5307871221794
1010,1584.5799889092273
1011,1259.7009208606341
1012,1476.7342800143547
1013,1689.6976228349238
1014,1673.2455618870724
1015,1607.8356458920218
1016,1559.8799456484828
1017,1514.6842845733436
1018,1626.4749749466614
1019,1689.2326375788684
1020,1640.2431938519646
1021,1696.3901142103682
1022,1419.6368334741417
1023,1420.6049158049975
1024,1596.248424451892
1025,1666.434837081945
1026,1406.913749755565
1027,1460.6701536165117
1028,1392.7610137100764
1029,1640.454327589556
1030,1673.01884300993
1031,1319.4914897359615
1032,1670.3852760698132
1033,1390.8281024439825
1034,1336.7300617559424
1035,1685.6622476221364
1036,1307.1735682429398
1037,1282.2263002731677
1038,1624.596713319096
1039,1676.0121779464891
1040,1616.0974599166962
1041,1380.482195367499
1042,1608.3402145520447
1043,1284.9702980737313
1044,1639.8623526759025
1045,1325.3551089998732
1046,1670.0862876505041
1047,1602.2365620076262
1048,1673.6666376502128
1049,1673.7420192306163
1050,1642.6288966696143
1051,1693.133920790061
1052,1416.4396340284184
1053,1494.3570229120712
1054,1447.3090433938528
1055,1581.8850592991791
1056,1620.1940177089284
1057,1663.933134335839
1058,1284.0444445632004
1059,1482.8210099124917
1060,1689.3229137618011
1061,1676.6090044561258
1062,1594.94401839149
1063,1682.1995900789032
1064,1639.211604857748
1065,1658.9073218210874
1066,1340.4928725831496
1067,1690.3155129146237
1068,1391.232413991056
1069,1641.808762471959
1070,1459.0588555627603
1071,1703.857690394183
1072,1606.4171108324329
1073,1292.902915777483
1074,1436.5774146133397
1075,1568.8673727954567
1076,1558.7705181080546
1077,1341.9583766995268
1078,1652.5186019783432
1079,1568.6695653697532
1080,1444.2977830172117
1081,1614.7763115752869
1082,1564.6804490117865
1083,1520.7296570256672
1084,1659.115645172891
1085,1653.5681815700575
1086,1631.1994712987075
1087,1466.0806610162947
1088,1354.3597649307278
1089,1701.4080049124868
1090,1385.7755516259876
1091,1607.0576281064598
1092,1623.3620354758293
1093,1677.0705799057116
1094,1675.1439711871556
1095,1480.1501087165852
1096,1362.0654709435614
1097,1638.0808604418894
1098,1617.3344205223004
1099,1540.468684606755
1100,1299.6022109644493
1101,1389.780549997623
1102,1490.628904622387
1103,1314.2924498036832
1104,1292.5343499568394
1105,1561.7369071168637
1106,1405.1731068969505
1107,1570.5963429671885
1108,1680.965599284507
1109,1678.5401087266484
1110,1679.0721887269608
1111,1497.5407369988766
1112,1691.2345512612806
1113,1702.0180223735501
1114,1689.777188428788
1115,1694.226344618439
1116,1590.1210255341537
1117,1624.4912076455166
1118,1503.1724376702473
1119,1468.5290501802383
1120,1584.8973812161885
1121,1496.8690631599623
1122,1497.4202029042797
1123,1480.1765662702685
1124,1363.841755343679
1125,1543.1335931422705
1126,1509.3846540285494
1127,1323.3161215218634
1128,1592.07403138612
1129,1384.250142934471
1130,1456.842467848183
1131,1333.3956475802038
1132,1367.7089275569715
1133,1296.5527923002348
1134,1596.152448695955
1135,1330.1521412335685
1136,1554.1573489657249
1137,1562.6204276250257
1138,1560.3891564904118
1139,1540.988982926704
1140,1354.780845505401
1141,1627.8527519327251
1142,1619.4767374602025
1143,1540.31546126619
1144,1545.818316653967
1145,1429.250173712062
1146,1483.5915666522403
1147,1280.7192667494107
1148,1567.1036454222726
1149,991.6765145356713
1150,1128.2591023091225
1151,1193.3599432333833
1152,1001.6985367804213
1153,1117.885225186638
1154,1085.225578176387
1155,1519.101698795305
1156,1105.7019749873446
1157,1546.6307418630297
1158,1041.8644727750388
1159,1232.0663345372943
1160,1036.9432634695318
1161,1020.6949414543843
1162,1536.790549650558
1163,1442.926584244702
1164,1433.0905410964651
1165,1499.2123863579666
1166,979.949559908905
1167,1470.2995001329848
1168,1496.749980622847
1169,988.3196762133463
1170,1196.8036169831137
1171,1446.6889925481655
1172,939.9428661001759
1173,1523.1199732592522
1174,951.5145919211312
1175,1500.9031574691614
1176,1146.9885404052034
1177,1300.5997601513627
1178,1031.3459580099664
1179,922.0469622708051
1180,1523.9469455759795
1181,1160.9056416240269
1182,1444.0461417142583
1183,1040.4000727943003
1184,1019.1723365974293
1185,1178.9184246935154
1186,1542.1988403006014
1187,970.3235836711751
1188,1506.4068357166448
1189,1355.9030023888065
1190,1433.5357198824568
1191,977.034741763285
1192,1235.7885948913486
1193,1483.912598089566
1194,1400.3194566389627
1195,1448.9912338860418
1196,1467.388927651132
1197,1486.8284418571113
1198,1162.569118414594
1199,963.8238613229458
1200,1498.7050671254517
1201,1363.915581158469
1202,1276.4019144127542
1203,1427.851927085168
1204,1427.2611797814911
1205,1023.3973550846421
1206,1528.9843728595852
1207,1064.7032400223939
1208,1524.1058136264446
1209,1482.7162326605446
1210,1523.9958078241498
1211,1369.1095221763749
1212,1505.6344584316023
1213,951.85171915228
1214,945.9933582519844
1215,1179.0127354113442
1216,1014.4184035091558
1217,1184.9613517058185
1218,1442.345124592315
1219,984.6215537944977
1220,928.2999588548112
1221,934.3124576165848
1222,1231.1089886091581
1223,1496.4349096972417
1224,1506.6542202057667
1225,1023.6270414119294
1226,1068.142337319508
1227,1518.2286533177949
1228,1477.9914214976727
1229,1483.9162030045586
1230,1263.8534254708652
1231,1505.2159489968724
1232,1518.6841790788915
1233,1506.1811663018777
1234,1218.682375633223
1235,1379.9577678908217
1236,1538.351442954355
1237,1543.7814069816116
1238,1160.9672921294139
1239,1035.359849519979
1240,1532.1555233730965
1241,1516.0653059207484
1242,1392.3183217452456
1243,1253.4119595152745
1244,1445.7296567388817
1245,1533.636872036716
1246,1519.8039632346556
1247,1488.0064930379433
1248,1096.3040159282793
1249,1443.2688364229343
1250,1039.5327025505726
1251,1526.6922253801554
1252,1447.0179754498915
1253,1236.7559328913367
1254,1501.1107069854734
1255,1030.0384561886513
1256,1475.60174487732
1257,1287.5762698023475
1258,1162.1604770346412
1259,1524.481957199296
1260,1447.880638120108
1261,1470.5619933681376
1262,1525.9620088407407
1263,1486.1972414911045
1264,1284.2003182248118
1265,1443.6834172284155
1266,1519.0526509922456
1267,1391.1094265871698
1268,1518.9907541388088
1269,1360.1313413293533
1270,1502.1459373759208
1271,1346.7988813800573
1272,1520.538167746167
1273,1087.2928073109445
1274,944.3465590845582
1275,1203.7263873728546
1276,1514.623017107792
1277,1497.2745472745405
1278,1207.1286283444597
1279,1497.7661510099479
1280,1496.3459516930557
1281,1204.9632346977187
1282,1489.8445791158526
1283,1177.7837299512041
1284,1336.6870308956736
1285,1452.2161140259905
1286,1437.6106947052267
1287,1478.831993313092
1288,1328.7590671442938
1289,1465.8348242010009
1290,1091.3597733131896
1291,1488.2095065905767
1292,1271.5311056274286
1293,1332.2751037136793
1294,972.4718572055731
1295,1502.2726583829997
1296,1506.2386347387328
1297,1535.151480554261
1298,1501.5436986894354
1299,1413.4215145705637
1300,1256.0190330009054
1301,1365.74658493784
1302,1397.4747413238122
1303,960.4093791120738
1304,1066.4414626862078
1305,1275.1525685016752
1306,1230.5145503416672
1307,1311.7728332394415
1308,1265.664609459307
1309,1311.9306751861839
1310,1627.4262147309278
1311,1448.010963876296
1312,1672.318722857694
1313,1601.7342932817342
1314,1481.7390725186654
1315,1673.3121987529269
1316,1657.7446220890504
1317,1691.438947056992
1318,1401.5936491835541
1319,1265.4610760251774
1320,1325.1696606947507
1321,1522.9535919064035
1322,1335.5662493745315
1323,1481.407691228403
1324,1444.3664121477739
1325,1645.995037852198
1326,1306.7185975804002
1327,1426.0667948997068
1328,1302.3308515183567
1329,1684.9045130409029
1330,1264.777850354935
1331,1576.0190788397413
1332,1678.0544166025845
1333,1539.3070850883855
1334,1416.9509579830985
1335,1502.438917880322
1336,1292.8284831825397
1337,1619.270912329198
1338,1657.9125538791725
1339,1512.48910296189
1340,1618.7712236718328
1341,1534.5687212420712
1342,1663.1129105794562
1343,1317.8583041657712
1344,1576.4863608593607
1345,1689.056651880154
1346,1669.2976788354615
1347,1339.9768008252286
1348,1651.3139565976526
1349,1657.2914813360937
1350,1335.3188876293896
1351,1671.6662579994372
1352,1470.5451295621492
1353,1676.581269538518
1354,1587.651006221775
1355,1635.9129639703574
1356,1618.4667653019826
1357,1022.4561392701443
1358,1461.8398350920854
1359,1431.823557007439
1360,1015.8940462277507
1361,1495.0618454602488
1362,1556.7537011774914
1363,1297.6674253591748
1364,1525.4486720091863
1365,1052.3305264765384
1366,1549.5788766791804
1367,1321.7084746674736
1368,1420.9755947198198
1369,1277.1650047599674
1370,1465.0249844707705
1371,1019.6083267422725
1372,1508.259223478995
1373,1355.1079215447455
1374,1456.7254522627134
1375,1530.1730497060746
1376,1459.9123342782098
1377,1433.0338636025842
1378,1521.1104741783515
1379,1371.5903452712598
1380,1472.569799512354
1381,1466.3562385647863
1382,1495.5457760749512
1383,1420.6739684629304
1384,979.5281659735615
1385,1505.0989437445405
1386,1510.0572913185504
1387,1499.2825229581529
1388,1439.5853262066162
1389,1456.8948845919442
1390,1307.4151856731653
1391,1482.0413363876712
1392,968.2136765344441
1393,1120.849859563827
1394,1337.297041154492
1395,1438.4112130392002
1396,1192.8493204865358
1397,966.1919433914111
1398,1428.252999559348
1399,1128.254409981872
1400,1518.6289353510979
1401,1198.8019084851662
1402,1513.072294084157
1403,1374.1360297419453
1404,1120.2782019573156
1405,1222.7703155927159
1406,1424.98853833398
1407,1133.2173347223682
1408,1515.9432573667536
1409,1500.905743651953
1410,1468.6795770341032
1411,1082.9364269055768
1412,1308.7247630847485
1413,1355.567301941479
1414,1460.4319963983721
1415,1502.5895365224155
1416,1452.4500455765708
1417,1527.3740608364074
1418,1502.7755544626957
1419,1233.4982382928665
1420,1292.040437510119
1421,1419.6739881171734
1422,1523.578080350442
1423,1520.716584172289
1424,1507.5257309410304
1425,1515.9818399088797
1426,1411.6873988642162
1427,1525.8142599566813
1428,1080.0165127774314
1429,1495.8411599227206
1430,1370.836983804178
1431,1008.6444473328972
1432,1169.3136077705901
1433,1509.5912232558685
1434,1239.4175424553684
1435,1357.5307726437977
1436,926.5363183388121
1437,1380.7858518796345
1438,1437.9901481045492
1439,1517.9460699182894
1440,1484.2485260749047
1441,1249.658703688161
1442,1098.4321872014646
1443,1434.2255807828737
1444,931.7976124678084
1445,1281.2656048054284
1446,1502.0528778865935
1447,1532.484368934437
1448,1279.433236299646
1449,1415.976192436482
1450,1502.5490023082557
1451,1519.0002375869003
1452,1189.4485907470416
1453,1308.4931011074411
1454,1538.5179530802932
1455,1282.3455386987018
1456,997.5665908493353
1457,1502.6499056491796
1458,1092.5757510068293
1459,1512.1808825788985
1460,1536.2308295312891
1461,1257.6215148340214
1462,930.386842490279
1463,1475.9241761866058
1464,1399.1483221970964
1465,1469.2392037454692
1466,1443.9497754521394
1467,1004.7913633418409
1468,1238.3204504395662
1469,1428.08865571654
1470,1482.0176214181697
1471,1447.5337277512403
1472,1519.961050962538
1473,1380.864281428751
1474,1247.6734558565486
1475,1289.0343111480781
1476,1470.8172791082598
1477,1507.9384574501853
1478,1137.7472144007509
1479,1032.2065032148892
1480,993.3456733163702
1481,1540.9507396042568
1482,1402.6419007665663
1483,1494.9366748551397
1484,1464.816287087107
1485,1518.545062696135
1486,1214.4109819125417
1487,1267.4167949672615
1488,913.0133955758142
1489,1219.7264935204587
1490,1017.187081405865
1491,1258.589219526572
1492,1451.6666996945385
1493,1499.3607433493087
1494,1259.3310950056818
1495,953.4231607827709
1496,1368.3062253878916
1497,1382.1979708848423
1498,1535.0467226542846
1499,1494.7244675051631
1500,950.4103214178117
1501,1384.3746522906872
1502,1493.522432810378
1503,1407.2506651143651
1504,1266.61400546881
1505,944.7729160845743
1506,1423.725053729728
1507,1454.4201147553608
1508,1464.0976111750244
1509,1273.838138572516
1510,911.8846005893888
1511,1498.778878026659
1512,1013.310541554179
1513,1453.0097548089452
1514,1504.254411914148
1515,1417.447400021555
1516,1531.7186312768856
1517,1482.762097939701
1518,1518.0264417956428
1519,1450.4847499771697
1520,1353.3163720368082
1521,1537.0786378026785
1522,1525.488675183755
1523,1047.6640968354682
1524,1508.9213833054773
1525,1415.8538193230604
1526,1473.44494176226
1527,1483.8277426882953
1528,1060.0867112772323
1529,1555.3476171221455
1530,1550.153557508174
1531,1540.1713474991832
1532,1577.6496664804233
1533,1046.9294693157099
1534,1585.9877801869288
1535,1527.779457718278
1536,1579.595014248383
1537,1570.3537444761155
1538,1477.4266518397446
1539,1449.3140688503404
1540,1360.3378663443184
1541,1536.6107937259621
1542,1571.550600793783
1543,1554.5062285423794
1544,1551.1055460947423
1545,1515.334213523301
1546,1425.21872820711
1547,1561.2028825014766
1548,1517.7141269968843
1549,1575.1622242616058
1550,1031.805389025506
1551,1542.6343874930963
1552,1557.2306120505118
1553,1502.3404245990057
1554,1423.2722553689634
1555,1550.9475063102248
1556,1027.2817627115332
1557,1366.481837435668
1558,1235.5236980315833
1559,1523.1213760431424
1560,1520.6052253086984
1561,1214.2609967102053
1562,1161.3271334568758
1563,1527.1473806805297
1564,1460.2910963119893
1565,1419.7957556191993
1566,1526.083616111917
1567,1529.9678214115509
1568,1479.9976705276927
1569,1014.8938798068176
1570,1049.2388333006325
1571,1452.719159220049
1572,1527.1222514651581
1573,1393.456525876198
1574,1541.839684117101
1575,1196.4275560167353
1576,1490.5285574577108
1577,1064.2226850583165
1578,1358.6771680386266
1579,1513.8605222165538
1580,1096.451832172152
1581,1027.4229972220282
1582,1396.6129003688313
1583,1528.2880469357874
1584,1506.132412857403
1585,1034.4904692579876
1586,932.3881487405969
1587,964.5255356311137
1588,1284.4984293134141
1589,1538.3751366740853
1590,1530.671592231107
1591,1275.378725248144
1592,1186.8850873344284
1593,1164.167541123038
1594,978.508751574482
1595,1530.554193905883
1596,1510.3371712283474
1597,1530.3272597079338
1598,1518.678727760831
1599,1325.6115236725366
1600,1261.557808965106
1601,1498.3386271736201
1602,989.9482503787667
1603,1431.9831068839353
1604,957.3892804431704
1605,1526.8550532588079
1606,1532.2231198020595
1607,972.2754316734121
1608,1476.373798173255
1609,997.8871931906847
1610,1508.1082143149501
1611,1546.959267832106
1612,1515.750521965574
1613,1526.9683362494748
1614,1189.023465966742
1615,1109.117060875326
1616,1279.7951736264406
1617,1097.7927266974475
1618,1198.8249565238934
1619,1349.658394960925
1620,1549.8514632212016
1621,1421.897371410139
1622,1517.3755875270615
1623,1546.9027471020322
1624,1489.1217930935238
1625,1332.8869182030157
1626,1244.564258507633
1627,1499.246643769447
1628,1359.7095224927518
1629,1515.0355381988336
1630,974.4357327811603
1631,1003.6482540764771
1632,1331.7813036485466
1633,1141.8298825859883
1634,1420.868960100519
1635,1500.7167529673056
1636,1259.5166264710142
1637,1546.0388681390243
1638,1534.912666937524
1639,1411.5173848315812
1640,1135.9566487590946
1641,1276.9720094350687
1642,1378.8753248990788
1643,1402.5085368919122
1644,1522.6199220988344
1645,956.7172176850105
1646,1544.8130271756886
1647,1124.7581778718472
1648,1106.498371135085
1649,1234.450915750554
1650,1218.729051486908
1651,1532.2023389244375
1652,1515.4215967262328
1653,970.2093000719149
1654,1456.7061616647547
1655,1104.8269682279679
1656,1146.8708681003627
1657,1403.8583604502621
1658,1548.8737615693285
1659,1477.2707071061984
1660,1325.5486720678077
1661,1225.082474600261
1662,1451.0670682914595
1663,1286.5841220824143
1664,1538.1084221774854
1665,1534.1391755342004
1666,1384.2292973692117
1667,1536.1056271838027
1668,1083.2969968657396
1669,991.6387552322178
1670,1516.209989446975
1671,1496.1788909986399
1672,1497.4467646704393
1673,1549.9478212696163
1674,1535.497106807681
1675,983.3644632435154
1676,1359.6116652275941
1677,1515.229349332177
1678,1477.869695260517
1679,1505.9422461020476
1680,1509.393291828302
1681,1460.2100226372802
1682,1540.7951990017048
1683,996.9887796085366
1684,1209.436572092463
1685,1505.896691863652
1686,1026.1145056049154
1687,1549.8903337405332
1688,1398.2112712672608
1689,1346.4411945871943
1690,1533.4808927024133
1691,1536.7169509432213
1692,960.2783261342566
1693,1384.550910131425
1694,1543.1017926353352
1695,1512.3405366836873
1696,1515.3357407464964
1697,1492.4640527951885
1698,1389.3755935660122
1699,1509.6821197042755
1700,1536.4880142539046
1701,1524.2310609101035
1702,1533.409594665353
1703,1304.595428883408
1704,1436.443707683543
1705,1385.062546988796
1706,1469.9609010322747
1707,1529.3418627855845
1708,948.381296144964
1709,1537.9132202861833
1710,1486.2771662714072
1711,1439.1152221006437
1712,1454.9106126176728
1713,1541.6592709549818
1714,1067.9989531053463
1715,1244.6837709669878
1716,915.7254936451742
1717,1522.2796871779265
1718,1399.3908477922262
1719,1473.5405983032422
1720,1525.562413057916
1721,1013.8332356791677
1722,1258.7147715137187
1723,940.5730158080343
1724,1449.1602402194449
1725,1551.8936895441605
1726,1551.1888738451423
1727,1415.5647448293291
1728,1184.7572902711188
1729,1538.2423928319668
1730,1506.27639986798
1731,1515.9456228180604
1732,1280.1348140117811
1733,1120.6934831218348
1734,1549.186927729384
1735,1214.7511243228248
1736,1498.4103005681552
1737,978.048882214352
1738,1526.2031741971543
1739,1327.5477987908835
1740,995.4917889478414
1741,949.8999029393369
1742,1541.1520861298677
1743,1538.5268146827755
1744,1030.2477905094038
1745,1055.5516510680804
1746,1070.207334669852
1747,1413.4906484694282
1748,1536.4155246167954
1749,1280.2713505887514
1750,978.3221591272389
1751,1395.905076637218
1752,1410.7801062903438
1753,1035.311203676749
1754,1092.851488384163
1755,1523.4891776221482
1756,1421.4281994179137
1757,1430.1080850483347
1758,1527.4583397382414
1759,1553.1175868140663
1760,1088.0513772516413
1761,1321.667842015823
1762,1033.5914201504809
1763,1516.0236406418685
1764,1133.0231612232394
1765,1429.9704146705458
1766,1168.985176051206
1767,1543.213017647432
1768,1021.5182962498284
1769,1526.124045348162
1770,1006.0364678253454
1771,1507.8482746574434
1772,1511.5467234238242
1773,1258.7584658231794
1774,976.1815283153403
1775,1393.0933711732093
1776,918.1550169644795
1777,992.027990679767
1778,994.5189426679387
1779,1416.180532848392
1780,1378.0296626657444
1781,1555.513998012239
1782,1542.0563804730978
1783,1481.7019445744222
1784,1458.8636467082479
1785,1517.0380508990784
1786,1452.732806918643
1787,999.572986861304
1788,1524.429694232846
1789,1550.2891867570215
1790,1478.237567628738
1791,1538.168631750564
1792,1146.4300638422685
1793,1522.4371845135286
1794,1467.996544956599
1795,989.3506136191081
1796,1519.5235695212577
1797,1497.8990541720593
1798,1332.4206438429112
1799,1382.321360170164
1800,1554.4427463359118
1801,1511.7802299386624
1802,1519.0810370484674
1803,1404.7174755023211
1804,1432.1894369012148
1805,1389.0289977992463
1806,1480.26302231989
1807,1437.1442473251823
1808,1009.4575110075356
1809,1211.6865101761016
1810,1455.6483746093136
1811,1230.1697008545148
1812,1479.081097556084
1813,1530.4608978306303
1814,1431.2951125749657
1815,1493.9864607714774
1816,1490.8817178512313
1817,1257.184290597019
1818,1257.9242600885652
1819,978.229494284584
1820,1531.4098850863743
1821,1039.2162672355466
1822,1035.711376456646
1823,984.505125403712
1824,1406.6229916595273
1825,1508.2567581408382
1826,1263.214926140524
1827,1545.137096352473
1828,1363.117577857238
1829,1444.3244369283734
1830,1096.1921468772002
1831,1170.3303153151899
1832,1252.9369148456974
1833,1449.6841795353237
1834,1540.9462593434425
1835,1516.4785099917872
1836,1277.2497150793815
1837,1257.202787089647
1838,1553.9567194888489
1839,1369.64188380261
1840,1530.3754224362942
1841,1411.1121905700688
1842,1505.7645748054072
1843,1510.4997934955954
1844,1566.7435444624064
1845,1460.2601737635
1846,1534.608421360136
1847,988.0729242117203
1848,1550.2483552428255
1849,988.0339731256602
1850,1481.8547322845263
1851,976.966002232832
1852,1557.6506999607352
1853,966.0802558486547
1854,1543.1158968721145
1855,1505.1730544678016
1856,1557.5969890047925
1857,1170.1139825025398
1858,1005.7953082961973
1859,1549.5686809811848
1860,1045.5882404008357
1861,1522.6250261758155
1862,1162.389360099009
1863,1036.8380089449083
1864,1246.6982140910816
1865,1306.69107070589
1866,1459.7888549214642
1867,1389.7826079110039
1868,1506.3763900071463
1869,1460.0349704101113
1870,1293.4539657777448
1871,1351.707013075366
1872,1470.6570459333952
1873,956.4338617647333
1874,1501.5912488496144
1875,1457.9669453584502
1876,1519.4691124213505
1877,1516.820962950978
1878,1438.3795928059246
1879,1500.9169215791856
1880,1513.300356458713
1881,1510.01436070587
1882,1215.2290581054588
1883,1413.103005793645
1884,1350.324836136244
1885,1503.6356367590383
1886,1372.094307867216
1887,1222.8854891071983
1888,1420.0589090300828
1889,1411.415005549448
1890,1478.0758300143043
1891,1471.7972656220963
1892,1463.1967165021001
1893,1479.0669936705428
1894,1472.894245180419
1895,1323.4375504543118
1896,1243.43369261294
1897,920.2746939284568
1898,1518.1601899869597
1899,1367.5266005973924
1900,1405.1929808706118
1901,1439.0932625418054
1902,1469.6149984090869
1903,1472.1871134234232
1904,880.3312256347565
1905,1522.0279903867563
1906,1425.1755841670786
1907,914.2618841208465
1908,1098.6501785305397
1909,1159.079480439907
1910,1437.34994742621
1911,1023.1510547083834
1912,1041.8376069723333
1913,1521.9801128163363
1914,1505.3709764154594
1915,1013.2566058810869
1916,1317.7540356967286
1917,1526.8855818814272
1918,1500.1426525324366
1919,1175.346746577101
1920,1516.9041074807906
1921,1382.4381357929103
1922,1446.2862529081451
1923,1198.5492981319824
1924,1106.1606506264504
1925,1529.6605868457689
1926,1355.1123984038481
1927,1526.0839803712518
1928,1128.8731274587483
1929,1068.5306005264817
1930,1436.4722987100738
1931,1525.0450334110817
1932,1522.0427058903053
1933,1518.0896670569218
1934,1030.4157727168033
1935,1498.9051818312512
1936,1519.9626430549836
1937,1120.4930616363129
1938,1318.2912156397733
1939,1384.1525754957577
1940,1428.087238617938
1941,1376.215378278314
1942,1180.1937382179515
1943,1526.8788686984697
1944,1383.4659697763848
1945,1493.966396113489
1946,970.6313823861242
1947,1502.8048939001808
1948,1468.4117773405158
1949,1497.9663541332318
1950,920.9160328522117
1951,1441.64947814102
1952,1415.9785848993201
1953,961.3591941885752
1954,1474.6967679734532
1955,1327.407799388991
1956,1274.257182694256
1957,1424.9716204762035
1958,1507.2744413605358
1959,1228.2531982896996
1960,1495.463796873591
1961,953.9024705599479
1962,1435.4013645188822
1963,1021.5546022682681
1964,1514.770886608499
1965,978.8081207948011
1966,914.2760373605697
1967,1498.6318915670604
1968,1465.013093344376
1969,1498.7985524792712
1970,1503.4682595635272
1971,1464.6736055520182
1972,1347.0556714358772
1973,980.1071536058389
1974,1486.0541925301616
1975,1093.9075317470633
1976,1494.9626096926734
1977,907.2537097147424
1978,945.8375691474826
1979,917.742627458213
1980,1489.1254386437736
1981,1008.7713151165838
1982,979.6329684014028
1983,1456.704014154035
1984,1508.0775796964263
1985,1423.2476378276815
1986,1202.70535796371
1987,1519.8412080799121
1988,1523.1042956011786
1989,1485.9439266331137
1990,1515.4047469652053
1991,1287.4664675128213
1992,1488.2191156297235
1993,1121.2929512055405
1994,1514.254660742029
1995,1413.7887118626768
1996,1517.7824732547272
1997,1511.4919860288242
1998,928.8307315780838
1999,1044.1420040449443
2000,1520.610154991333
2001,1219.3600692860691
2002,1521.2514626252023
2003,1464.1235933726452
2004,1500.7938462972734
2005,1255.9743184906786
2006,1478.2805240198113
2007,1471.1315402010152
2008,1099.9393576474079
2009,1520.1059405489445
2010,953.6120716501532
2011,1378.8036092241325
2012,1523.1112132570136
2013,1148.2668459637703
2014,1454.8903514675724
2015,1404.4413022290992
2016,1426.1800127924982
2017,1433.8004222026966
2018,1444.795353245093
2019,1402.2992171323563
2020,1202.5589256070277
2021,1325.5509378144422
2022,1505.0156847854869
2023,1358.8860991786225
2024,1485.766033086684
2025,1193.5045701912632
2026,1489.5904481027453
2027,1366.7467744690273
2028,1145.7442279531474
2029,893.5389729987263
2030,1398.011408351521
2031,1090.9475041601884
2032,1242.8692875641855
2033,1131.2716547884318
2034,1320.5516350838686
2035,1515.5684649533428
2036,1421.4839019289507
2037,1214.8926571885172
2038,1431.8932693702504
2039,1486.2540655958483
2040,1439.8340488646843
2041,1431.9196409200863
2042,1366.8801274064053
2043,1486.7968340125233
2044,1484.2427549879014
2045,1196.132661160301
2046,1472.7323756285903
2047,1109.5211359523312
2048,1472.310557897751
2049,1110.573613245756
2050,1489.8479806745688
2051,1436.4483968435188
2052,1501.750996891362
2053,1504.181379130678
2054,1191.9444421631022
2055,1498.4556736961083
2056,909.5872958421222
2057,905.6100554242713
2058,1464.1969817584218
2059,1256.5403514922587
2060,1404.4797891743563
2061,1420.7970367632504
2062,1180.2864148422066
2063,1294.537802773039
2064,1035.2689112374412
2065,937.9061336227817
2066,1510.0678003308258
2067,1476.5777574819122
2068,1426.861050150581
2069,1224.455920547532
2070,1329.180460654457
2071,1326.3574077884984
2072,1514.7151547206574
2073,1433.4290893171471
2074,944.0541271350731
2075,1376.133372422097
2076,1519.2849033294117
2077,1390.5877872198664
2078,1507.6115677617336
2079,1491.3005324527014
2080,1180.3259484792413
2081,1514.9998291184954
2082,1373.1643277993855
2083,1191.9106256525322
2084,1418.8229530480273
2085,1456.6855416219034
2086,1318.441921458569
2087,1442.4099407311996
2088,1369.7922083072724
2089,1487.5367593977553
2090,1296.6677298235968
2091,1523.4460917066526
2092,1359.9958042425876
2093,1370.3361009767102
2094,1369.1214849650569
2095,1422.776768112735
2096,1273.0816217124816
2097,1386.6854993161996
2098,1443.512680659578
2099,1022.912074932025
2100,1377.9660255916249
2101,1170.1841988596634
2102,1240.893934383147
2103,1489.7651756810353
2104,1471.6228323705454
2105,1449.266760902728
2106,1412.0103903538022
2107,1372.670958518527
2108,1385.2296502774514
2109,1407.7429009772186
2110,989.002264798603
2111,1427.3770045464516
2112,1497.0301827435915
2113,1008.8858810088046
2114,1436.9593974253517
2115,1504.6516144762893
2116,1327.7472305171775
2117,1493.7839133411203
2118,1248.561262350176
2119,1485.0803923283527
2120,1478.1543424800748
2121,1434.9697349277812
2122,1492.7033998432178
2123,991.9907209147237
2124,1203.4449430727273
2125,1453.2047430772325
2126,1496.4366056505023
2127,1492.6937022993488
2128,1453.3421293651706
2129,1355.8090961778917
2130,1265.7580405429733
2131,1499.0265625162092
2132,981.1141722433323
2133,1209.922792936821
2134,1137.323283057737
2135,1352.7518146590742
2136,1426.9087127667697
2137,890.6636492357447
2138,963.4032455451098
